Time Pressure difference Time.1 Pressure.1 difference.1
(hr) (psi) (hr) (psi)
0.000200000000006639311 0.26631077798543690 0.000200000000006639311 0.21406028849689010
0.000399999999999067768 0.52863257152146081 0.000399999999999067768 0.54284259679847102
0.000600000000005707079 0.78772554949091089 0.000600000000005707079 0.78619773981734398
0.000799999999998135536 1.04394274194204750 0.000799999999998135536 1.02934911358553238
0.001007140329434719206 1.30652181314393112 0.001007140329434719206 1.27987960790421917
0.001267914553963578328 1.63334294481612718 0.001267914553963578328 1.59113395082920350
0.001596209851982166583 2.03925647168924629 0.001596209851982166583 1.97345056149873876
0.002009509145224797066 2.54213552104433482 0.002009509145224797066 2.44087925641022130
0.002529822128138903281 3.16329957198448897 0.002529822128138903281 3.00923214897175395
0.003184857364431081805 3.92790193125652820 0.003184857364431081805 3.69580476716178419
0.004009497869020606231 4.86522460829969461 0.004009497869020606231 4.51879445477952135
0.005047658755842121536 6.00879759594173990 0.005047658755842121536 5.49628133689563736
0.006354625877790454069 7.39622396798969373 0.006354625877790454069 6.64465522854376633
0.008000000000009777068 9.06857406378357211 0.008000000000009777068 7.97640153227851911
0.010071403294347192059 11.06919010625194133 0.010071403294347192059 9.49715393339794112
0.012679145539706837553 13.44172207536162311 0.012679145539706837553 11.20214077681408504
0.015962098519750611558 16.22729466795719588 0.015962098519750611558 13.07238538980838705
0.020095091452091651263 19.46079220149888656 0.020095091452091651263 15.07135653852370361
0.025298221281360611101 23.16648210883884573 0.025298221281360611101 17.14290390281542997
0.031848573644296607199 27.35334867247011559 0.031848573644296607199 19.21271699964864155
0.040094978690177640601 32.01138861205006236 0.040094978690177640601 21.19303006821177249
0.050476587558421215363 37.10911268080681680 0.050476587558421215363 22.99334772740717980
0.063546258777961384112 42.59478177562589707 0.063546258777961384112 24.53400733821375113
0.079999999999998294697 48.40015496277989371 0.079999999999998294697 25.76061953300774832
0.100714032943542974863 54.44837359065111571 0.100714032943542974863 26.65665903389346880
0.126791455396897845276 60.66350078115348765 0.126791455396897845276 27.24573425650387648
0.159620985197506115583 66.97943907094006022 0.159620985197506115583 27.58654226739232485
0.200950914520760193227 73.34712848273406394 0.200950914520760193227 27.75948193600169844
0.252982212813478213320 79.73727790194763543 0.252982212813478213320 27.84875630025812043
0.318485736442795541734 86.13929840051869746 0.318485736442795541734 27.92785147300477533
0.400949786901833249431 92.55732409550091688 0.400949786901833249431 28.05056848877161002
0.504765875584155310207 99.00499125988244487 0.504765875584155310207 28.24719219588698849
0.635462587779443310865 105.49967169231642572 0.635462587779443310865 28.53195918152914956
0.799999999999997157829 112.06064315689663147 0.799999999999997157829 28.90433989033703455
1.007140329435344483500 118.70388292654232032 1.007140329435344483500 29.35590338124423582
1.267914553968893187630 125.44332380891576406 1.267914553968893187630 29.88060913535006691
1.596209851975103788391 132.29028742441320787 1.596209851975103788391 30.47225767744433611
2.009509145207672986544 139.25346563632794528 2.009509145207672986544 31.12809758955775408
2.529822128134711078928 146.33985578248962156 2.529822128134711078928 31.84939311779091753
3.184857364427998049905 153.55481809639738344 3.184857364427998049905 32.63932378165944215
4.009497869018190385759 160.90183395990868576 4.009497869018190385759 33.49592979366467915
5.009497869018204596614 168.13090015258305243 5.009497869018204596614 34.37239258498573946
6.009497869018204596614 174.12383317278820982 6.009497869018204596614 35.12280368338645786
7.009497869018204596614 179.24716853951500184 7.009497869018204596614 35.77690313910600395
8.009497869018204596614 183.72081946093348392 8.009497869018204596614 36.35530532154071892
9.009497869018204596614 187.69098657601225000 9.009497869018204596614 36.86953264813128328
10.009497869018190385759 191.25704578104162579 10.009497869018190385759 37.32483644834860570
11.009497869018190385759 194.49079906467449064 11.009497869018190385759 37.74351898227722302
12.009497869018190385759 197.44746621981994394 12.009497869018190385759 38.10639416505736676
13.009497869018190385759 200.17104838576955217 13.009497869018190385759 38.45216548320826178
14.009497869018190385759 202.68744960107645170 14.009497869018190385759 38.79028331954814490
15.009497869018190385759 205.03185695929019516 15.009497869018190385759 39.07076946824798824
16.009497869018204596614 207.22457261677985230 16.009497869018204596614 39.32163041340037068
17.009497869018204596614 209.27589592993626866 17.009497869018204596614 39.60003218494516375
18.009497869018204596614 211.20112200513455036 18.009497869018204596614 39.80065759911997958
19.009497869018204596614 213.02418385785472310 19.009497869018204596614 39.99514752532956408
20.009497869018204596614 214.74908065575826299 20.009497869018204596614 40.18149438735535739
21.009497869018204596614 216.38084999452280499 21.009497869018204596614 40.40743603021790875
22.009497869018190385759 217.92287904085978312 22.009497869018190385759 40.61170635557034103
23.009497869018190385759 219.39599000998862266 23.009497869018190385759 40.74185455422480118
24.009497869018190385759 220.80730468085670282 24.009497869018190385759 40.87593922326931306
25.009497869018190385759 222.15571262241928707 25.009497869018190385759 41.05719927874444863
26.009497869018190385759 223.44351918767350185 26.009497869018190385759 41.17161334799388328
27.009497869018204596614 224.67065633258900448 27.009497869018204596614 41.31282298293480437
28.009497869018190385759 225.84423043120344232 28.009497869018190385759 41.41088720095604003
29.009497869018190385759 226.97479041826392177 29.009497869018190385759 41.37215741975170147
30.009497869018190385759 228.06475232124142849 30.009497869018190385759 41.36604290239267812
31.009497869018190385759 229.11255543300055137 31.009497869018190385759 41.38385366911492724
32.009497869018190385759 230.11880979610870668 32.009497869018190385759 41.43056473277256657
33.009497869018218807469 231.07892282667202721 33.009497869018218807469 41.40950583337973256
34.009497869018190385759 231.99778489585733610 34.009497869018190385759 41.44396566370760837
35.009497869018218807469 232.88229732793607241 35.009497869018218807469 41.45595488806799267
36.009497869018190385759 233.73822867267685410 36.009497869018190385759 41.42934581846688502
37.009497869018218807469 234.57105993370299757 37.009497869018218807469 41.39937907110308402
38.009497869018190385759 235.37774485321989459 38.009497869018190385759 41.42271987171628211
39.009497869018190385759 236.15835668634787226 39.009497869018190385759 41.51391524707941016
40.009497869018190385759 236.91324420685472774 40.009497869018190385759 41.62084897302731434
41.009497869018190385759 237.64379350761939236 41.009497869018190385759 41.69951484518406915
42.009497869018190385759 238.35008440019927889 42.009497869018190385759 41.80195883601460594
43.009497869018190385759 239.03402590277954687 43.009497869018190385759 41.86239473180697956
44.009497869018218807469 239.70108476465333069 44.009497869018218807469 41.89595908873130270
46.009497869018218807469 240.98762225924349423 46.009497869018218807469 41.98365894796443598
48.009497869018218807469 242.21462155016070028 48.009497869018218807469 42.05389802557307632
50.009497869018218807469 243.37589539387278137 50.009497869018218807469 42.20686733027007875
52.009497869018190385759 244.47406742765375043 52.009497869018190385759 42.25447461423955531
54.009497869018190385759 245.51027117472895611 54.009497869018190385759 42.24125938031288285
56.009497869018190385759 246.49891992344868186 56.009497869018190385759 42.12158506387556400
58.009497869018190385759 247.44681586802568063 58.009497869018190385759 41.65950036909856635
60.009497869018190385759 248.35332935899290874 60.009497869018190385759 41.34571678617714241
62.009497869018190385759 249.21283738281022124 62.009497869018190385759 41.03951798513230642
64.009497869018190385759 250.02433602231548093 64.009497869018190385759 40.74179412678201118
66.009497869018218807469 250.79176305753833276 66.009497869018218807469 40.45743585376382612
68.009497869018218807469 251.49890469911952096 68.009497869018218807469 40.06127502648038075
70.009497869018218807469 252.16714095634617365 70.009497869018218807469 39.80138470640504522
72.009497869018218807469 252.80561096561621071 72.009497869018218807469 39.60459924984984781
74.009497869018190385759 253.42006072166648778 74.009497869018190385759 39.34319234262889609
76.009497869018190385759 254.00802627663850330 76.009497869018190385759 39.08678681972949676
78.009497869018190385759 254.56860283924351052 78.009497869018190385759 39.02410314963896099
80.009497869018190385759 255.10759221056187585 80.009497869018190385759 38.83586693757473540
82.009497869018190385759 255.63863516449524127 82.009497869018190385759 38.66868957160610876
84.009497869018190385759 256.15209488333857735 84.009497869018190385759 38.64256199396820080
86.009497869018190385759 256.64950910969645292 86.009497869018190385759 38.61922312256417200
88.009497869018218807469 257.12992405417469399 88.009497869018218807469 38.56537964032453658
91.009497869018190385759 257.81998470459177497 91.009497869018190385759 38.41173259198487244
94.009497869018218807469 258.47386317616582119 94.009497869018218807469 38.16541898744792150
97.009497869018190385759 259.09348803089250168 97.009497869018190385759 37.40665706350809927
99.504748934509109403734 259.57026206961069192 99.504748934509109403734 38.73229487073773214
nan nan nan nan

