Time Pressure difference Time.1 Pressure.1 difference.1
(hr) (psi) (hr) (psi)
0.000200000000006639311 0.01071839044523430 0.000200000000006639311 0.00861542956798629
0.000399999999999067768 0.02127623352872753 0.000399999999999067768 0.02184815405071246
0.000600000000005707079 0.03170412428291592 0.000600000000005707079 0.03164263349110053
0.000799999999998135536 0.04201627134751275 0.000799999999998135536 0.04142891169229697
0.001007140329434719206 0.05258446925966286 0.001007140329434719206 0.05151218236147012
0.001267914553963578328 0.06573826093687199 0.001267914553963578328 0.06403944693739827
0.001596209851982166583 0.08207533786984583 0.001596209851982166583 0.07942680278477895
0.002009509145224797066 0.10231505193057694 0.002009509145224797066 0.09823972239421944
0.002529822128138903281 0.12731546264953050 0.002529822128138903281 0.12111460661496222
0.003184857364431081805 0.15808893221775502 0.003184857364431081805 0.14874756028824521
0.004009497869020606231 0.19581399352289791 0.004009497869020606231 0.18187098424809217
0.005047658755842121536 0.24184015092025579 0.005047658755842121536 0.22121256154688321
0.006354625877790454069 0.29768084081692270 0.006354625877790454069 0.26743194418287602
0.008000000000009777068 0.36498904900676915 0.008000000000009777068 0.32103164061802086
0.010071403294347192059 0.44550919932283356 0.010071403294347192059 0.38223839360425149
0.012679145539706837553 0.54099810210433785 0.012679145539706837553 0.45086015510397243
0.015962098519750611558 0.65311093090849393 0.015962098519750611558 0.52613315810374317
0.020095091452091651263 0.78325169851233911 0.020095091452091651263 0.60658710526565984
0.025298221281360611101 0.93239711273964399 0.025298221281360611101 0.68996207658390274
0.031848573644296607199 1.10090877009941623 0.031848573644296607199 0.77326724766387722
0.040094978690177640601 1.28838406178529663 0.040094978690177640601 0.85297025042338392
0.050476587558421215363 1.49355561873216258 0.050476587558421215363 0.92542885590183699
0.063546258777961384112 1.71434106217689397 0.063546258777961384112 0.98743682785380404
0.079999999999998294697 1.94799385299114092 0.079999999999998294697 1.03680512052353158
0.100714032943542974863 2.19142060891165480 0.100714032943542974863 1.07286862984710551
0.126791455396897845276 2.44156504691948983 0.126791455396897845276 1.09657753973545025
0.159620985197506115583 2.69576689759201527 0.159620985197506115583 1.11029427082383947
0.200950914520760193227 2.95205161076019440 0.200950914520760193227 1.11725469092266905
0.252982212813478213320 3.20924028707529185 0.252982212813478213320 1.12084777679057446
0.318485736442795541734 3.46690674677010247 0.318485736442795541734 1.12403117383610551
0.400949786901833249431 3.72521737845669287 0.400949786901833249431 1.12897024877408958
0.504765875584155310207 3.98472101045966465 0.504765875584155310207 1.13688389642888810
0.635462587779443310865 4.24611681733781321 0.635462587779443310865 1.14834510637733445
0.799999999999997157829 4.51018068433330122 0.799999999999997157829 1.16333256524576312
1.007140329435344483500 4.77755565958219908 1.007140329435344483500 1.18150694723274019
1.267914553968893187630 5.04880250624119231 1.267914553968893187630 1.20262513547848582
1.596209851975103788391 5.32437689324263719 1.596209851975103788391 1.22643761550085539
2.009509145207672986544 5.60462864790174375 2.009509145207672986544 1.25283364911532757
2.529822128134711078928 5.88983939681846813 2.529822128134711078928 1.28186411929189448
3.184857364427998049905 6.18022487694478695 3.184857364427998049905 1.31365699430827476
4.009497869018190385759 6.47592520581675757 4.009497869018190385759 1.34813339726823789
5.009497869018204596614 6.76687833431448826 5.009497869018204596614 1.38340898948859037
6.009497869018204596614 7.00807997289859674 6.009497869018204596614 1.41361129375858807
7.009497869018204596614 7.21428232511979939 7.009497869018204596614 1.43993727804451410
8.009497869018204596614 7.39433638697255446 8.009497869018204596614 1.46321662284838805
9.009497869018204596614 7.55412639470018377 9.009497869018204596614 1.48391307871735800
10.009497869018190385759 7.69765199737938488 10.009497869018190385759 1.50223799946913883
11.009497869018190385759 7.82780305833055312 11.009497869018190385759 1.51908899928669938
12.009497869018190385759 7.94680204599894591 12.009497869018190385759 1.53369388280416663
13.009497869018190385759 8.05641990407121966 13.009497869018190385759 1.54761037548516223
14.009497869018190385759 8.15769920995044551 14.009497869018190385759 1.56121883329450717
15.009497869018190385759 8.25205616244821272 15.009497869018190385759 1.57250774949604888
16.009497869018204596614 8.34030787621714609 16.009497869018204596614 1.58260432004397789
17.009497869018204596614 8.42286887643706450 17.009497869018204596614 1.59380934490491377
18.009497869018204596614 8.50035475562460974 18.009497869018204596614 1.60188405197696504
19.009497869018204596614 8.57372876208084023 19.009497869018204596614 1.60971181990490519
20.009497869018204596614 8.64315185301813393 20.009497869018204596614 1.61721184840749110
21.009497869018204596614 8.70882677996531207 21.009497869018204596614 1.62630547490041111
22.009497869018190385759 8.77088986851757646 22.009497869018190385759 1.63452688118394596
23.009497869018190385759 8.83017916448870643 23.009497869018190385759 1.63976504397808798
24.009497869018190385759 8.88698130294469735 24.009497869018190385759 1.64516164056501890
25.009497869018190385759 8.94125159161439953 25.009497869018190385759 1.65245693691541096
26.009497869018190385759 8.99308281560295875 26.009497869018190385759 1.65706183753535763
27.009497869018204596614 9.04247223629615249 27.009497869018204596614 1.66274519745558025
28.009497869018190385759 9.08970586874812447 28.009497869018190385759 1.66669205452764224
29.009497869018190385759 9.13520828308802280 29.009497869018190385759 1.66513327076400053
30.009497869018190385759 9.17907671881157583 30.009497869018190385759 1.66488717563809541
31.009497869018190385759 9.22124836108051760 31.009497869018190385759 1.66560401764239652
32.009497869018190385759 9.26174776269168198 32.009497869018190385759 1.66748402949239427
33.009497869018218807469 9.30039008280723323 33.009497869018218807469 1.66663645769020596
34.009497869018190385759 9.33737214751128519 34.009497869018190385759 1.66802338584581711
35.009497869018218807469 9.37297171908101845 35.009497869018218807469 1.66850592428756617
36.009497869018190385759 9.40742096825015217 36.009497869018190385759 1.66743497102188698
37.009497869018218807469 9.44094049268773716 37.009497869018218807469 1.66622887902272487
38.009497869018190385759 9.47340768759089258 38.009497869018190385759 1.66716829205050066
39.009497869018190385759 9.50482550130811887 39.009497869018190385759 1.67083869415489872
40.009497869018190385759 9.53520797117372076 40.009497869018190385759 1.67514252832617649
41.009497869018190385759 9.56461088420759076 41.009497869018190385759 1.67830864701979232
42.009497869018190385759 9.59303745263959939 42.009497869018190385759 1.68243177977767755
43.009497869018190385759 9.62056451001899049 43.009497869018190385759 1.68486418425229312
44.009497869018218807469 9.64741208031112585 44.009497869018218807469 1.68621507168268403
46.009497869018218807469 9.69919222715221530 46.009497869018218807469 1.68974478737937384
48.009497869018218807469 9.74857609954207049 48.009497869018218807469 1.69257174715928782
50.009497869018218807469 9.79531467529518984 50.009497869018218807469 1.69872840648145829
52.009497869018190385759 9.83951354971981118 52.009497869018190385759 1.70064448911800059
54.009497869018190385759 9.88121834449373360 54.009497869018190385759 1.70011260663797970
56.009497869018190385759 9.92100916100567431 56.009497869018190385759 1.69529599328291747
58.009497869018190385759 9.95915977177812373 58.009497869018190385759 1.67669815727022087
60.009497869018190385759 9.99564483488206790 60.009497869018190385759 1.66406909665728442
62.009497869018190385759 10.03023803707904804 62.009497869018190385759 1.65174530590315816
64.009497869018190385759 10.06289897303437009 64.009497869018190385759 1.63976261191382688
66.009497869018218807469 10.09378612925076801 66.009497869018218807469 1.62831785169947274
68.009497869018218807469 10.12224693835465672 68.009497869018218807469 1.61237329827939591
70.009497869018218807469 10.14914189607585193 70.009497869018218807469 1.60191331635685952
72.009497869018218807469 10.17483883143347079 72.009497869018218807469 1.59399315866268743
74.009497869018190385759 10.19956900737357230 74.009497869018190385759 1.58347213762902661
76.009497869018190385759 10.22323325571609942 76.009497869018190385759 1.57315241070118739
78.009497869018190385759 10.24579516071258567 78.009497869018190385759 1.57062953853036058
80.009497869018190385759 10.26748823138484390 80.009497869018190385759 1.56305346807576351
82.009497869018190385759 10.28886147720878697 82.009497869018190385759 1.55632496727826442
84.009497869018190385759 10.30952703864830333 84.009497869018190385759 1.55527339294608868
86.009497869018190385759 10.32954680627261546 86.009497869018190385759 1.55433405756450238
88.009497869018218807469 10.34888239227328555 88.009497869018218807469 1.55216698242792250
91.009497869018190385759 10.37665573114455952 91.009497869018190385759 1.54598304549784316
94.009497869018218807469 10.40297282133175116 94.009497869018218807469 1.53606949485084510
97.009497869018190385759 10.42791128297709768 97.009497869018190385759 1.50553108924336021
99.504748934509109403734 10.44710033097504187 99.504748934509109403734 1.55888493287798924
nan nan nan nan

