Time Pressure difference Time.1 Pressure.1 difference.1
(hr) (psi) (hr) (psi)
0.000200000000006639311 0.11130636231589468 0.000200000000006639311 0.08946792243678069
0.000399999999999067768 0.22094550202909352 0.000399999999999067768 0.22688467668047552
0.000600000000005707079 0.32923513678412686 0.000600000000005707079 0.32859657856142860
0.000799999999998135536 0.43632281783955545 0.000799999999998135536 0.43022331372769929
0.001007140329434719206 0.54606948846572978 0.001007140329434719206 0.53493420144603587
0.001267914553963578328 0.68266655588290148 0.001267914553963578328 0.66502502588836676
0.001596209851982166583 0.85232081634070667 0.001596209851982166583 0.82481679814962761
0.002009509145224797066 1.06250246235599133 0.002009509145224797066 1.02018173255535571
0.002529822128138903281 1.32212211212973996 0.002529822128138903281 1.25772860715537704
0.003184857364431081805 1.64169275764591749 0.003184857364431081805 1.54468620299331549
0.004009497869020606231 2.03345300966086295 0.004009497869020606231 1.88866022103788023
0.005047658755842121536 2.51141695186419467 0.005047658755842121536 2.29720736990994112
0.006354625877790454069 3.09130103925265853 0.006354625877790454069 2.77717788189909731
0.008000000000009777068 3.79027089353183344 0.008000000000009777068 3.33379011411021686
0.010071403294347192059 4.62644168527557920 0.010071403294347192059 3.96939870281338081
0.012679145539706837553 5.61805721416043102 0.012679145539706837553 4.68200930300279072
0.015962098519750611558 6.78230582097282220 0.015962098519750611558 5.46369048800040957
0.020095091452091651263 8.13376763839736761 0.020095091452091651263 6.29917378545108342
0.025298221281360611101 9.68258540152707248 0.025298221281360611101 7.16499079529437477
0.031848573644296607199 11.43251415103240021 0.031848573644296607199 8.03008295650949400
0.040094978690177640601 13.37937294930884846 0.040094978690177640601 8.85776798516591057
0.050476587558421215363 15.51000065606476674 0.050476587558421215363 9.61022273436523022
0.063546258777961384112 17.80277256876005154 0.063546258777961384112 10.25415167386642779
0.079999999999998294697 20.22916693490800455 0.079999999999998294697 10.76682240543667568
0.100714032943542974863 22.75706016946718435 0.100714032943542974863 11.14132807918148060
0.126791455396897845276 25.35471394877932028 0.126791455396897845276 11.38753598956044399
0.159620985197506115583 27.99450239807092800 0.159620985197506115583 11.52997896624756535
0.200950914520760193227 30.65592057327894082 0.200950914520760193227 11.60226025188925547
0.252982212813478213320 33.32672605808956945 0.252982212813478213320 11.63957306667134972
0.318485736442795541734 36.00249313953568020 0.318485736442795541734 11.67263142060571113
0.400949786901833249431 38.68494969935796490 0.400949786901833249431 11.72392181419246882
0.504765875584155310207 41.37979510861959653 0.504765875584155310207 11.80610200137691379
0.635462587779443310865 44.09429002620036897 0.635462587779443310865 11.92512225853385566
0.799999999999997157829 46.83649172192274079 0.799999999999997157829 12.08076125447523097
1.007140329435344483500 49.61307800335359985 1.007140329435344483500 12.26949522126307102
1.267914553968893187630 52.42987218019699469 1.267914553968893187630 12.48879948381504335
1.596209851975103788391 55.29160619905815111 1.596209851975103788391 12.73608293020119220
2.009509145207672986544 58.20191288205656832 2.009509145207672986544 13.01019558696686396
2.529822128134711078928 61.16371681311485986 2.529822128134711078928 13.31166585418505832
3.184857364427998049905 64.17925833750355480 3.184857364427998049905 13.64182263320131483
4.009497869018190385759 67.24999252194325550 4.009497869018190385759 13.99984681778554751
5.009497869018204596614 70.27142885634276581 5.009497869018204596614 14.36617027545843683
6.009497869018204596614 72.77621510317773357 6.009497869018204596614 14.67980958903149258
7.009497869018204596614 74.91754722239791420 7.009497869018204596614 14.95319481046226251
8.009497869018204596614 76.78733940317653150 8.009497869018204596614 15.19494185265633668
9.009497869018204596614 78.44669717573268031 9.009497869018204596614 15.40986658668025555
10.009497869018190385759 79.93715535740130917 10.009497869018190385759 15.60016384064105743
11.009497869018190385759 81.28872406727882094 11.009497869018190385759 15.77515499259264509
12.009497869018190385759 82.52448278537366377 12.009497869018190385759 15.92682109065865248
13.009497869018190385759 83.66282208073958770 13.009497869018190385759 16.07133851465360763
14.009497869018190385759 84.71456871871616556 14.009497869018190385759 16.21265711498142181
15.009497869018190385759 85.69442937926989146 15.009497869018190385759 16.32988816784358477
16.009497869018204596614 86.61088948379344288 16.009497869018204596614 16.43473716968746245
17.009497869018204596614 87.46825371684643358 17.009497869018204596614 16.55109704324333464
18.009497869018204596614 88.27291476994787445 18.009497869018204596614 16.63494977053002088
19.009497869018204596614 89.03487560622411934 19.009497869018204596614 16.71623812978170776
20.009497869018204596614 89.75580770441908385 20.009497869018204596614 16.79412304115471599
21.009497869018204596614 90.43781656117825207 21.009497869018204596614 16.88855685473503954
22.009497869018190385759 91.08231786537483288 22.009497869018190385759 16.97393299691020729
23.009497869018190385759 91.69801440045964114 23.009497869018190385759 17.02832930284937518
24.009497869018190385759 92.28788276134878288 24.009497869018190385759 17.08437088279058003
25.009497869018190385759 92.85145883599568606 25.009497869018190385759 17.16012972950619186
26.009497869018190385759 93.38970616203071984 26.009497869018190385759 17.20794985132871346
27.009497869018204596614 93.90259629999850688 27.009497869018204596614 17.26696935819256495
28.009497869018190385759 94.39309940623053308 28.009497869018190385759 17.30795595086397753
29.009497869018190385759 94.86562447822176125 29.009497869018190385759 17.29176858101077485
30.009497869018190385759 95.32118131073558231 30.009497869018190385759 17.28921297778022037
31.009497869018190385759 95.75911759583614469 31.009497869018190385759 17.29665710628642472
32.009497869018190385759 96.17968830487515675 32.009497869018190385759 17.31618030626717086
33.009497869018218807469 96.58097393684434451 33.009497869018218807469 17.30737859909060106
34.009497869018190385759 96.96501845492488769 34.009497869018190385759 17.32178131455271597
35.009497869018218807469 97.33470631353364411 35.009497869018218807469 17.32679229067857207
36.009497869018190385759 97.69244851644388916 36.009497869018190385759 17.31567085291959529
37.009497869018218807469 98.04053588560341836 37.009497869018218807469 17.30314605138983453
38.009497869018190385759 98.37769521729005362 38.009497869018190385759 17.31290149437058190
39.009497869018190385759 98.70395712896892348 39.009497869018190385759 17.35101720853164053
40.009497869018190385759 99.01946739295786415 40.009497869018190385759 17.39571087107952607
41.009497869018190385759 99.32480533600191563 41.009497869018190385759 17.42858979597476576
42.009497869018190385759 99.62000431587276239 42.009497869018190385759 17.47140694384511406
43.009497869018190385759 99.90586221942797351 43.009497869018190385759 17.49666652877381523
44.009497869018218807469 100.18466391092321999 44.009497869018218807469 17.51069497516633433
46.009497869018218807469 100.72238082042684937 46.009497869018218807469 17.54734971509349606
48.009497869018218807469 101.23521334139843475 48.009497869018218807469 17.57670660511568173
50.009497869018218807469 101.72057547421928803 50.009497869018218807469 17.64064114423052843
52.009497869018190385759 102.17956378555187769 52.009497869018190385759 17.66053892545615867
54.009497869018190385759 102.61265203897339404 54.009497869018190385759 17.65501553047132788
56.009497869018190385759 103.02586436428970273 56.009497869018190385759 17.60499685332260356
58.009497869018190385759 103.42204378384974461 58.009497869018190385759 17.41186547934460194
60.009497869018190385759 103.80092713146763117 60.009497869018190385759 17.28071754221026168
62.009497869018190385759 104.16016423120549916 62.009497869018190385759 17.15273971514817930
64.009497869018190385759 104.49933548920307658 64.009497869018190385759 17.02830404679743381
66.009497869018218807469 104.82008672683490147 66.009497869018218807469 16.90945461380221815
68.009497869018218807469 105.11564128291374232 68.009497869018218807469 16.74387655905526628
70.009497869018218807469 105.39493507463384958 70.009497869018218807469 16.63525366985969356
72.009497869018218807469 105.66178786488603691 72.009497869018218807469 16.55300587842021542
74.009497869018190385759 105.91860123041787745 74.009497869018190385759 16.44374912153219981
76.009497869018190385759 106.16434534782104038 76.009497869018190385759 16.33658272651232934
78.009497869018190385759 106.39864205355378601 78.009497869018190385759 16.31038366935374384
80.009497869018190385759 106.62391624899645137 80.009497869018190385759 16.23170909155600583
82.009497869018190385759 106.84586918639894293 82.009497869018190385759 16.16183619865890009
84.009497869018190385759 107.06047309365546027 84.009497869018190385759 16.15091600367092184
86.009497869018190385759 107.26837068052330437 86.009497869018190385759 16.14116136701598592
88.009497869018218807469 107.46916330437642273 88.009497869018218807469 16.11865712521304062
91.009497869018190385759 107.75757874650120982 91.009497869018190385759 16.05443931863144869
94.009497869018218807469 108.03087160613742412 94.009497869018218807469 15.95149090806646797
97.009497869018190385759 108.28984793860831815 97.009497869018190385759 15.63436131137335217
99.504748934509109403734 108.48911882166390797 99.504748934509109403734 16.18842045680988662
nan nan nan nan

