Time Pressure difference Time.1 Pressure.1 difference.1
(hr) (psi) (hr) (psi)
0.000200000000006639311 0.02968169661757191 0.000200000000006639311 0.02385811264980818
0.000399999999999067768 0.05891880054109161 0.000399999999999067768 0.06050258044812680
0.000600000000005707079 0.08779603647576716 0.000600000000005707079 0.08762575428304763
0.000799999999998135536 0.11635275142388145 0.000799999999998135536 0.11472621699405314
0.001007140329434719206 0.14561853025752794 0.001007140329434719206 0.14264912038560956
0.001267914553963578328 0.18204441490210707 0.001267914553963578328 0.17734000690356447
0.001596209851982166583 0.22728555102418846 0.001596209851982166583 0.21995114617323402
0.002009509145224797066 0.28333398996159770 0.002009509145224797066 0.27204846201476152
0.002529822128138903281 0.35256589656793069 0.002529822128138903281 0.33539429524143388
0.003184857364431081805 0.43778473537224466 0.003184857364431081805 0.41191632079821744
0.004009497869020606231 0.54225413590956351 0.004009497869020606231 0.50364272561010137
0.005047658755842121536 0.66971118716378530 0.005047658755842121536 0.61258863197598434
0.006354625877790454069 0.82434694380070894 0.006354625877790454069 0.74058076850642596
0.008000000000009777068 1.01073890494182228 0.008000000000009777068 0.88901069709605773
0.010071403294347192059 1.23371778274015442 0.010071403294347192059 1.05850632075023476
0.012679145539706837553 1.49814859044278159 0.012679145539706837553 1.24853581413407766
0.015962098519750611558 1.80861488559275263 0.015962098519750611558 1.45698413013344252
0.020095091452091651263 2.16900470357263142 0.020095091452091651263 1.67977967612028878
0.025298221281360611101 2.58202277374055278 0.025298221281360611101 1.91066421207850001
0.031848573644296607199 3.04867044027530643 0.031848573644296607199 2.14135545506919822
0.040094978690177640601 3.56783278648235935 0.040094978690177640601 2.36207146271090940
0.050476587558421215363 4.13600017495060435 0.050476587558421215363 2.56272606249739487
0.063546258777961384112 4.74740601833601339 0.063546258777961384112 2.73444044636438077
0.079999999999998294697 5.39444451597546770 0.079999999999998294697 2.87115264144977989
0.100714032943542974863 6.06854937852458320 0.100714032943542974863 2.97102082111506149
0.126791455396897845276 6.76125705300781821 0.126791455396897845276 3.03667626388278533
0.159620985197506115583 7.46520063948558033 0.159620985197506115583 3.07466105766601761
0.200950914520760193227 8.17491215287438600 0.200950914520760193227 3.09393606717046810
0.252982212813478213320 8.88712694882388377 0.252982212813478213320 3.10388615111235966
0.318485736442795541734 9.60066483720951425 0.318485736442795541734 3.11270171216152303
0.400949786901833249431 10.31598658649545719 0.400949786901833249431 3.12637915045132475
0.504765875584155310207 11.03461202896522586 0.504765875584155310207 3.14829386703384362
0.635462587779443310865 11.75847734032009839 0.635462587779443310865 3.18003260227569484
0.799999999999997157829 12.48973112584606504 0.799999999999997157829 3.22153633452672850
1.007140329435344483500 13.23015413422762698 1.007140329435344483500 3.27186539233681906
1.267914553968893187630 13.98129924805253133 1.267914553968893187630 3.33034652901734507
1.596209851975103788391 14.74442831974883994 1.596209851975103788391 3.39628878138698465
2.009509145207672986544 15.52051010188175084 2.009509145207672986544 3.46938548985783024
2.529822128134711078928 16.31032448349729691 2.529822128134711078928 3.54977756111601561
3.184857364427998049905 17.11446889000094984 3.184857364427998049905 3.63781936885368395
4.009497869018190385759 17.93333133918486766 4.009497869018190385759 3.73329248474281261
5.009497869018204596614 18.73904769502473755 5.009497869018204596614 3.83097874012225015
6.009497869018204596614 19.40699069418072753 6.009497869018204596614 3.91461589040839808
7.009497869018204596614 19.97801259263944473 7.009497869018204596614 3.98751861612326985
8.009497869018204596614 20.47662384084707199 8.009497869018204596614 4.05198449404168937
9.009497869018204596614 20.91911924686204571 9.009497869018204596614 4.10929775644806838
10.009497869018190385759 21.31657476197367984 10.009497869018190385759 4.16004369083761549
11.009497869018190385759 21.67699308460768748 11.009497869018190385759 4.20670799802470619
12.009497869018190385759 22.00652874276631366 12.009497869018190385759 4.24715229084230739
13.009497869018190385759 22.31008588819722505 13.009497869018190385759 4.28569027057429519
14.009497869018190385759 22.59055165832430845 14.009497869018190385759 4.32337523066171237
15.009497869018190385759 22.85184783447197177 15.009497869018190385759 4.35463684475828927
16.009497869018204596614 23.09623719567825262 16.009497869018204596614 4.38259657858332297
17.009497869018204596614 23.32486765782571680 17.009497869018204596614 4.41362587819822316
18.009497869018204596614 23.53944393865276652 18.009497869018204596614 4.43598660547467283
19.009497869018204596614 23.74263349499309683 19.009497869018204596614 4.45766350127512201
20.009497869018204596614 23.93488205451175688 20.009497869018204596614 4.47843281097459034
21.009497869018204596614 24.11675108298086556 21.009497869018204596614 4.50361516126267691
22.009497869018190385759 24.28861809743328948 22.009497869018190385759 4.52638213250938826
23.009497869018190385759 24.45280384012257358 23.009497869018190385759 4.54088781409316677
24.009497869018190385759 24.61010206969300995 24.009497869018190385759 4.55583223541082116
25.009497869018190385759 24.76038902293218413 25.009497869018190385759 4.57603459453498473
26.009497869018190385759 24.90392164320819290 26.009497869018190385759 4.58878662702099049
27.009497869018204596614 25.04069234666626897 27.009497869018204596614 4.60452516218468411
28.009497869018190385759 25.17149317499480787 28.009497869018190385759 4.61545492023039383
29.009497869018190385759 25.29749986085913704 29.009497869018190385759 4.61113828826954020
30.009497869018190385759 25.41898168286282100 30.009497869018190385759 4.61045679407472520
31.009497869018190385759 25.53576469222297263 31.009497869018190385759 4.61244189500971391
32.009497869018190385759 25.64791688130004133 32.009497869018190385759 4.61764808167124574
33.009497869018218807469 25.75492638315849092 33.009497869018218807469 4.61530095975749433
34.009497869018190385759 25.85733825464663838 34.009497869018190385759 4.61914168388072444
35.009497869018218807469 25.95592168360897034 35.009497869018218807469 4.62047794418095314
36.009497869018190385759 26.05131960438503569 36.009497869018190385759 4.61751222744522583
37.009497869018218807469 26.14414290282757847 37.009497869018218807469 4.61417228037062266
38.009497869018190385759 26.23405205794401240 38.009497869018190385759 4.61677373183215511
39.009497869018190385759 26.32105523439171080 39.009497869018190385759 4.62693792227510414
40.009497869018190385759 26.40519130478876164 40.009497869018190385759 4.63885623228787392
41.009497869018190385759 26.48661475626717632 41.009497869018190385759 4.64762394559327152
42.009497869018190385759 26.56533448423273569 42.009497869018190385759 4.65904185169203089
43.009497869018190385759 26.64156325851412532 43.009497869018190385759 4.66577774100634990
44.009497869018218807469 26.71591037624619247 44.009497869018218807469 4.66951866004435612
46.009497869018218807469 26.85930155211382697 46.009497869018218807469 4.67929325735826573
48.009497869018218807469 26.99605689103958284 48.009497869018218807469 4.68712176136418179
50.009497869018218807469 27.12548679312514111 50.009497869018218807469 4.70417097179480770
52.009497869018190385759 27.24788367614716833 52.009497869018190385759 4.70947704678830892
54.009497869018190385759 27.36337387705956914 54.009497869018190385759 4.70800414145902124
56.009497869018190385759 27.47356383047725359 56.009497869018190385759 4.69466582755269446
58.009497869018190385759 27.57921167569326570 58.009497869018190385759 4.64316412782522736
60.009497869018190385759 27.68024723505803664 60.009497869018190385759 4.60819134458940294
62.009497869018190385759 27.77604379498813358 62.009497869018190385759 4.57406392403951489
64.009497869018190385759 27.86648946378748803 64.009497869018190385759 4.54088107914598282
66.009497869018218807469 27.95202312715597515 66.009497869018218807469 4.50918789701392431
68.009497869018218807469 28.03083767544366722 68.009497869018218807469 4.46503374908140405
70.009497869018218807469 28.10531601990236084 70.009497869018218807469 4.43606764529591846
72.009497869018218807469 28.17647676396961032 72.009497869018218807469 4.41413490091205762
74.009497869018190385759 28.24496032811143209 74.009497869018190385759 4.38499976574191930
76.009497869018190385759 28.31049209275227696 76.009497869018190385759 4.35642206040328794
78.009497869018190385759 28.37297121428100866 78.009497869018190385759 4.34943564516099812
80.009497869018190385759 28.43304433306571966 80.009497869018190385759 4.32845575774826852
82.009497869018190385759 28.49223178303971693 82.009497869018190385759 4.30982298630904026
84.009497869018190385759 28.54945949164145702 84.009497869018190385759 4.30691093431224559
86.009497869018190385759 28.60489884813954831 86.009497869018190385759 4.30430969787092987
88.009497869018218807469 28.65844354783371273 88.009497869018218807469 4.29830856672347750
91.009497869018190385759 28.73535433240031978 91.009497869018190385759 4.28118381830171923
94.009497869018218807469 28.80823242830331310 94.009497869018218807469 4.25373090881772420
97.009497869018190385759 28.87729278362888508 97.009497869018190385759 4.16916301636622855
99.504748934509109403734 28.93043168577704094 99.504748934509109403734 4.31691212181597006
nan nan nan nan

