Time Pressure difference Time.1 Pressure.1 difference.1
(hr) (psi) (hr) (psi)
0.000200000000006639311 0.11625331175215667 0.000200000000006639311 0.09344427454508204
0.000399999999999067768 0.23076530211927546 0.000399999999999067768 0.23696844008849663
0.000600000000005707079 0.34386780953008805 0.000600000000005707079 0.34320087094193652
0.000799999999998135536 0.45571494307686899 0.000799999999998135536 0.44934434989337479
0.001007140329434719206 0.57033924350865106 0.001007140329434719206 0.55870905484363742
0.001267914553963578328 0.71300729169991928 0.001267914553963578328 0.69458169370562750
0.001596209851982166583 0.89020174151140474 0.001596209851982166583 0.86147532251183334
0.002009509145224797066 1.10972479401625757 0.002009509145224797066 1.06552314289114936
0.002529822128138903281 1.38088309489106176 0.002529822128138903281 1.31362765636228285
0.003184857364431081805 1.71465688020795826 0.003184857364431081805 1.61333892312635174
0.004009497869020606231 2.12382869897912352 0.004009497869020606231 1.97260067530623040
0.005047658755842121536 2.62303548305815903 0.005047658755842121536 2.39930547523927151
0.006354625877790454069 3.22869219655277684 0.006354625877790454069 2.90060800998350166
0.008000000000009777068 3.95872737768880345 0.008000000000009777068 3.48195856362622624
0.010071403294347192059 4.83206131573227182 0.010071403294347192059 4.14581642293841934
0.012679145539706837553 5.86774864590089429 0.012679145539706837553 4.89009860535847007
0.015962098519750611558 7.08374163523828138 0.015962098519750611558 5.70652117635598355
0.020095091452091651263 8.49526842232613966 0.020095091452091651263 6.57913706480446514
0.025298221281360611101 10.11292253048383216 0.025298221281360611101 7.48343483064079162
0.031848573644296607199 11.94062589107828387 0.031848573644296607199 8.38697553235436111
0.040094978690177640601 13.97401174705590776 0.040094978690177640601 9.25144656228439466
0.050476587558421215363 16.19933401855653443 0.050476587558421215363 10.03734374478146130
0.063546258777961384112 18.59400690514938503 0.063546258777961384112 10.70989174826049073
0.079999999999998294697 21.12824102090391776 0.079999999999998294697 11.24534784567830670
0.100714032943542974863 23.76848506588794763 0.100714032943542974863 11.63649821603399026
0.126791455396897845276 26.48159012428062198 0.126791455396897845276 11.89364870020757436
0.159620985197506115583 29.23870250465185805 0.159620985197506115583 12.04242247585856873
0.200950914520760193227 32.01840593209134767 0.200950914520760193227 12.11791626308433401
0.252982212813478213320 34.80791388289355126 0.252982212813478213320 12.15688742519007626
0.318485736442795541734 37.60260394573726472 0.318485736442795541734 12.19141503929929726
0.400949786901833249431 40.40428079710721221 0.400949786901833249431 12.24498500593435502
0.504765875584155310207 43.21889711344713447 0.504765875584155310207 12.33081764588255425
0.635462587779443310865 46.05403624958704967 0.635462587779443310865 12.45512769224647087
0.799999999999997157829 48.91811357623041800 0.799999999999997157829 12.61768397689635179
1.007140329435344483500 51.81810369239153857 1.007140329435344483500 12.81480611998587449
1.267914553968893187630 54.76008872153908413 1.267914553968893187630 13.04385723865126678
1.596209851975103788391 57.74901091901629258 1.596209851975103788391 13.30213106043235527
2.009509145207672986544 60.78866456570352739 2.009509145207672986544 13.58842650194316981
2.529822128134711078928 63.88210422703107128 2.529822128134711078928 13.90329544770439441
3.184857364427998049905 67.03166981917037504 3.184857364427998049905 14.24812586134359549
4.009497869018190385759 70.23888107847406559 4.009497869018190385759 14.62206223190935006
5.009497869018204596614 73.39460347218022207 5.009497869018204596614 15.00466673214547875
6.009497869018204596614 76.01071355220784653 6.009497869018204596614 15.33224557076622752
7.009497869018204596614 78.24721598783783350 7.009497869018204596614 15.61778124648280652
8.009497869018204596614 80.20011004331770721 8.009497869018204596614 15.87027260166328446
9.009497869018204596614 81.93321705020969148 9.009497869018204596614 16.09474954608826636
10.009497869018190385759 83.48991781773025878 10.009497869018190385759 16.29350445578065987
11.009497869018190385759 84.90155624804677359 11.009497869018190385759 16.47627299226343212
12.009497869018190385759 86.19223757583471013 12.009497869018190385759 16.63467980579903838
13.009497869018190385759 87.38116972877246269 13.009497869018190385759 16.78562022641598972
14.009497869018190385759 88.47966066177021105 14.009497869018190385759 16.93321965342504143
15.009497869018190385759 89.50307068501521712 15.009497869018190385759 17.05566097530329728
16.009497869018204596614 90.46026234973980706 16.009497869018204596614 17.16516993278468561
17.009497869018204596614 91.35573165981739407 17.009497869018204596614 17.28670135627637450
18.009497869018204596614 92.19615542639000694 18.009497869018204596614 17.37428087144246547
19.009497869018204596614 92.99198118872297414 19.009497869018204596614 17.45918204666089579
20.009497869018204596614 93.74495471350438436 20.009497869018204596614 17.54052850965048194
21.009497869018204596614 94.45727507500839693 21.009497869018204596614 17.63915938161215280
22.009497869018190385759 95.13042088161371623 22.009497869018190385759 17.72833001899510563
23.009497869018190385759 95.77348170714672904 23.009497869018190385759 17.78514393853157216
24.009497869018190385759 96.38956643963095416 24.009497869018190385759 17.84367625535904978
25.009497869018190385759 96.97819033981771497 25.009497869018190385759 17.92280216192868991
26.009497869018190385759 97.54035976923208295 26.009497869018190385759 17.97274762249887559
27.009497869018204596614 98.07604502444289096 27.009497869018204596614 18.03439021855667690
28.009497869018190385759 98.58834826872966062 28.009497869018190385759 18.07719843756904510
29.009497869018190385759 99.08187445503160973 29.009497869018190385759 18.06029162905569763
30.009497869018190385759 99.55767825787938818 30.009497869018190385759 18.05762244345934064
31.009497869018190385759 100.01507837787330857 31.009497869018190385759 18.06539742212137867
32.009497869018190385759 100.45434111842516245 32.009497869018190385759 18.08578831987904678
33.009497869018218807469 100.87346166737076203 33.009497869018218807469 18.07659542571684952
34.009497869018190385759 101.27457483069932209 34.009497869018190385759 18.09163826186616930
35.009497869018218807469 101.66069326080180701 35.009497869018218807469 18.09687194804206456
36.009497869018190385759 102.03433511717473436 36.009497869018190385759 18.08525622416046730
37.009497869018218807469 102.39789303607469151 37.009497869018218807469 18.07217476478493623
38.009497869018190385759 102.75003722694739849 38.009497869018190385759 18.08236378300927427
39.009497869018190385759 103.09079966803420803 39.009497869018190385759 18.12217352891082456
40.009497869018190385759 103.42033261042266190 40.009497869018190385759 18.16885357646083676
41.009497869018190385759 103.73924112871311820 41.009497869018190385759 18.20319378690697576
42.009497869018190385759 104.04756006324488737 42.009497869018190385759 18.24791391912711802
43.009497869018190385759 104.34612276251365870 43.009497869018190385759 18.27429615227487503
44.009497869018218807469 104.63731564029758658 44.009497869018218807469 18.28894808517372539
46.009497869018218807469 105.19893107911248364 46.009497869018218807469 18.32723192465320849
48.009497869018218807469 105.73455615657169915 48.009497869018218807469 18.35789356534304773
50.009497869018218807469 106.24148993974014843 50.009497869018218807469 18.42466963952966452
52.009497869018190385759 106.72087773157639390 52.009497869018190385759 18.44545176658754215
54.009497869018190385759 107.17321435181665379 54.009497869018190385759 18.43968288738116357
56.009497869018190385759 107.60479166936924855 56.009497869018190385759 18.38744115791471856
58.009497869018190385759 108.01857906313195201 58.009497869018190385759 18.18572616731547242
60.009497869018190385759 108.41430167064397949 60.009497869018190385759 18.04874943297516410
62.009497869018190385759 108.78950486370352735 62.009497869018190385759 17.91508370248809712
64.009497869018190385759 109.14375039983431748 64.009497869018190385759 17.78511755998842858
66.009497869018218807469 109.47875724802756281 66.009497869018218807469 17.66098592997120775
68.009497869018218807469 109.78744756215435530 68.009497869018218807469 17.48804885056883407
70.009497869018218807469 110.07915441128423595 70.009497869018218807469 17.37459827740901375
72.009497869018218807469 110.35786732554763034 72.009497869018218807469 17.28869502857222429
74.009497869018190385759 110.62609461843645420 74.009497869018190385759 17.17458241582252043
76.009497869018190385759 110.88276069661309009 76.009497869018190385759 17.06265306991287645
78.009497869018190385759 111.12747058926728982 78.009497869018190385759 17.03528961021391197
80.009497869018190385759 111.36275697117407901 80.009497869018190385759 16.95311838451404896
82.009497869018190385759 111.59457448357223086 82.009497869018190385759 16.88014002971040739
84.009497869018190385759 111.81871634226236267 84.009497869018190385759 16.86873449272296099
86.009497869018190385759 112.03585382187989694 86.009497869018190385759 16.85854631666114045
88.009497869018218807469 112.24557056234870345 88.009497869018218807469 16.83504188633362020
91.009497869018190385759 112.54680446856792742 91.009497869018190385759 16.76796995501506871
94.009497869018218807469 112.83224367752130490 94.009497869018218807469 16.66044605953608837
97.009497869018190385759 113.10273006921313765 97.009497869018190385759 16.32922181410105722
99.504748934509109403734 113.31085743596007376 99.504748934509109403734 16.90790581044588237
nan nan nan nan

