Time Pressure difference Time.1 Pressure.1 difference.1
(hr) (psi) (hr) (psi)
0.000200000000006639311 0.54663791270694939 0.000200000000006639311 0.43938690796730068
0.000399999999999067768 1.08508790996510363 0.000399999999999067768 1.11425585658633519
0.000600000000005707079 1.61691033842871179 0.000600000000005707079 1.61377430804612709
0.000799999999998135536 2.14282983872315036 0.000799999999998135536 2.11287449630714574
0.001007140329434719206 2.68180793224280611 0.001007140329434719206 2.62712130043497627
0.001267914553963578328 3.35265130778047160 0.001267914553963578328 3.26601179380731255
0.001596209851982166583 4.18584223136213751 0.001596209851982166583 4.05076694202372689
0.002009509145224797066 5.21806764845942350 0.002009509145224797066 5.01022584210519106
0.002529822128138903281 6.49308859512605618 0.002529822128138903281 6.17684493736307427
0.003184857364431081805 8.06253554310550591 0.003184857364431081805 7.58612557470050586
0.004009497869020606231 9.98651366966779364 0.004009497869020606231 9.27542019665269990
0.005047658755842121536 12.33384769693304506 0.005047658755842121536 11.28184063889104394
0.006354625877790454069 15.18172288166305606 0.006354625877790454069 13.63902915332667831
0.008000000000009777068 18.61444149934522585 0.008000000000009777068 16.37261367151906555
0.010071403294347192059 22.72096916546450984 0.010071403294347192059 19.49415807381682697
0.012679145539706837553 27.59090320732122592 0.012679145539706837553 22.99386791030259403
0.015962098519750611558 33.30865747633319529 0.015962098519750611558 26.83279106329090169
0.020095091452091651263 39.94583662412929215 0.020095091452091651263 30.93594236854865898
0.025298221281360611101 47.55225274972184479 0.025298221281360611101 35.18806590577904103
0.031848573644296607199 56.14634727507023371 0.031848573644296607199 39.43662963085773754
0.040094978690177640601 65.70758715105012016 0.040094978690177640601 43.50148277159257759
0.050476587558421215363 76.17133655534030368 0.050476587558421215363 47.19687165099368542
0.063546258777961384112 87.43139417102158006 0.063546258777961384112 50.35927822054401304
0.079999999999998294697 99.34768650254819988 0.079999999999998294697 52.87706114670012170
0.100714032943542974863 111.76245105449439166 0.100714032943542974863 54.71630012220238370
0.126791455396897845276 124.51981739289398377 0.126791455396897845276 55.92545452650795568
0.159620985197506115583 137.48411177719276566 0.159620985197506115583 56.62500781201581646
0.200950914520760193227 150.55463214876994016 0.200950914520760193227 56.97998923705611674
0.252982212813478213320 163.67125464083986230 0.252982212813478213320 57.16323661631929554
0.318485736442795541734 176.81224408527521064 0.318485736442795541734 57.32558986564138337
0.400949786901833249431 189.98608630129132280 0.400949786901833249431 57.57748268747857168
0.504765875584155310207 203.22077153344289968 0.504765875584155310207 57.98107871787328804
0.635462587779443310865 216.55195768422848346 0.635462587779443310865 58.56560042524404963
0.799999999999997157829 230.01921490099834955 0.799999999999997157829 59.32996082753390965
1.007140329435344483500 243.65533863869208631 1.007140329435344483500 60.25685430886974814
1.267914553968893187630 257.48892781830079457 1.267914553968893187630 61.33388190940276985
1.596209851975103788391 271.54322155537448680 1.596209851975103788391 62.54831839054363485
2.009509145207672986544 285.83606104298888795 2.009509145207672986544 63.89451610488171696
2.529822128134711078928 300.38180923774189068 2.529822128134711078928 65.37507008388661234
3.184857364427998049905 315.19146872418411931 3.184857364427998049905 66.99650670972201283
4.009497869018190385759 330.27218549665468572 4.009497869018190385759 68.75480326068013426
5.009497869018204596614 345.11079505003891654 5.009497869018204596614 70.55385846391810389
6.009497869018204596614 357.41207861782839927 6.009497869018204596614 72.09417598168799657
7.009497869018204596614 367.92839858110977502 7.009497869018204596614 73.43680118027022274
8.009497869018204596614 377.11115573560033454 8.009497869018204596614 74.62404776526778960
9.009497869018204596614 385.26044612970935077 9.009497869018204596614 75.67956701458525970
10.009497869018190385759 392.58025186634864667 10.009497869018190385759 76.61413797292607342
11.009497869018190385759 399.21795597485822782 11.009497869018190385759 77.47353896362166381
12.009497869018190385759 405.28690434594619774 12.009497869018190385759 78.21838802301249416
13.009497869018190385759 410.87741510763220276 13.009497869018190385759 78.92812914974327043
14.009497869018190385759 416.04265970747275105 14.009497869018190385759 79.62216049801988049
15.009497869018190385759 420.85486428485882016 15.009497869018190385759 80.19789522429850592
16.009497869018204596614 425.35570168707448602 16.009497869018204596614 80.71282032224286240
17.009497869018204596614 429.56631269829028952 17.009497869018204596614 81.28427659015059703
18.009497869018204596614 433.51809253685513568 18.009497869018204596614 81.69608665082520815
19.009497869018204596614 437.26016686612291551 19.009497869018204596614 82.09530281515016270
20.009497869018204596614 440.80074450392481822 20.009497869018204596614 82.47780426878205162
21.009497869018204596614 444.15016577823092803 21.009497869018204596614 82.94157921992096760
22.009497869018190385759 447.31538329439638346 22.009497869018190385759 83.36087094038123269
23.009497869018190385759 450.33913738892397305 23.009497869018190385759 83.62801724288249261
24.009497869018190385759 453.23604645017957182 24.009497869018190385759 83.90324366881596063
25.009497869018190385759 456.00383117233440089 25.009497869018190385759 84.27530378268596678
26.009497869018190385759 458.64722359575085875 26.009497869018190385759 84.51015371430324308
27.009497869018204596614 461.16608405110378044 27.009497869018204596614 84.80000507023460443
28.009497869018190385759 463.57499930615438188 28.009497869018190385759 85.00129478090975965
29.009497869018190385759 465.89562243748906667 29.009497869018190385759 84.92179680896401806
30.009497869018190385759 468.13291265939034247 30.009497869018190385759 84.90924595754286486
31.009497869018190385759 470.28366641510638146 31.009497869018190385759 84.94580489976222282
32.009497869018190385759 472.34913589727574390 32.009497869018190385759 85.04168550411210958
33.009497869018218807469 474.31989422316888749 33.009497869018218807469 84.99845934220050481
34.009497869018190385759 476.20597952307554124 34.009497869018190385759 85.06919267813667318
35.009497869018218807469 478.02155767313189472 35.009497869018218807469 85.09380213866587894
36.009497869018190385759 479.77846938075776961 36.009497869018190385759 85.03918352211623244
37.009497869018218807469 481.48796512707457396 37.009497869018218807469 84.97767283015896567
38.009497869018190385759 483.14379206713556414 38.009497869018190385759 85.02558289457552121
39.009497869018190385759 484.74610056671406255 39.009497869018190385759 85.21277340189983818
40.009497869018190385759 486.29560652985969682 40.009497869018190385759 85.43226894463501253
41.009497869018190385759 487.79515509458713041 41.009497869018190385759 85.59374099800940883
42.009497869018190385759 489.24491008461961883 42.009497869018190385759 85.80402076866155880
43.009497869018190385759 490.64879001096846878 43.009497869018190385759 85.92807339686694945
44.009497869018218807469 492.01801609586732411 44.009497869018218807469 85.99696865581688598
46.009497869018218807469 494.65880358476294987 46.009497869018218807469 86.17698415634805542
48.009497869018218807469 497.17738107664564495 48.009497869018218807469 86.32115910512368373
50.009497869018218807469 499.56104844005471932 50.009497869018218807469 86.63514873055437704
52.009497869018190385759 501.81519103571031337 52.009497869018190385759 86.73286894501802635
54.009497869018190385759 503.94213556918043651 54.009497869018190385759 86.70574293853695735
56.009497869018190385759 505.97146721128945046 56.009497869018190385759 86.46009565742878067
58.009497869018190385759 507.91714836068427985 58.009497869018190385759 85.51160602078127226
60.009497869018190385759 509.77788657898543079 60.009497869018190385759 84.86752392952151069
62.009497869018190385759 511.54213989103146787 62.009497869018190385759 84.23901060106106797
64.009497869018190385759 513.20784762475284424 64.009497869018190385759 83.62789320760518308
66.009497869018218807469 514.78309259178922730 66.009497869018218807469 83.04421043667311153
68.009497869018218807469 516.23459385608748562 68.009497869018218807469 82.23103821224920296
70.009497869018218807469 517.60623669986841833 70.009497869018218807469 81.69757913419982742
72.009497869018218807469 518.91678040310705455 72.009497869018218807469 81.29365109179705939
74.009497869018190385759 520.17801937605224794 74.009497869018190385759 80.75707901908036490
76.009497869018190385759 521.38489604152107404 76.009497869018190385759 80.23077294576056318
78.009497869018190385759 522.53555319634199350 78.009497869018190385759 80.10210646504839360
80.009497869018190385759 523.64189980062701579 80.009497869018190385759 79.71572687186393580
82.009497869018190385759 524.73193533764822405 82.009497869018190385759 79.37257333119148939
84.009497869018190385759 525.78587897106353921 84.009497869018190385759 79.31894304025053088
86.009497869018190385759 526.80688711990342199 86.009497869018190385759 79.27103693578962407
88.009497869018218807469 527.79300200593763748 88.009497869018218807469 79.16051610382405102
91.009497869018190385759 529.20944228837265655 91.009497869018190385759 78.84513532038999983
94.009497869018218807469 530.55161388791930221 94.009497869018218807469 78.33954423739309902
97.009497869018190385759 531.82347543183198013 97.009497869018190385759 76.78208555141137026
99.504748934509109403734 532.80211687972712298 99.504748934509109403734 79.50313157677744869
nan nan nan nan

