Time Pressure difference Time.1 Pressure.1 difference.1
(hr) (psi) (hr) (psi)
0.000200000000006639311 0.79151190980191766 0.000200000000006639311 0.63621633732821825
0.000399999999999067768 1.57116801442910958 0.000399999999999067768 1.61340214528338155
0.000600000000005707079 2.34122763935379119 0.000600000000005707079 2.33668678088127013
0.000799999999998135536 3.10274003797017217 0.000799999999998135536 3.05936578650808366
0.001007140329434719206 3.88316080686741216 0.001007140329434719206 3.80397654361625470
0.001267914553963578328 4.85451773072285508 0.001267914553963578328 4.72906685076171929
0.001596209851982166583 6.06094802731169224 0.001596209851982166583 5.86536389795290702
0.002009509145224797066 7.55557306564260500 0.002009509145224797066 7.25462565372697377
0.002529822128138903281 9.40175724181148453 0.002529822128138903281 8.94384787310490204
0.003184857364431081805 11.67425960992652456 0.003184857364431081805 10.98443522128579986
0.004009497869020606231 14.46011029092169231 0.004009497869020606231 13.43047268293603658
0.005047658755842121536 17.85896499103427360 0.005047658755842121536 16.33569685269291583
0.006354625877790454069 21.98258516801890750 0.006354625877790454069 19.74882049350469160
0.008000000000009777068 26.95303746511526199 0.008000000000009777068 23.70695192256154371
0.010071403294347192059 32.89914087307078461 0.010071403294347192059 28.22683522000626510
0.012679145539706837553 39.95062907847417932 0.012679145539706837553 33.29428837690873877
0.015962098519750611558 48.22973028247340466 0.015962098519750611558 38.85291013689180062
0.020095091452091651263 57.84012542860349981 0.020095091452091651263 44.79412469654103290
0.025298221281360611101 68.85394063308140744 0.025298221281360611101 50.95104565542666819
0.031848573644296607199 81.29787840734151416 0.031848573644296607199 57.10281213517862398
0.040094978690177640601 95.14220763952958748 0.040094978690177640601 62.98857233895758867
0.050476587558421215363 110.29333799868278732 0.050476587558421215363 68.33936166659718481
0.063546258777961384112 126.59749382229368564 0.063546258777961384112 72.91841190305015630
0.079999999999998294697 143.85185375934582908 0.079999999999998294697 76.56407043866080642
0.100714032943542974863 161.82798342732218089 0.100714032943542974863 79.22722189640164459
0.126791455396897845276 180.30018808020849974 0.126791455396897845276 80.97803370354094454
0.159620985197506115583 199.07201705294880867 0.159620985197506115583 81.99096153776046947
0.200950914520760193227 217.99765740998361707 0.200950914520760193227 82.50496179121248019
0.252982212813478213320 236.99005196863694778 0.252982212813478213320 82.77029736299625995
0.318485736442795541734 256.01772899225375113 0.318485736442795541734 83.00537899097395211
0.400949786901833249431 275.09297563987888680 0.400949786901833249431 83.37011067870200520
0.504765875584155310207 294.25632077240601348 0.504765875584155310207 83.95450312090248701
0.635462587779443310865 313.55939574186930940 0.635462587779443310865 84.80086939401851964
0.799999999999997157829 333.05949668922841056 0.799999999999997157829 85.90763558737943129
1.007140329435344483500 352.80411024607002446 1.007140329435344483500 87.24974379564849869
1.267914553968893187630 372.83464661473419710 1.267914553968893187630 88.80924077379586379
1.596209851975103788391 393.18475519330240786 1.596209851975103788391 90.56770083698626195
2.009509145207672986544 413.88026938351333683 2.009509145207672986544 92.51694639620880878
2.529822128134711078928 434.94198622659456532 2.529822128134711078928 94.66073496309374491
3.184857364427998049905 456.38583706669191997 3.184857364427998049905 97.00851650276490545
4.009497869018190385759 478.22216904492984213 4.009497869018190385759 99.55446625980833630
5.009497869018204596614 499.70793853399300133 5.009497869018204596614 102.15943306992666351
6.009497869018204596614 517.51975184481943870 6.009497869018204596614 104.38975707755727740
7.009497869018204596614 532.74700247038515499 7.009497869018204596614 106.33382976328719849
8.009497869018204596614 546.04330242258868111 8.009497869018204596614 108.05291984111173065
9.009497869018204596614 557.84317991632133271 9.009497869018204596614 109.58127350528181410
10.009497869018190385759 568.44199365263159507 10.009497869018190385759 110.93449842233641789
11.009497869018190385759 578.05314892287162820 11.009497869018190385759 112.17887994732548407
12.009497869018190385759 586.84076647376821256 12.009497869018190385759 113.25739442246153033
13.009497869018190385759 594.93562368525931561 13.009497869018190385759 114.28507388198120509
14.009497869018190385759 602.41471088864830108 14.009497869018190385759 115.29000615097899640
15.009497869018190385759 609.38260891925256146 15.009497869018190385759 116.12364919355437110
16.009497869018204596614 615.89965855141997508 16.009497869018204596614 116.86924209555529330
17.009497869018204596614 621.99647087535242918 17.009497869018204596614 117.69669008528593679
18.009497869018204596614 627.71850503074040262 18.009497869018204596614 118.29297614599126121
19.009497869018204596614 633.13689319981597237 19.009497869018204596614 118.87102670066991550
20.009497869018204596614 638.26352145364683111 20.009497869018204596614 119.42487495932242325
21.009497869018204596614 643.11336221282306269 21.009497869018204596614 120.09640430033805103
22.009497869018190385759 647.69648259822110958 22.009497869018190385759 120.70352353358369157
23.009497869018190385759 652.07476906993520060 23.009497869018190385759 121.09034170915110451
24.009497869018190385759 656.26938852514695100 24.009497869018190385759 121.48885961095521679
25.009497869018190385759 660.27704061152485338 25.009497869018190385759 122.02758918759958817
26.009497869018190385759 664.10457715221843955 26.009497869018190385759 122.36764338722642265
27.009497869018204596614 667.75179591110043020 27.009497869018204596614 122.78733765825823809
28.009497869018190385759 671.23981799986154329 28.009497869018190385759 123.07879787281051165
29.009497869018190385759 674.59999628957700679 29.009497869018190385759 122.96368768718772913
30.009497869018190385759 677.83951154300859798 30.009497869018190385759 122.94551450865934328
31.009497869018190385759 680.95372512594587988 31.009497869018190385759 122.99845053359234726
32.009497869018190385759 683.94445016800113990 32.009497869018190385759 123.13728217789989117
33.009497869018218807469 686.79803688422646246 33.009497869018218807469 123.07469226019982500
34.009497869018190385759 689.52902012391029984 34.009497869018190385759 123.17711157015264689
35.009497869018218807469 692.15791156290595154 35.009497869018218807469 123.21274517815874106
36.009497869018190385759 694.70185611693432293 36.009497869018190385759 123.13365939853935060
37.009497869018218807469 697.17714407540199772 37.009497869018218807469 123.04459414321659949
38.009497869018190385759 699.57472154517370200 38.009497869018190385759 123.11396618219080779
39.009497869018190385759 701.89480625044564022 39.009497869018190385759 123.38501126066944380
40.009497869018190385759 704.13843479436695816 40.009497869018190385759 123.70283286100996634
41.009497869018190385759 706.30972683379138743 41.009497869018190385759 123.93663854915389777
42.009497869018190385759 708.40891957953965630 42.009497869018190385759 124.24111604512080476
43.009497869018190385759 710.44168689371008441 43.009497869018190385759 124.42073976016935433
44.009497869018218807469 712.42427669989842798 44.009497869018218807469 124.52049760118281085
46.009497869018218807469 716.24804138970205258 46.009497869018218807469 124.78115352955374817
48.009497869018218807469 719.89485042772230372 48.009497869018218807469 124.98991363637817642
50.009497869018218807469 723.34631448333720982 50.009497869018218807469 125.44455924786153389
52.009497869018190385759 726.61023136392452670 52.009497869018190385759 125.58605458102158536
54.009497869018190385759 729.68997005492190056 54.009497869018190385759 125.54677710557389503
56.009497869018190385759 732.62836881272676237 56.009497869018190385759 125.19108873473849997
58.009497869018190385759 735.44564468515363842 58.009497869018190385759 123.81771007533939155
60.009497869018190385759 738.13992626821425347 60.009497869018190385759 122.88510252238408782
62.009497869018190385759 740.69450119968360013 62.009497869018190385759 121.97503797438704964
64.009497869018190385759 743.10638570099968092 64.009497869018190385759 121.09016211055951828
66.009497869018218807469 745.38728339082592811 66.009497869018218807469 120.24501058703799572
68.009497869018218807469 747.48900467849773577 68.009497869018218807469 119.06756664217078878
70.009497869018218807469 749.47509386406295562 70.009497869018218807469 118.29513720789114473
72.009497869018218807469 751.37271370585631303 72.009497869018218807469 117.71026402432153191
74.009497869018190385759 753.19894208297159821 74.009497869018190385759 116.93332708645120022
76.009497869018190385759 754.94645580672749929 76.009497869018190385759 116.17125494408767850
78.009497869018190385759 756.61256571416015504 78.009497869018190385759 115.98495053762663076
80.009497869018190385759 758.21451554841917186 80.009497869018190385759 115.42548687328715573
82.009497869018190385759 759.79284754772584165 82.009497869018190385759 114.92861296824106887
84.009497869018190385759 761.31891977710552055 84.009497869018190385759 114.85095824832656319
86.009497869018190385759 762.79730261705458361 86.009497869018190385759 114.78159194322478243
88.009497869018218807469 764.22516127556559695 88.009497869018218807469 114.62156177929273326
91.009497869018190385759 766.27611553067526984 91.009497869018190385759 114.16490182137918907
94.009497869018218807469 768.21953142142172055 94.009497869018218807469 113.43282423513933566
97.009497869018190385759 770.06114089677021184 97.009497869018190385759 111.17768043643273757
99.504748934509109403734 771.47817828738777735 99.504748934509109403734 115.11765658175919214
nan nan nan nan

