Time Pressure difference Time.1 Pressure.1 difference.1
(hr) (psi) (hr) (psi)
0.000200000000006639311 0.87478555864566110 0.000200000000006639311 0.70315159781795777
0.000399999999999067768 1.73646798261383872 0.000399999999999067768 1.78314549598507055
0.000600000000005707079 2.58754429724413759 0.000600000000005707079 2.58252570261982051
0.000799999999998135536 3.42917414613161720 0.000799999999998135536 3.38123656196362177
0.001007140329434719206 4.29170168342325464 0.001007140329434719206 4.20418657580921540
0.001267914553963578328 5.36525345030932144 0.001267914553963578328 5.22660409235227519
0.001596209851982166583 6.69861026768510914 0.001596209851982166583 6.48244905805003668
0.002009509145224797066 8.35048231525708751 0.002009509145224797066 8.01787272771283277
0.002529822128138903281 10.39090045162706666 0.002529822128138903281 9.88481520142114967
0.003184857364431081805 12.90248900638754392 0.003184857364431081805 12.14008934352524349
0.004009497869020606231 15.98143439444574376 0.004009497869020606231 14.84347032978659975
0.005047658755842121536 19.73787693279933819 0.005047658755842121536 18.05434829240331496
0.006354625877790454069 24.29533631590422615 0.006354625877790454069 21.82656098292549629
0.008000000000009777068 29.78872161509092820 0.008000000000009777068 26.20112082274770415
0.010071403294347192059 36.36040465242510322 0.010071403294347192059 31.19653350877775111
0.012679145539706837553 44.15376817943865007 0.012679145539706837553 36.79712496656267007
0.015962098519750611558 53.30389982260862070 0.015962098519750611558 42.94056005754395500
0.020095091452091651263 63.92538862473783468 0.020095091452091651263 49.50683989898962523
0.025298221281360611101 76.09794897052017859 0.025298221281360611101 56.31152025042467812
0.031848573644296607199 89.85109269811390220 0.031848573644296607199 63.11050382856720375
0.040094978690177640601 105.15196073493842732 0.040094978690177640601 69.61549505378540914
0.050476587558421215363 121.89711626729420857 0.050476587558421215363 75.52923200860377051
0.063546258777961384112 139.91660515151417599 0.063546258777961384112 80.59003648868355185
0.079999999999998294697 158.98626754027699803 0.079999999999998294697 84.61924868272825506
0.100714032943542974863 178.85363585040505541 0.100714032943542974863 87.56258586675222944
0.126791455396897845276 199.26927036781376046 0.126791455396897845276 89.49759766610097245
0.159620985197506115583 220.01605218039446754 0.159620985197506115583 90.61709394954567642
0.200950914520760193227 240.93282761665898306 0.200950914520760193227 91.18517131299628886
0.252982212813478213320 261.92338035283728459 0.252982212813478213320 91.47842239806149678
0.318485736442795541734 282.95292756331377859 0.318485736442795541734 91.73823657231599782
0.400949786901833249431 304.03504911865780969 0.400949786901833249431 92.14134107302376719
0.504765875584155310207 325.21453785366958300 0.504765875584155310207 92.78721647008077866
0.635462587779443310865 346.54845716887848539 0.635462587779443310865 93.72262752818089382
0.799999999999997157829 368.10013123674093549 0.799999999999997157829 94.94583474813497048
1.007140329435344483500 389.92204267820864061 1.007140329435344483500 96.42914392414903091
1.267914553968893187630 412.05995839399264469 1.267914553968893187630 98.15271298020563506
1.596209851975103788391 434.55106797926441686 1.596209851975103788391 100.09617769587751468
2.009509145207672986544 457.42392272490388905 2.009509145207672986544 102.25050013164327822
2.529822128134711078928 480.70150769418415848 2.529822128134711078928 104.61983312066922736
3.184857364427998049905 504.40143034141681255 3.184857364427998049905 107.21462084315996321
4.009497869018190385759 528.53512641319855447 4.009497869018190385759 110.02842573089233724
5.009497869018204596614 552.28137790059020062 5.009497869018204596614 112.90745675749185750
6.009497869018204596614 571.96714240349308511 6.009497869018204596614 115.37242943675860829
7.009497869018204596614 588.79642668862356913 7.009497869018204596614 117.52103476963303308
8.009497869018204596614 603.49160819829853608 8.009497869018204596614 119.42098744939535493
9.009497869018204596614 616.53293113668428305 9.009497869018204596614 121.11013665531666561
10.009497869018190385759 628.24682840150205720 10.009497869018190385759 122.60573211051971043
11.009497869018190385759 638.86915729913209816 11.009497869018190385759 123.98103294178368117
12.009497869018190385759 648.58130544652931349 12.009497869018190385759 125.17301612732467220
13.009497869018190385759 657.52780909381260699 13.009497869018190385759 126.30881602998132962
14.009497869018190385759 665.79375859672484239 14.009497869018190385759 127.41947554811324039
15.009497869018190385759 673.49473756596557905 15.009497869018190385759 128.34082478579290409
16.009497869018204596614 680.69743512818399722 16.009497869018204596614 129.16486027435851724
17.009497869018204596614 687.43568291536348625 17.009497869018204596614 130.07936268800872881
18.009497869018204596614 693.75972274751632085 18.009497869018204596614 130.73838301135074857
19.009497869018204596614 699.74817050521323836 19.009497869018204596614 131.37724930146958968
20.009497869018204596614 705.41416277324924522 20.009497869018204596614 131.98936701233446911
21.009497869018204596614 710.77424719563055078 21.009497869018204596614 132.73154683610280813
22.009497869018190385759 715.83955003824223695 22.009497869018190385759 133.40254007201281183
23.009497869018190385759 720.67846873250130102 23.009497869018190385759 133.83005474313472405
24.009497869018190385759 725.31439710956340150 24.009497869018190385759 134.27050004919115622
25.009497869018190385759 729.74368759252899963 25.009497869018190385759 134.86590846671163035
26.009497869018190385759 733.97391287344146349 26.009497869018190385759 135.24173920192416176
27.009497869018204596614 738.00484943924755044 27.009497869018204596614 135.70558880772082944
28.009497869018190385759 741.85984051859702504 28.009497869018190385759 136.02771306567910869
29.009497869018190385759 745.57353756587622229 29.009497869018190385759 135.90049232927728440
30.009497869018190385759 749.15387681992933722 30.009497869018190385759 135.88040718092454995
31.009497869018190385759 752.59573162357150977 31.009497869018190385759 135.93891251681404242
32.009497869018190385759 755.90110586275955029 32.009497869018190385759 136.09235040703308073
33.009497869018218807469 759.05491368142111241 33.009497869018218807469 136.02317550840834315
34.009497869018190385759 762.07321911611336418 34.009497869018190385759 136.13637018326247130
35.009497869018218807469 764.97869184191995373 35.009497869018218807469 136.17575274377750816
36.009497869018190385759 767.79028056257016033 36.009497869018190385759 136.08834648109399268
37.009497869018218807469 770.52598944166834372 37.009497869018218807469 135.98991081870084940
38.009497869018190385759 773.17581204107216308 38.009497869018190385759 136.06658137427547217
39.009497869018190385759 775.73998899137802709 39.009497869018190385759 136.36614265371903798
40.009497869018190385759 778.21966595502442487 40.009497869018190385759 136.71740173492872827
41.009497869018190385759 780.61939601109656905 41.009497869018190385759 136.97580572984614378
42.009497869018190385759 782.93944132697038185 42.009497869018190385759 137.31231679570120718
43.009497869018190385759 785.18607270231905204 43.009497869018190385759 137.51083842243716049
44.009497869018218807469 787.37724747770027989 44.009497869018218807469 137.62109161964059467
46.009497869018218807469 791.60330407757703597 46.009497869018218807469 137.90917072380889863
48.009497869018218807469 795.63378781647213600 48.009497869018218807469 138.13989413353880309
50.009497869018218807469 799.44837465293824152 50.009497869018218807469 138.64237225206363746
52.009497869018190385759 803.05568278867065146 52.009497869018190385759 138.79875407339989124
54.009497869018190385759 806.45943565445008971 54.009497869018190385759 138.75534428022282896
56.009497869018190385759 809.70697844823246214 56.009497869018190385759 138.36223452870581241
58.009497869018190385759 812.82065521973765954 58.009497869018190385759 136.84436498951572503
60.009497869018190385759 815.79839767768260117 60.009497869018190385759 135.81363935025990486
62.009497869018190385759 818.62173518006693484 62.009497869018190385759 134.80782842794235421
64.009497869018190385759 821.28737002995899275 64.009497869018190385759 133.82985624927465551
66.009497869018218807469 823.80823716423583392 66.009497869018218807469 132.89578774254928817
68.009497869018218807469 826.13107704571473278 68.009497869018218807469 131.59446688264915792
70.009497869018218807469 828.32611936434454947 70.009497869018218807469 130.74077143497137854
72.009497869018218807469 830.42338462699331103 72.009497869018218807469 130.09436471854701267
74.009497869018190385759 832.44174744795077459 74.009497869018190385759 129.23568754033823325
76.009497869018190385759 834.37311417806017744 76.009497869018190385759 128.39343905799691470
78.009497869018190385759 836.21451273200420928 78.009497869018190385759 128.18753387543944200
80.009497869018190385759 837.98500103840922293 80.009497869018190385759 127.56920997141423868
82.009497869018190385759 839.72938671680947209 82.009497869018190385759 127.02006079094142876
84.009497869018190385759 841.41601446198853864 84.009497869018190385759 126.93423614736923355
86.009497869018190385759 843.04993549655716834 86.009497869018190385759 126.85757192891821887
88.009497869018218807469 844.62801678476580491 88.009497869018218807469 126.68070525815581107
91.009497869018190385759 846.89474851879833750 91.009497869018190385759 126.17600086717011720
94.009497869018218807469 849.04262795638373973 94.009497869018218807469 125.36690261821128445
97.009497869018190385759 851.07799009528457646 97.009497869018190385759 122.87449889901577649
99.504748934509109403734 852.64411162804003652 99.504748934509109403734 127.22899336796510283
nan nan nan nan

