Time Pressure difference Time.1 Pressure.1 difference.1
(hr) (psi) (hr) (psi)
0.000200000000006639311 0.51778070766208784 0.000200000000006639311 0.41619152066887610
0.000399999999999067768 1.02780574277237591 0.000399999999999067768 1.05543390337287879
0.000600000000005707079 1.53155308074393814 0.000600000000005707079 1.52858260249316413
0.000799999999998135536 2.02970910817215389 0.000799999999998135536 2.00133511867403824
0.001007140329434719206 2.54023436115909851 0.001007140329434719206 2.48843465561563360
0.001267914553963578328 3.17566368218120099 0.001267914553963578328 3.09359789820662456
0.001596209851982166583 3.96487016786639845 0.001596209851982166583 3.83692554991086032
0.002009509145224797066 4.94260404710787071 0.002009509145224797066 4.74573428181306234
0.002529822128138903281 6.15031619568501231 0.002529822128138903281 5.85076715032279093
0.003184857364431081805 7.63691149482693543 0.003184857364431081805 7.18565137392446029
0.004009497869020606231 9.45932214864460796 0.004009497869020606231 8.78576754675399130
0.005047658755842121536 11.68273959830158759 0.005047658755842121536 10.68626835780328044
0.006354625877790454069 14.38027446407903476 0.006354625877790454069 12.91902007283431786
0.008000000000009777068 17.63177867509623198 0.008000000000009777068 15.50829771600900919
0.010071403294347192059 21.52152132113380745 0.010071403294347192059 18.46505470642076574
0.012679145539706837553 26.13436985550185909 0.012679145539706837553 21.78001364656113026
0.015962098519750611558 31.55028189311801867 0.015962098519750611558 25.41627871455005305
0.020095091452091651263 37.83708205121146051 0.020095091452091651263 29.30282323898726204
0.025298221281360611101 45.04195283080741774 0.025298221281360611101 33.33047569959160938
0.031848573644296607199 53.18236212480257308 0.031848573644296607199 37.35475627176268176
0.040094978690177640601 62.23886083085893972 0.040094978690177640601 41.20502440506808739
0.050476587558421215363 72.15022527413832165 0.050476587558421215363 44.70533242356566461
0.063546258777961384112 82.81586054208379721 0.063546258777961384112 47.70079445324530809
0.079999999999998294697 94.10308766757205490 0.079999999999998294697 50.08566274529060536
0.100714032943542974863 105.86247249203994159 0.100714032943542974863 51.82780765722940686
0.126791455396897845276 117.94637303580306309 0.126791455396897845276 52.97313038106636185
0.159620985197506115583 130.22627782213734804 0.159620985197506115583 53.63575400595163956
0.200950914520760193227 142.60680088903094997 0.200950914520760193227 53.97199583841816661
0.252982212813478213320 155.03099232948332542 0.252982212813478213320 54.14556952496005238
0.318485736442795541734 167.47826438243262714 0.318485736442795541734 54.29935208992878870
0.400949786901833249431 179.95665489775407764 0.400949786901833249431 54.53794740231756322
0.504765875584155310207 192.49267650528227591 0.504765875584155310207 54.92023745825704850
0.635462587779443310865 205.12010471447283066 0.635462587779443310865 55.47390206192045525
0.799999999999997157829 217.87642075087023841 0.799999999999997157829 56.19791161341070307
1.007140329435344483500 230.79268878597082448 1.007140329435344483500 57.07587406632006122
1.267914553968893187630 243.89599799380525269 1.267914553968893187630 58.09604500619145995
1.596209851975103788391 257.20836068895198423 1.596209851975103788391 59.24637096419517235
2.009509145207672986544 270.74667622171494941 2.009509145207672986544 60.52150243418659414
2.529822128134711078928 284.52454932323058756 2.529822128134711078928 61.92389745502382681
3.184857364427998049905 298.55240174779430617 3.184857364427998049905 63.45973787889204232
4.009497869018190385759 312.83700225022494124 4.009497869018190385759 65.12521334495795600
5.009497869018204596614 326.89227645765379293 5.009497869018204596614 66.82929579991036917
6.009497869018204596614 338.54417099848603812 6.009497869018204596614 68.28829942156872335
7.009497869018204596614 348.50533078271030263 7.009497869018204596614 69.56004697015036697
8.009497869018204596614 357.20332700144342652 8.009497869018204596614 70.68461839606058561
9.009497869018204596614 364.92241352859349490 9.009497869018204596614 71.68441641803850928
10.009497869018190385759 371.85580418109645962 10.009497869018190385759 72.56965105127839877
11.009497869018190385759 378.14310158704518017 11.009497869018190385759 73.38368396554209028
12.009497869018190385759 383.89166806825676304 12.009497869018190385759 74.08921218469357939
13.009497869018190385759 389.18705382744047938 13.009497869018190385759 74.76148583112937729
14.009497869018190385759 394.07962337299079536 14.009497869018190385759 75.41887902376544162
15.009497869018190385759 398.63779000134434227 15.009497869018190385759 75.96422051411681764
16.009497869018204596614 402.90102663572059782 16.009497869018204596614 76.45196253750908966
17.009497869018204596614 406.88935803095972688 17.009497869018204596614 76.99325143079121858
18.009497869018204596614 410.63252204094271747 18.009497869018204596614 77.38332189550261830
19.009497869018204596614 414.17705096821293864 19.009497869018204596614 77.76146330002157470
20.009497869018204596614 417.53072028426061024 20.009497869018204596614 78.12377236922341694
21.009497869018204596614 420.70332444755513279 21.009497869018204596614 78.56306447980448127
22.009497869018190385759 423.70144903300291617 22.009497869018190385759 78.96022164488600481
23.009497869018190385759 426.56557809991596741 23.009497869018190385759 79.21326520140301852
24.009497869018190385759 429.30955832686692020 24.009497869018190385759 79.47396232883320977
25.009497869018190385759 431.93123073337250162 25.009497869018190385759 79.82638126022139602
26.009497869018190385759 434.43507755374292856 26.009497869018190385759 80.04883338247726954
27.009497869018204596614 436.82096649184489934 27.009497869018204596614 80.32338338477725870
28.009497869018190385759 439.10271427490948781 28.009497869018190385759 80.51404694179687738
29.009497869018190385759 441.30083090609826968 29.009497869018190385759 80.43874569536863817
30.009497869018190385759 443.42001380105148201 30.009497869018190385759 80.42685740774798830
31.009497869018190385759 445.45722851988961111 31.009497869018190385759 80.46148639072499975
32.009497869018190385759 447.41366115156739625 32.009497869018190385759 80.55230542470950184
33.009497869018218807469 449.28038246176481607 33.009497869018218807469 80.51136118688073395
34.009497869018190385759 451.06690066439131215 34.009497869018190385759 80.57836048547486030
35.009497869018218807469 452.78663381406761346 35.009497869018218807469 80.60167080404549722
36.009497869018190385759 454.45079754316117260 36.009497869018190385759 80.54993552321116113
37.009497869018218807469 456.07004841599223255 37.009497869018218807469 80.49167200202086292
38.009497869018190385759 457.63846367746782562 38.009497869018190385759 80.53705287751648711
39.009497869018190385759 459.15618575549990510 39.009497869018190385759 80.71436153302126115
40.009497869018190385759 460.62389276131511906 40.009497869018190385759 80.92226982991068951
41.009497869018190385759 462.04427963710520544 41.009497869018190385759 81.07521771757150475
42.009497869018190385759 463.41750155828214019 42.009497869018190385759 81.27439674618319998
43.009497869018190385759 464.74727017630198134 43.009497869018190385759 81.39190059311077619
44.009497869018218807469 466.04421434118359002 44.009497869018218807469 81.45715884744042512
46.009497869018218807469 468.54559374243007142 46.009497869018218807469 81.62767126724973821
48.009497869018218807469 470.93121465480163579 48.009497869018218807469 81.76423517046406175
50.009497869018218807469 473.18904739118306679 50.009497869018218807469 82.06164917464275277
52.009497869018190385759 475.32419301723393801 52.009497869018190385759 82.15421070508493528
54.009497869018190385759 477.33885541092809035 54.009497869018190385759 82.12851668989624443
56.009497869018190385759 479.26105793165879732 56.009497869018190385759 81.89583721397477234
58.009497869018190385759 481.10402589820472485 58.009497869018190385759 80.99741867428451769
60.009497869018190385759 482.86653510045681514 60.009497869018190385759 80.38733790005959179
62.009497869018190385759 484.53765286812631530 62.009497869018190385759 79.79200400824485939
64.009497869018190385759 486.11542731273726758 64.009497869018190385759 79.21314771399102028
66.009497869018218807469 487.60751455149869571 66.009497869018218807469 78.66027775902068697
68.009497869018218807469 488.98239056051727403 68.009497869018218807469 77.89003317842005458
70.009497869018218807469 490.28162390274121663 70.009497869018218807469 77.38473559016212278
72.009497869018218807469 491.52298354924766954 72.009497869018218807469 77.00213104924365837
74.009497869018190385759 492.71764127927730215 74.009497869018190385759 76.49388480238681609
76.009497869018190385759 493.86080650690087168 76.009497869018190385759 75.99536260925735576
78.009497869018190385759 494.95072007134643854 78.009497869018190385759 75.87348847669741758
80.009497869018190385759 495.99866225459089719 80.009497869018190385759 75.50750599627534143
82.009497869018190385759 497.03115443747060453 82.009497869018190385759 75.18246765005770271
84.009497869018190385759 498.02946002085650434 84.009497869018190385759 75.13166852078029478
86.009497869018190385759 498.99656879532318499 86.009497869018190385759 75.08629139619287685
88.009497869018218807469 499.93062633443258846 88.009497869018218807469 74.98160499728732020
91.009497869018190385759 501.27229224298338295 91.009497869018190385759 74.68287327481888838
94.009497869018218807469 502.54361013818004267 94.009497869018218807469 74.20397252048697112
97.009497869018190385759 503.74832966997053063 97.009497869018190385759 72.72873261883309226
99.504748934509109403734 504.67530829633284384 99.504748934509109403734 75.30613368056746992
nan nan nan nan

