Time Pressure difference Time.1 Pressure.1 difference.1
(hr) (psi) (hr) (psi)
0.000200000000006639311 0.19210653644150710 0.000200000000006639311 0.15441500687236964
0.000399999999999067768 0.38133557016873176 0.000399999999999067768 0.39158614567815403
0.000600000000005707079 0.56823545830149302 0.000600000000005707079 0.56713335410972499
0.000799999999998135536 0.75306086338234379 0.000799999999998135536 0.74253357110039953
0.001007140329434719206 0.94247548750011134 0.001007140329434719206 0.92325680694019518
0.001267914553963578328 1.17823190756085960 0.001267914553963578328 1.14778393357029218
0.001596209851982166583 1.47104259412877525 0.001596209851982166583 1.42357269606565362
0.002009509145224797066 1.83380054614034038 0.002009509145224797066 1.76075810137331779
0.002529822128138903281 2.28188483056466218 0.002529822128138903281 2.17074641086816911
0.003184857364431081805 2.83344009282591669 0.003184857364431081805 2.66601396516624067
0.004009497869020606231 3.50958926852578568 0.004009497869020606231 3.25968764075426742
0.005047658755842121536 4.33451962803227708 0.005047658755842121536 3.96480975695567661
0.006354625877790454069 5.33535660848792137 0.006354625877790454069 4.79320330727770116
0.008000000000009777068 6.54172680142901619 0.008000000000009777068 5.75387478953837483
0.010071403294347192059 7.98489564940155461 0.010071403294347192059 6.85088813152235332
0.012679145539706837553 9.69635059925466969 0.012679145539706837553 8.08080124147888945
0.015962098519750611558 11.70575745397531620 0.015962098519750611558 9.42992506447478185
0.020095091452091651263 14.03828044256730756 0.020095091452091651263 10.87190734822298133
0.025298221281360611101 16.71142517448746290 0.025298221281360611101 12.36624337261918072
0.031848573644296607199 19.73167257178184641 0.031848573644296607199 13.85932836197564555
0.040094978690177640601 23.09180664584415865 0.040094978690177640601 15.28785141143449700
0.050476587558421215363 26.76911224343029971 0.050476587558421215363 16.58653257116369417
0.063546258777961384112 30.72626672978586271 0.063546258777961384112 17.69790622230279808
0.079999999999998294697 34.91404367284122401 0.079999999999998294697 18.58273792938329905
0.100714032943542974863 39.27700014433965947 0.100714032943542974863 19.22910698110581507
0.126791455396897845276 43.76035814863393369 0.126791455396897845276 19.65404359679691382
0.159620985197506115583 48.31643747222612006 0.159620985197506115583 19.89988962322727772
0.200950914520760193227 52.90984810054810339 0.200950914520760193227 20.02464176807552931
0.252982212813478213320 57.51946052988792246 0.252982212813478213320 20.08904092247722062
0.318485736442795541734 62.13763630749491540 0.318485736442795541734 20.14609719260096554
0.400949786901833249431 66.76735762926226414 0.400949786901833249431 20.23462061264329748
0.504765875584155310207 71.41846118746938998 0.504765875584155310207 20.37645752830237811
0.635462587779443310865 76.10347834151619395 0.635462587779443310865 20.58187767583991246
0.799999999999997157829 80.83631534228146620 0.799999999999997157829 20.85049905402021508
1.007140329435344483500 85.62849759097325375 1.007140329435344483500 21.17623990040219084
1.267914553968893187630 90.49007568878444374 1.267914553968893187630 21.55474281280670468
1.596209851975103788391 95.42921662504110714 1.596209851975103788391 21.98153572397687228
2.009509145207672986544 100.45219038162356640 2.009509145207672986544 22.45463386491318047
2.529822128134711078928 105.56404457374638639 2.529822128134711078928 22.97494921500087628
3.184857364427998049905 110.76864587139502305 3.184857364427998049905 23.54477535952523226
4.009497869018190385759 116.06850561194650595 4.009497869018190385759 24.16269858180764984
5.009497869018204596614 121.28328091502122277 5.009497869018204596614 24.79494573468011609
6.009497869018204596614 125.60635643733637323 6.009497869018204596614 25.33626395736546755
7.009497869018204596614 129.30213705791641132 7.009497869018204596614 25.80810659879783131
8.009497869018204596614 132.52925985881580573 8.009497869018204596614 26.22534408643648973
9.009497869018204596614 135.39318845885716769 9.009497869018204596614 26.59628825701110699
10.009497869018190385759 137.96560887610743862 10.009497869018190385759 26.92472722125456741
11.009497869018190385759 140.29831635315531457 11.009497869018190385759 27.22674898721545489
12.009497869018190385759 142.43114436290417757 12.009497869018190385759 27.48851343795159963
13.009497869018190385759 144.39583366527648423 13.009497869018190385759 27.73793980677252335
14.009497869018190385759 146.21107045526568413 14.009497869018190385759 27.98184524289386133
15.009497869018190385759 147.90223737311026753 15.009497869018190385759 28.18417735635226151
16.009497869018204596614 149.48397962758423319 16.009497869018204596614 28.36513896694206593
17.009497869018204596614 150.96372678537201750 17.009497869018204596614 28.56596748944960851
18.009497869018204596614 152.35251215850260564 18.009497869018204596614 28.71069108543329662
19.009497869018204596614 153.66760012037198635 19.009497869018204596614 28.85098877214176127
20.009497869018204596614 154.91187551947885481 20.009497869018204596614 28.98541235991887888
21.009497869018204596614 156.08897228707061799 21.009497869018204596614 29.14839812706121691
22.009497869018190385759 157.20133379727656120 22.009497869018190385759 29.29575102429687661
23.009497869018190385759 158.26398040968217629 23.009497869018190385759 29.38963501899188557
24.009497869018190385759 159.28204950662419037 24.009497869018190385759 29.48635863474225971
25.009497869018190385759 160.25474006508883917 25.009497869018190385759 29.61711279240698502
26.009497869018190385759 161.18371507965301248 26.009497869018190385759 29.69964678044140882
27.009497869018204596614 162.06892546592334270 27.009497869018204596614 29.80151007747309322
28.009497869018190385759 162.91549749371640132 28.009497869018190385759 29.87224990038004790
29.009497869018190385759 163.73104076611608093 29.009497869018190385759 29.84431169907785630
30.009497869018190385759 164.51729811408438309 30.009497869018190385759 29.83990091720586335
31.009497869018190385759 165.27314370244312158 31.009497869018190385759 29.85274893159064291
32.009497869018190385759 165.99901759285862113 32.009497869018190385759 29.88644452859445266
33.009497869018218807469 166.69160686877580702 33.009497869018218807469 29.87125343398600208
34.009497869018190385759 167.35443925924073483 34.009497869018190385759 29.89611145400579773
35.009497869018218807469 167.99249311891361458 35.009497869018218807469 29.90476002761560892
36.009497869018190385759 168.60992966171426133 36.009497869018190385759 29.88556524985381913
37.009497869018218807469 169.21070267663404252 37.009497869018218807469 29.86394837017653003
38.009497869018190385759 169.79261470835987780 38.009497869018190385759 29.88078554213589300
39.009497869018190385759 170.35571860036856151 39.009497869018190385759 29.94657044139164626
40.009497869018190385759 170.90026594488284672 40.009497869018190385759 30.02370839230762556
41.009497869018190385759 171.42725661695146755 41.009497869018190385759 30.08045498120089434
42.009497869018190385759 171.93674818961744677 42.009497869018190385759 30.15435420678453227
43.009497869018190385759 172.43011775649421224 43.009497869018190385759 30.19795037929110393
44.009497869018218807469 172.91130882403786018 44.009497869018218807469 30.22216243862041551
46.009497869018218807469 173.83936837895893746 46.009497869018218807469 30.28542580456877431
48.009497869018218807469 174.72447932256173431 48.009497869018218807469 30.33609362216262184
50.009497869018218807469 175.56217841105996058 50.009497869018218807469 30.44643990078306217
52.009497869018190385759 176.35435823728585092 52.009497869018190385759 30.48078199726878168
54.009497869018190385759 177.10183648207998885 54.009497869018190385759 30.47124902666532975
56.009497869018190385759 177.81501034725556565 56.009497869018190385759 30.38492049499382830
58.009497869018190385759 178.49878667879252703 58.009497869018190385759 30.05159004953549839
60.009497869018190385759 179.15271127134784024 60.009497869018190385759 29.82523842470363462
62.009497869018190385759 179.77272789533986952 62.009497869018190385759 29.60435817503352496
64.009497869018190385759 180.35811236284678216 64.009497869018190385759 29.38959142891705412
66.009497869018218807469 180.91170523964839845 66.009497869018218807469 29.18446611122901402
68.009497869018218807469 181.42181051051036889 68.009497869018218807469 28.89869065377686752
70.009497869018218807469 181.90385090659026446 70.009497869018218807469 28.71121559316524952
72.009497869018218807469 182.36441905569219557 72.009497869018218807469 28.56926199756970775
74.009497869018190385759 182.80765990138789334 74.009497869018190385759 28.38069292827409384
76.009497869018190385759 183.23179604475780025 76.009497869018190385759 28.19573166872127956
78.009497869018190385759 183.63617480354096756 78.009497869018190385759 28.15051403673646391
80.009497869018190385759 184.02498137789760335 80.009497869018190385759 28.01472754320407077
82.009497869018190385759 184.40805570689593651 82.009497869018190385759 27.89413210583350988
84.009497869018190385759 184.77844615423498453 84.009497869018190385759 27.87528465818758860
86.009497869018190385759 185.13726198934762124 86.009497869018190385759 27.85844887788685043
88.009497869018218807469 185.48381518459041217 88.009497869018218807469 27.81960822351583928
91.009497869018190385759 185.98159887359096842 91.009497869018190385759 27.70877304623057569
94.009497869018218807469 186.45328210540756686 94.009497869018218807469 27.53109171540360833
97.009497869018190385759 186.90025607182028011 97.009497869018190385759 26.98374952259252879
99.504748934509109403734 187.24418285516807714 99.504748934509109403734 27.94001456619780654
nan nan nan nan

