Time Pressure difference Time.1 Pressure.1 difference.1
(hr) (psi) (hr) (psi)
0.000200000000006639311 0.30258840718469149 0.000200000000006639311 0.24322020395776672
0.000399999999999067768 0.60064443884946161 0.000399999999999067768 0.61679019512395938
0.000600000000005707079 0.89503181629462636 0.000600000000005707079 0.89329588394106885
0.000799999999998135536 1.18615166034901365 0.000799999999998135536 1.16957004546715293
0.001007140329434719206 1.48450001679202082 0.001007140329434719206 1.45422853281996423
0.001267914553963578328 1.85584167414092494 0.001267914553963578328 1.80788284815578226
0.001596209851982166583 2.31704992294103196 0.001596209851982166583 2.24227974015491371
0.002009509145224797066 2.88843261988628752 0.002009509145224797066 2.77338293220604104
0.002529822128138903281 3.59421344556751565 0.002529822128138903281 3.41915850982239533
0.003184857364431081805 4.46297216337816138 0.003184857364431081805 4.19925804813738335
0.004009497869020606231 5.52797966330027180 0.004009497869020606231 5.13435778608075566
0.005047658755842121536 6.82733349136414436 0.005047658755842121536 6.24500077597739534
0.006354625877790454069 8.40375912152389404 0.006354625877790454069 7.54980950116273153
0.008000000000009777068 10.30392161426802033 0.008000000000009777068 9.06297016206258910
0.010071403294347192059 12.57706739626768488 0.010071403294347192059 10.79088388098156237
0.012679145539706837553 15.27279257479169061 0.012679145539706837553 12.72812899408906695
0.015962098519750611558 18.43782397257055905 0.015962098519750611558 14.85314377108259620
0.020095091452091651263 22.11179795030988160 0.020095091452091651263 17.12442058711516779
0.025298221281360611101 26.32228772118841320 0.025298221281360611101 19.47816016202248335
0.031848573644296607199 31.07950143280660171 0.031848573644296607199 21.82992922251099444
0.040094978690177640601 36.37207312886183530 0.040094978690177640601 24.08000630041399504
0.050476587558421215363 42.16422400574644058 0.050476587558421215363 26.12556847045955166
0.063546258777961384112 48.39716690914769970 0.063546258777961384112 27.87610121710354605
0.079999999999998294697 54.99336492674990495 0.079999999999998294697 29.26980609477970319
0.100714032943542974863 61.86548949773671069 0.100714032943542974863 30.28790670414520747
0.126791455396897845276 68.92725940149637154 0.126791455396897845276 30.95722746791616942
0.159620985197506115583 76.10357318586689246 0.159620985197506115583 31.34446133787301036
0.200950914520760193227 83.33868778069165728 0.200950914520760193227 31.54095935143227436
0.252982212813478213320 90.59932195051015924 0.252982212813478213320 31.64239492939544718
0.318485736442795541734 97.87344431266366485 0.318485736442795541734 31.73226467675774742
0.400949786901833249431 105.16575214566202590 0.400949786901833249431 31.87169856154545045
0.504765875584155310207 112.49173929528438975 0.504765875584155310207 32.09510692226168516
0.635462587779443310865 119.87114399715211732 0.635462587779443310865 32.41866569542166587
0.799999999999997157829 127.32587008848626908 0.799999999999997157829 32.84177318809192769
1.007140329435344483500 134.87407131282054706 1.007140329435344483500 33.35484997187812439
1.267914553968893187630 142.53157844542440102 1.267914553968893187630 33.95103267081571374
1.596209851975103788391 150.31125537077289778 1.596209851975103788391 34.62327729913953789
2.009509145207672986544 158.22297798307229755 2.009509145207672986544 35.36845763271732324
2.529822128134711078928 166.27469681787522404 2.529822128134711078928 36.18801013693271074
3.184857364427998049905 174.47250229528742693 3.184857364427998049905 37.08554745470283365
4.009497869018190385759 182.82035004113461696 4.009497869018190385759 38.05884283057256567
5.009497869018204596614 191.03418066872441727 5.009497869018204596614 39.05469993402405038
6.009497869018204596614 197.84348846567576174 6.009497869018204596614 39.90733421610783438
7.009497869018204596614 203.66473948607432476 7.009497869018204596614 40.65053700325666597
8.009497869018204596614 208.74780415530213418 8.009497869018204596614 41.30773081425834192
9.009497869018204596614 213.25879898884366526 9.009497869018204596614 41.89200768379002682
10.009497869018190385759 217.31063715678726567 10.009497869018190385759 42.40933429270568666
11.009497869018190385759 220.98490172363946726 11.009497869018190385759 42.88505097986297443
12.009497869018190385759 224.34433468320099792 12.009497869018190385759 43.29735807608685860
13.009497869018190385759 227.43893113801058803 13.009497869018190385759 43.69023136946573516
14.009497869018190385759 230.29812385013948983 14.009497869018190385759 44.07440860146801498
15.009497869018190385759 232.96189320142258339 15.009497869018190385759 44.39310338961922753
16.009497869018204596614 235.45330696705329387 16.009497869018204596614 44.67813734277999060
17.009497869018204596614 237.78406751172326494 17.009497869018204596614 44.99446381385410376
18.009497869018204596614 239.97155348571016020 18.009497869018204596614 45.22241900581123986
19.009497869018204596614 242.04295812951298217 19.009497869018204596614 45.44340291577693591
20.009497869018204596614 244.00282538905040042 20.009497869018204596614 45.65513448965763388
21.009497869018204596614 245.85687909594383882 21.009497869018204596614 45.91185456065007031
22.009497869018190385759 247.60896782661157545 22.009497869018190385759 46.14395118419292885
23.009497869018190385759 249.28275025902732409 23.009497869018190385759 46.29182854922756007
24.009497869018190385759 250.88631832159262558 24.009497869018190385759 46.44417862210476500
25.009497869018190385759 252.41841031711422261 25.009497869018190385759 46.65013044984276291
26.009497869018190385759 253.88164564048352645 26.009497869018190385759 46.78013033657509112
27.009497869018204596614 255.27594697851444039 27.009497869018204596614 46.94057595893830381
28.009497869018190385759 256.60938875619712007 28.009497869018190385759 47.05199877012651655
29.009497869018190385759 257.89395691486953410 29.009497869018190385759 47.00799310541447795
30.009497869018190385759 259.13239660029597644 30.009497869018190385759 47.00104565070622442
31.009497869018190385759 260.32293450127303913 31.009497869018190385759 47.02128265190457768
32.009497869018190385759 261.46626376214209131 32.009497869018190385759 47.07435683259297576
33.009497869018218807469 262.55716618386577466 33.009497869018218807469 47.05042922863889032
34.009497869018190385759 263.60119831820321679 34.009497869018190385759 47.08958327733960658
35.009497869018218807469 264.60620160790256250 35.009497869018218807469 47.10320570873360424
36.009497869018190385759 265.57873041136969050 36.009497869018190385759 47.07297187423326790
37.009497869018218807469 266.52501237049227711 37.009497869018218807469 47.03892296933384642
38.009497869018190385759 267.44158625737372859 38.009497869018190385759 47.06544332173335476
39.009497869018190385759 268.32853530615994941 39.009497869018190385759 47.16906159652675257
40.009497869018190385759 269.18625580159653055 40.009497869018190385759 47.29056214582359985
41.009497869018190385759 270.01632265416816381 41.009497869018190385759 47.37994411202028999
42.009497869018190385759 270.81882654759482421 42.009497869018190385759 47.49634332141597781
43.009497869018190385759 271.59593655207453367 43.009497869018190385759 47.56501197081474430
44.009497869018218807469 272.35386411339868573 44.009497869018218807469 47.60314856211885370
46.009497869018218807469 273.81565748960485962 46.009497869018218807469 47.70279515140232007
48.009497869018218807469 275.20980219476462025 48.009497869018218807469 47.78260240057373665
50.009497869018218807469 276.52926814102573871 50.009497869018218807469 47.95640962913039829
52.009497869018190385759 277.77703636516690722 52.009497869018190385759 48.01050211586970562
54.009497869018190385759 278.95439480224615636 54.009497869018190385759 47.99548666431834931
56.009497869018190385759 280.07772016069867504 56.009497869018190385759 47.85950996421774306
58.009497869018190385759 281.15474124942858225 58.009497869018190385759 47.33447874755162132
60.009497869018190385759 282.18474264628611081 60.009497869018190385759 46.97795065178641494
62.009497869018190385759 283.16133535446238056 62.009497869018190385759 46.63004055895838462
64.009497869018190385759 284.08337870027798999 64.009497869018190385759 46.29175989018265369
66.009497869018218807469 284.95534687961782083 66.009497869018218807469 45.96866550566973331
68.009497869018218807469 285.75881741355067334 68.009497869018218807469 45.51853849757986836
70.009497869018218807469 286.51808275844905438 70.009497869018218807469 45.22324516176671949
72.009497869018218807469 287.24352701046797165 72.009497869018218807469 44.99965301763125325
74.009497869018190385759 287.94167890046935554 74.009497869018190385759 44.70263650075790451
76.009497869018190385759 288.60973883444682997 76.009497869018190385759 44.41130267133351595
78.009497869018190385759 289.24667876780921461 78.009497869018190385759 44.34008004928018210
80.009497869018190385759 289.85909083986445012 80.009497869018190385759 44.12620175260040156
82.009497869018190385759 290.46247401043268610 82.009497869018190385759 43.93625099931715994
84.009497869018190385759 291.04587870645593739 84.009497869018190385759 43.90656424701650451
86.009497869018190385759 291.61105214631152194 86.009497869018190385759 43.88004608662863859
88.009497869018218807469 292.15691061263817119 88.009497869018218807469 43.81886788854211545
91.009497869018190385759 292.94097333308104680 91.009497869018190385759 43.64429059213141926
94.009497869018218807469 293.68392503298099427 94.009497869018218807469 43.36442343155847112
97.009497869018190385759 294.38795698866113071 97.009497869018190385759 42.50230075017793041
99.504748934509109403734 294.92967857444926949 99.504748934509109403734 44.00852079740168676
nan nan nan nan

