Time Pressure difference Time.1 Pressure.1 difference.1
(hr) (psi) (hr) (psi)
0.000200000000006639311 0.50623782564414321 0.000200000000006639311 0.40691336574950626
0.000399999999999067768 1.00489287589528464 0.000399999999999067768 1.03190512208749596
0.000600000000005707079 1.49741017767002882 0.000600000000005707079 1.49450592027197904
0.000799999999998135536 1.98446081595175583 0.000799999999998135536 1.95671936762079501
0.001007140329434719206 2.48360493272561556 0.001007140329434719206 2.43295999768789617
0.001267914553963578328 3.10486863194149265 0.001267914553963578328 3.02463233996634973
0.001596209851982166583 3.87648134246810283 0.001596209851982166583 3.75138899306571361
0.002009509145224797066 4.83241860656724942 0.002009509145224797066 4.63993765769621103
0.002529822128138903281 6.01320723590859441 0.002529822128138903281 5.72033603550667724
0.003184857364431081805 7.46666187551550653 0.003184857364431081805 7.02546169361404171
0.004009497869020606231 9.24844554023533227 0.004009497869020606231 8.58990648679450786
0.005047658755842121536 11.42229635884900496 0.005047658755842121536 10.44803944536817752
0.006354625877790454069 14.05969509704542375 0.006354625877790454069 12.63101644063737616
0.008000000000009777068 17.23871354539663514 0.008000000000009777068 15.16257133380498523
0.010071403294347192059 21.04174218340152436 0.010071403294347192059 18.05341335946233983
0.012679145539706837553 25.55175651477410881 0.012679145539706837553 21.29447194106454688
0.015962098519750611558 30.84693165983194518 0.015962098519750611558 24.84967377505371644
0.020095091452091651263 36.99358022204432217 0.020095091452091651263 28.64957558716270825
0.025298221281360611101 44.03783286324164692 0.025298221281360611101 32.58743961711663673
0.031848573644296607199 51.99676806469550883 0.031848573644296607199 36.52200692812466087
0.040094978690177640601 60.85137030278246328 0.040094978690177640601 40.28644105845829415
0.050476587558421215363 70.54178076165753453 0.050476587558421215363 43.70871673259445345
0.063546258777961384112 80.96964709050868692 0.063546258777961384112 46.63740094632582611
0.079999999999998294697 92.00524813358158838 0.079999999999998294697 48.96910338472680735
0.100714032943542974863 103.50248106705815587 0.100714032943542974863 50.67241067124021470
0.126791455396897845276 115.31699529296668061 0.126791455396897845276 51.79220072288971721
0.159620985197506115583 127.32314424011519804 0.159620985197506115583 52.44005248352596027
0.200950914520760193227 139.42766838513534822 0.200950914520760193227 52.76879847896298514
0.252982212813478213320 151.57488740494071067 0.252982212813478213320 52.93850268841635653
0.318485736442795541734 163.74467250129561080 0.318485736442795541734 53.08885697964375083
0.400949786901833249431 175.94488233633919094 0.400949786901833249431 53.32213328825315557
0.504765875584155310207 188.20143849401802072 0.504765875584155310207 53.69590095441055411
0.635462587779443310865 200.54736352657059228 0.635462587779443310865 54.23722271659102034
0.799999999999997157829 213.01930309081899395 0.799999999999997157829 54.94509192776142470
1.007140329435344483500 225.64762884488229133 1.007140329435344483500 55.80348196930019355
1.267914553968893187630 238.45882606400707004 1.267914553968893187630 56.80091024490693741
1.596209851975103788391 251.47441634238299457 1.596209851975103788391 57.92559199365579303
2.009509145207672986544 264.71092229320544220 2.009509145207672986544 59.17229696590855070
2.529822128134711078928 278.18164535742607768 2.529822128134711078928 60.54342840347871402
3.184857364427998049905 291.89677495723839229 3.184857364427998049905 62.04503034656004701
4.009497869018190385759 305.86292895165303207 4.009497869018190385759 63.67337737866908753
5.009497869018204596614 319.60486902069970938 5.009497869018204596614 65.33947073430725538
6.009497869018204596614 330.99700795074909365 6.009497869018204596614 66.76594879752100553
7.009497869018204596614 340.73610366335049093 7.009497869018204596614 68.00934528610243035
8.009497869018204596614 349.24019550778069743 8.009497869018204596614 69.10884664837770686
9.009497869018204596614 356.78720048814716392 9.009497869018204596614 70.08635617941983753
10.009497869018190385759 363.56602510699559616 10.009497869018190385759 70.95185628261931754
11.009497869018190385759 369.71315983191999521 11.009497869018190385759 71.74774196631025802
12.009497869018190385759 375.33357355718095505 12.009497869018190385759 72.43754184936601348
13.009497869018190385759 380.51090931536373319 13.009497869018190385759 73.09482850368381435
14.009497869018190385759 385.29440883919795624 14.009497869018190385759 73.73756643406365185
15.009497869018190385759 389.75096028793865344 15.009497869018190385759 74.27075063004416222
16.009497869018204596614 393.91915661517901981 16.009497869018204596614 74.74761942361556066
17.009497869018204596614 397.81857616402749045 17.009497869018204596614 75.27684136704746720
18.009497869018204596614 401.47829384257772745 18.009497869018204596614 75.65821599337358805
19.009497869018204596614 404.94380460904898200 19.009497869018204596614 76.02792749397013949
20.009497869018204596614 408.22271059639490431 20.009497869018204596614 76.38215960939996307
21.009497869018204596614 411.32458791528478059 21.009497869018204596614 76.81165858375788957
22.009497869018190385759 414.25587532844554062 22.009497869018190385759 77.19996192668790513
23.009497869018190385759 417.05615438431271969 23.009497869018190385759 77.44736438481122320
24.009497869018190385759 419.73896307754182544 24.009497869018190385759 77.70224979284012079
25.009497869018190385759 422.30219055778781012 25.009497869018190385759 78.04681225123556487
26.009497869018190385759 424.75021913693967690 26.009497869018190385759 78.26430524974689718
27.009497869018204596614 427.08291946814131279 27.009497869018204596614 78.53273471059434030
28.009497869018190385759 429.31380026241146197 28.009497869018190385759 78.71914780615172447
29.009497869018190385759 431.46291429354198499 29.009497869018190385759 78.64552524993048621
30.009497869018190385759 433.53485425771589235 30.009497869018190385759 78.63390198783004337
31.009497869018190385759 435.52665336180291433 31.009497869018190385759 78.66775898711011905
32.009497869018190385759 437.43947125328401171 32.009497869018190385759 78.75655339294846158
33.009497869018218807469 439.26457775720314203 33.009497869018218807469 78.71652192475279719
34.009497869018190385759 441.01126912091763188 34.009497869018190385759 78.78202760841013230
35.009497869018218807469 442.69266427044192369 35.009497869018218807469 78.80481827019735874
36.009497869018190385759 444.31972880812253379 36.009497869018190385759 78.75423632364912407
37.009497869018218807469 445.90288173155926188 37.009497869018218807469 78.69727167076561614
38.009497869018190385759 447.43633232160067337 38.009497869018190385759 78.74164087069286211
39.009497869018190385759 448.92021983101426486 39.009497869018190385759 78.91499678546983887
40.009497869018190385759 450.35520725389727659 40.009497869018190385759 79.11827018402095746
41.009497869018190385759 451.74392945411244682 41.009497869018190385759 79.26780840539633743
42.009497869018190385759 453.08653814774726243 42.009497869018190385759 79.46254713719186213
43.009497869018190385759 454.38666224243536362 43.009497869018190385759 79.57743147160832109
44.009497869018218807469 455.65469363931003954 44.009497869018218807469 79.64123492408984362
46.009497869018218807469 458.10030980549697688 46.009497869018218807469 79.80794611161041985
48.009497869018218807469 460.43274808606395254 48.009497869018218807469 79.94146559660021012
50.009497869018218807469 462.64024697163438304 50.009497869018218807469 80.23224935227811727
52.009497869018190385759 464.72779380984337649 52.009497869018190385759 80.32274740911171307
54.009497869018190385759 466.69754334762711778 54.009497869018190385759 80.29762619043997063
56.009497869018190385759 468.57689421980649058 56.009497869018190385759 80.07013383659317185
58.009497869018190385759 470.37877691321295970 58.009497869018190385759 79.19174373568581871
60.009497869018190385759 472.10199450904536889 60.009497869018190385759 78.59526348827482423
62.009497869018190385759 473.73585805896425427 62.009497869018190385759 78.01320137111838449
64.009497869018190385759 475.27845918793104829 64.009497869018190385759 77.44724951654536937
66.009497869018218807469 476.73728333538247171 66.009497869018218807469 76.90670468795971715
68.009497869018218807469 478.08150924228914391 68.009497869018218807469 76.15363116488840944
70.009497869018218807469 479.35177878389021089 70.009497869018218807469 75.65959817254704944
72.009497869018218807469 480.56546480770390417 72.009497869018218807469 75.28552303222231501
74.009497869018190385759 481.73349004056723288 74.009497869018190385759 74.78860711570941078
76.009497869018190385759 482.85117069305277937 76.009497869018190385759 74.30119847465607563
78.009497869018190385759 483.91678682134835299 78.009497869018190385759 74.18204128135701581
80.009497869018190385759 484.94136723617646112 80.009497869018190385759 73.82421764603989800
82.009497869018190385759 485.95084207739961357 82.009497869018190385759 73.50642537760418804
84.009497869018190385759 486.92689244077376998 84.009497869018190385759 73.45675871299219750
86.009497869018190385759 487.87244146549113566 86.009497869018190385759 73.41239318035418648
88.009497869018218807469 488.78567606583055749 88.009497869018218807469 73.31004055467265346
91.009497869018190385759 490.09743222482774172 91.009497869018190385759 73.01796845659045232
94.009497869018218807469 491.34040863828431611 94.009497869018218807469 72.54974383372453417
97.009497869018190385759 492.51827136522604178 97.009497869018190385759 71.10739144580176685
99.504748934509109403734 493.42458486297510944 99.504748934509109403734 73.62733452208348695
nan nan nan nan

