Time Pressure difference Time.1 Pressure.1 difference.1
(hr) (psi) (hr) (psi)
0.000200000000006639311 0.17066975555103853 0.000200000000006639311 0.13718414773639706
0.000399999999999067768 0.33878310311127674 0.000399999999999067768 0.34788983757672914
0.000600000000005707079 0.50482720973566120 0.000600000000005707079 0.50384808712752382
0.000799999999998135536 0.66902832068731843 0.000799999999998135536 0.65967574771580562
0.001007140329434719206 0.83730654898078571 0.001007140329434719206 0.82023244221725500
0.001267914553963578328 1.04675538568711568 0.001267914553963578328 1.01970503969549564
0.001596209851982166583 1.30689191838908347 0.001596209851982166583 1.26471909049609565
0.002009509145224797066 1.62917044227918684 0.002009509145224797066 1.56427865658487875
0.002529822128138903281 2.02725390526560156 0.002529822128138903281 1.92851719763824492
0.003184857364431081805 2.51726222839040670 0.003184857364431081805 2.36851884458975048
0.004009497869020606231 3.11796128147998974 0.004009497869020606231 2.89594567225808319
0.005047658755842121536 3.85083932619176483 0.005047658755842121536 3.52238463386190981
0.006354625877790454069 4.73999492685407642 0.006354625877790454069 4.25833941891194900
0.008000000000009777068 5.81174870341547756 0.008000000000009777068 5.11181150830233211
0.010071403294347192059 7.09387725075588804 0.010071403294347192059 6.08641134431385034
0.012679145539706837553 8.61435439504599465 0.012679145539706837553 7.17908093127094560
0.015962098519750611558 10.39953559215832612 0.015962098519750611558 8.37765874826729551
0.020095091452091651263 12.47177704554263045 0.020095091452091651263 9.65873313769166053
0.025298221281360611101 14.84663094900817626 0.025298221281360611101 10.98631921945137435
0.031848573644296607199 17.52985503158301483 0.031848573644296607199 12.31279386664789222
0.040094978690177640601 20.51503852227356717 0.040094978690177640601 13.58191091058773026
0.050476587558421215363 23.78200100596597366 0.050476587558421215363 14.73567485936001908
0.063546258777961384112 27.29758460543207832 0.063546258777961384112 15.72303256659519022
0.079999999999998294697 31.01805596685893818 0.079999999999998294697 16.50912768833623545
0.100714032943542974863 34.89415892651634721 0.100714032943542974863 17.08336972141160359
0.126791455396897845276 38.87722805479495491 0.126791455396897845276 17.46088851732601555
0.159620985197506115583 42.92490367704208865 0.159620985197506115583 17.67930108157960234
0.200950914520760193227 47.00574487902771637 0.200950914520760193227 17.79013238623019078
0.252982212813478213320 51.10097995573733698 0.252982212813478213320 17.84734536889607170
0.318485736442795541734 55.20382281395470869 0.318485736442795541734 17.89803484492875540
0.400949786901833249431 59.31692287234888283 0.400949786901833249431 17.97668011509511743
0.504765875584155310207 63.44901916655004470 0.504765875584155310207 18.10268973544460280
0.635462587779443310865 67.61124470684056575 0.635462587779443310865 18.28518746308524712
0.799999999999997157829 71.81595397361486732 0.799999999999997157829 18.52383392352868796
1.007140329435344483500 76.07338627180885737 1.007140329435344483500 18.81322600593670913
1.267914553968893187630 80.39247067630206800 1.267914553968893187630 19.14949254184973171
1.596209851975103788391 84.78046283855583454 1.596209851975103788391 19.52866049297515971
2.009509145207672986544 89.24293308582007000 2.009509145207672986544 19.94896656668252533
2.529822128134711078928 93.78436578010945368 2.529822128134711078928 20.41122097641708777
3.184857364427998049905 98.40819611750545448 3.184857364427998049905 20.91746137090868274
4.009497869018190385759 103.11665520031299081 4.009497869018190385759 21.46643178727117274
5.009497869018204596614 107.74952424639224091 5.009497869018204596614 22.02812775570293624
6.009497869018204596614 111.59019649153918863 6.009497869018204596614 22.50904136984828696
7.009497869018204596614 114.87357240767680366 7.009497869018204596614 22.92823204270880311
8.009497869018204596614 117.74058708487068259 8.009497869018204596614 23.29891084073971541
9.009497869018204596614 120.28493566945677173 9.009497869018204596614 23.62846209957639232
10.009497869018190385759 122.57030488134866175 10.009497869018190385759 23.92025122231628842
11.009497869018190385759 124.64271023649419590 11.009497869018190385759 24.18857098864205923
12.009497869018190385759 126.53754027090627687 12.009497869018190385759 24.42112567234326548
13.009497869018190385759 128.28299385713404490 13.009497869018190385759 24.64271905580219979
14.009497869018190385759 129.89567203536481088 14.009497869018190385759 24.85940757630484654
15.009497869018190385759 131.39812504821384209 15.009497869018190385759 25.03916185736016331
16.009497869018204596614 132.80336387514995522 16.009497869018204596614 25.19993032685410839
17.009497869018204596614 134.11798903249786008 17.009497869018204596614 25.37834879963978096
18.009497869018204596614 135.35180264725340749 18.009497869018204596614 25.50692298147936654
19.009497869018204596614 136.52014259621032011 19.009497869018204596614 25.63156513233195355
20.009497869018204596614 137.62557181344260471 20.009497869018204596614 25.75098866310389667
21.009497869018204596614 138.67131872713997609 21.009497869018204596614 25.89578717726039514
22.009497869018190385759 139.65955406024141894 22.009497869018190385759 26.02669726192898381
23.009497869018190385759 140.60362208070478118 23.009497869018190385759 26.11010493103571051
24.009497869018190385759 141.50808690073478147 24.009497869018190385759 26.19603535361222413
25.009497869018190385759 142.37223688186006143 25.009497869018190385759 26.31219891857616133
26.009497869018190385759 143.19754944844709144 26.009497869018190385759 26.38552310537069445
27.009497869018204596614 143.98398099333104483 27.009497869018204596614 26.47601968256193317
28.009497869018190385759 144.73608575622014882 28.009497869018190385759 26.53886579132476697
29.009497869018190385759 145.46062419994004244 29.009497869018190385759 26.51404515754985525
30.009497869018190385759 146.15914467646121011 30.009497869018190385759 26.51012656592967076
31.009497869018190385759 146.83064698028209705 31.009497869018190385759 26.52154089630585077
32.009497869018190385759 147.47552206747522519 32.009497869018190385759 26.55147646960966057
33.009497869018218807469 148.09082670316132635 33.009497869018218807469 26.53798051860558971
34.009497869018190385759 148.67969496421815734 34.009497869018190385759 26.56006468231416662
35.009497869018218807469 149.24654968075159900 35.009497869018218807469 26.56774817904047836
36.009497869018190385759 149.79508772521396054 36.009497869018190385759 26.55069530781004516
37.009497869018218807469 150.32882169125855398 37.009497869018218807469 26.53149061213107984
38.009497869018190385759 150.84579933317809264 38.009497869018190385759 26.54644895803489391
39.009497869018190385759 151.34606759775235219 39.009497869018190385759 26.60489305308184882
40.009497869018190385759 151.82985000253538033 40.009497869018190385759 26.67342333565527568
41.009497869018190385759 152.29803484853627538 41.009497869018190385759 26.72383768716130703
42.009497869018190385759 152.75067328433823377 42.009497869018190385759 26.78949064722917583
43.009497869018190385759 153.18898873645622416 43.009497869018190385759 26.82822201078651858
44.009497869018218807469 153.61648466341560493 44.009497869018218807469 26.84973229525504479
46.009497869018218807469 154.44098392465448910 46.009497869018218807469 26.90593622981002753
48.009497869018218807469 155.22732712347760753 48.009497869018218807469 26.95095012784404531
50.009497869018218807469 155.97154906046958445 50.009497869018218807469 27.04898308782014382
52.009497869018190385759 156.67533113784620014 52.009497869018190385759 27.07949301903277473
54.009497869018190385759 157.33939979309252521 54.009497869018190385759 27.07102381338937036
56.009497869018190385759 157.97299202524422412 56.009497869018190385759 26.99432850842799425
58.009497869018190385759 158.58046713523626181 58.009497869018190385759 26.69819373499505488
60.009497869018190385759 159.16142160158369734 60.009497869018190385759 26.49710023138906578
62.009497869018190385759 159.71225182118178054 62.009497869018190385759 26.30086756322721087
64.009497869018190385759 160.23231441677805265 64.009497869018190385759 26.11006620508939591
66.009497869018218807469 160.72413298114685176 66.009497869018218807469 25.92783040783006854
68.009497869018218807469 161.17731663380106966 68.009497869018218807469 25.67394405721807615
70.009497869018218807469 161.60556711443857125 70.009497869018218807469 25.50738896045152870
72.009497869018218807469 162.01474139282524334 72.009497869018218807469 25.38127568024432890
74.009497869018190385759 162.40852188664075584 74.009497869018190385759 25.21374865301604018
76.009497869018190385759 162.78532953332558009 76.009497869018190385759 25.04942684731890523
78.009497869018190385759 163.14458448211581754 78.009497869018190385759 25.00925495967574008
80.009497869018190385759 163.49000491512791200 80.009497869018190385759 24.88862060705254109
82.009497869018190385759 163.83033275247836968 82.009497869018190385759 24.78148217127698061
84.009497869018190385759 164.15939207693836011 84.009497869018190385759 24.76473787229541301
86.009497869018190385759 164.47816837680238677 86.009497869018190385759 24.74978076275784389
88.009497869018218807469 164.78605040004384819 88.009497869018218807469 24.71527425865999561
91.009497869018190385759 165.22828741130186359 91.009497869018190385759 24.61680695523488893
94.009497869018218807469 165.64733646274405032 94.009497869018218807469 24.45895272570191992
97.009497869018190385759 166.04443350586606698 97.009497869018190385759 23.97268734410581104
99.504748934509109403734 166.34998219321798274 99.504748934509109403734 24.82224470044182496
nan nan nan nan

