Time Pressure difference Time.1 Pressure.1 difference.1
(hr) (psi) (hr) (psi)
0.000200000000006639311 0.17973916285085215 0.000200000000006639311 0.14447412660161621
0.000399999999999067768 0.35678606994327694 0.000399999999999067768 0.36637673715810121
0.000600000000005707079 0.53165377643658995 0.000600000000005707079 0.53062262315845510
0.000799999999998135536 0.70458055028905997 0.000799999999998135536 0.69473098068621075
0.001007140329434719206 0.88180109989280808 0.001007140329434719206 0.86381967344619126
0.001267914553963578328 1.10238006801831512 0.001267914553963578328 1.07389226402714044
0.001596209851982166583 1.37634028120203000 0.001596209851982166583 1.33192638516013950
0.002009509145224797066 1.71574471698967490 0.002009509145224797066 1.64740457553383379
0.002529822128138903281 2.13498237366135823 0.002529822128138903281 2.03099878785090482
0.003184857364431081805 2.65102978642081499 0.003184857364431081805 2.49438216483365016
0.004009497869020606231 3.28365004523013404 0.004009497869020606231 3.04983650508339155
0.005047658755842121536 4.05547330004736661 0.005047658755842121536 3.70956449363234908
0.006354625877790454069 4.99187871523762627 0.006354625877790454069 4.48462798706669030
0.008000000000009777068 6.12058559103659050 0.008000000000009777068 5.38345366574835005
0.010071403294347192059 7.47084657325982437 0.010071403294347192059 6.40984383120975565
0.012679145539706837553 9.07212201990351019 0.012679145539706837553 7.56057798558969196
0.015962098519750611558 10.95216791831166780 0.015962098519750611558 8.82284834358584646
0.020095091452091651263 13.13452848274537921 0.020095091452091651263 10.17199914983952702
0.025298221281360611101 15.63558235209556813 0.025298221281360611101 11.57013328425313858
0.031848573644296607199 18.46139322166713370 0.031848573644296607199 12.96709692236347955
0.040094978690177640601 21.60520965147651040 0.040094978690177640601 14.30365496863828589
0.050476587558421215363 25.04577883720088138 0.050476587558421215363 15.51873004512311027
0.063546258777961384112 28.74818088881252720 0.063546258777961384112 16.55855603631763984
0.079999999999998294697 32.66635845785144454 0.079999999999998294697 17.38642432877922417
0.100714032943542974863 36.74843790328775128 0.100714032943542974863 17.99118163897453826
0.126791455396897845276 40.94316770988067589 0.126791455396897845276 18.38876182017908789
0.159620985197506115583 45.20593720577379315 0.159620985197506115583 18.61878084919976928
0.200950914520760193227 49.50363470351710760 0.200950914520760193227 18.73550174008783387
0.252982212813478213320 53.81649096787797504 0.252982212813478213320 18.79575502618040161
0.318485736442795541734 58.13735929199094699 0.318485736442795541734 18.84913814586699843
0.400949786901833249431 62.46902988488916009 0.400949786901833249431 18.93196263328858109
0.504765875584155310207 66.82070617540053092 0.504765875584155310207 19.06466841703827697
0.635462587779443310865 71.20411278304948155 0.635462587779443310865 19.25686409155837353
0.799999999999997157829 75.63226070651228383 0.799999999999997157829 19.50819224796741125
1.007140329435344483500 80.11593336837839274 1.007140329435344483500 19.81296265359518216
1.267914553968893187630 84.66453433542922369 1.267914553968893187630 20.16709842571614431
1.596209851975103788391 89.28570482514575701 1.596209851975103788391 20.56641539839896282
2.009509145207672986544 93.98531117250617228 2.009509145207672986544 21.00905657747241762
2.529822128134711078928 98.76807603895585430 2.529822128134711078928 21.49587523120253962
3.184857364427998049905 103.63761716722795825 3.184857364427998049905 22.02901728916953061
4.009497869018190385759 108.59628422061948072 4.009497869018190385759 22.60716004649814437
5.009497869018204596614 113.47534437542758212 5.009497869018204596614 23.19870459296251397
6.009497869018204596614 117.52011031476108371 6.009497869018204596614 23.70517400302863109
7.009497869018204596614 120.97796514431664150 7.009497869018204596614 24.14664050874646861
8.009497869018204596614 123.99733325846283094 8.009497869018204596614 24.53701721391912116
9.009497869018204596614 126.67688877266463976 9.009497869018204596614 24.88408085849107820
10.009497869018190385759 129.08370272528509304 10.009497869018190385759 25.19137568340556044
11.009497869018190385759 131.26623590123540453 11.009497869018190385759 25.47395398803849531
12.009497869018190385759 133.26175738675152616 12.009497869018190385759 25.71886665010064021
13.009497869018190385759 135.09996454519429676 13.009497869018190385759 25.95223552736656814
14.009497869018190385759 136.79834059763052778 14.009497869018190385759 26.18043889678481406
15.009497869018190385759 138.38063410874693204 15.009497869018190385759 26.36974533770297668
16.009497869018204596614 139.86054746271830140 16.009497869018204596614 26.53905705919901337
17.009497869018204596614 141.24503192794460915 17.009497869018204596614 26.72695670686701774
18.009497869018204596614 142.54441051739732416 18.009497869018204596614 26.86236333315218161
19.009497869018204596614 143.77483616412487777 19.009497869018204596614 26.99362897994379296
20.009497869018204596614 144.93900799676563906 20.009497869018204596614 27.11939868867946757
21.009497869018204596614 146.04032600249524876 21.009497869018204596614 27.27189180986843198
22.009497869018190385759 147.08107625667935281 22.009497869018190385759 27.40975846908463254
23.009497869018190385759 148.07531214296446365 23.009497869018190385759 27.49759842978640023
24.009497869018190385759 149.02784031091877637 24.009497869018190385759 27.58809520332108178
25.009497869018190385759 149.93791130553375979 25.009497869018190385759 27.71043171135073990
26.009497869018190385759 150.80708106164959759 26.009497869018190385759 27.78765235251599819
27.009497869018204596614 151.63530365481238960 27.009497869018204596614 27.88295792656280980
28.009497869018190385759 152.42737533746856116 28.009497869018190385759 27.94914368361738610
29.009497869018190385759 153.19041582409144553 29.009497869018190385759 27.92300407896554759
30.009497869018190385759 153.92605574622487552 30.009497869018190385759 27.91887725300805911
31.009497869018190385759 154.63324174735024030 31.009497869018190385759 27.93089814200326515
32.009497869018190385759 155.31238555898357845 32.009497869018190385759 27.96242449456476464
33.009497869018218807469 155.96038754245975611 33.009497869018218807469 27.94821136742037737
34.009497869018190385759 156.58054831980464883 34.009497869018190385759 27.97146908572216262
35.009497869018218807469 157.17752575074320021 35.009497869018218807469 27.97956088420687948
36.009497869018190385759 157.75521315988717674 36.009497869018190385759 27.96160182175164266
37.009497869018218807469 158.31730980045588808 37.009497869018218807469 27.94137658668877222
38.009497869018190385759 158.86175968421653693 38.009497869018190385759 27.95712982053916207
39.009497869018190385759 159.38861225270537147 39.009497869018190385759 28.01867964044368620
40.009497869018190385759 159.89810290122085235 40.009497869018190385759 28.09085162885434883
41.009497869018190385759 160.39116713517347534 41.009497869018190385759 28.14394500387036402
42.009497869018190385759 160.86785882118712721 42.009497869018190385759 28.21308676857951880
43.009497869018190385759 161.32946639877999928 43.009497869018190385759 28.25387632053845977
44.009497869018218807469 161.77967950060195790 44.009497869018218807469 28.27652966360193432
46.009497869018218807469 162.64799273224483045 46.009497869018218807469 28.33572028066949500
48.009497869018218807469 163.47612228462858752 48.009497869018218807469 28.38312622159421394
50.009497869018218807469 164.25989224725782378 50.009497869018218807469 28.48636866253522371
52.009497869018190385759 165.00107337222451065 52.009497869018190385759 28.51849989444031408
54.009497869018190385759 165.70043069997186080 54.009497869018190385759 28.50958063439073698
56.009497869018190385759 166.36769208455669400 56.009497869018190385759 28.42880973351353902
58.009497869018190385759 167.00744848058698722 58.009497869018190385759 28.11693832960832040
60.009497869018190385759 167.61927492340700496 60.009497869018190385759 27.90515869779138569
62.009497869018190385759 168.19937631409482037 62.009497869018190385759 27.69849820668372686
64.009497869018190385759 168.74707508626866570 64.009497869018190385759 27.49755764593955831
66.009497869018218807469 169.26502893666673799 66.009497869018218807469 27.30563782080654534
68.009497869018218807469 169.74229481240885775 68.009497869018218807469 27.03825992499294983
70.009497869018218807469 170.19330256496428433 70.009497869018218807469 26.86285407429194905
72.009497869018218807469 170.62422040403819778 72.009497869018218807469 26.73003912218968026
74.009497869018190385759 171.03892643134145146 74.009497869018190385759 26.55360969254829229
76.009497869018190385759 171.43575767277769728 76.009497869018190385759 26.38055581021991003
78.009497869018190385759 171.81410346425724356 78.009497869018190385759 26.33824918458604358
80.009497869018190385759 172.17787957245352004 80.009497869018190385759 26.21120431080895941
82.009497869018190385759 172.53629246396275221 82.009497869018190385759 26.09837252820474163
84.009497869018190385759 172.88283803271770012 84.009497869018190385759 26.08073843555748894
86.009497869018190385759 173.21855413595613982 86.009497869018190385759 26.06498650377396231
88.009497869018218807469 173.54279703965971748 88.009497869018218807469 26.02864632071439033
91.009497869018190385759 174.00853456842418154 91.009497869018190385759 25.92494645527152386
94.009497869018218807469 174.44985192694784359 94.009497869018218807469 25.75870383672955555
97.009497869018190385759 174.86805074530823845 97.009497869018190385759 25.24659826577326882
99.504748934509109403734 175.18983631942762713 99.504748934509109403734 26.14130118210781362
nan nan nan nan

