Time Pressure difference Time.1 Pressure.1 difference.1
(hr) (psi) (hr) (psi)
0.000200000000006639311 0.40812332849161387 0.000200000000006639311 0.32804904893486253
0.000399999999999067768 0.81013350744000956 0.000399999999999067768 0.83191048116174349
0.000600000000005707079 1.20719550154179833 0.000600000000005707079 1.20485412139190484
0.000799999999998135536 1.59985033207836991 0.000799999999998135536 1.57748548366823083
0.001007140329434719206 2.00225479104100934 0.001007140329434719206 1.96142540530213161
0.001267914553963578328 2.50311070490397203 0.001267914553963578328 2.43842509492401138
0.001596209851982166583 3.12517632658259092 0.001596209851982166583 3.02432825988196807
0.002009509145224797066 3.89584236197196843 0.002009509145224797066 3.74066635270297088
0.002529822128138903281 4.84778107780904666 0.002529822128138903281 4.61167155956971531
0.003184857364431081805 6.01954011136836442 0.003184857364431081805 5.66384941097549000
0.004009497869020606231 7.45599436875649779 0.004009497869020606231 6.92508747713889417
0.005047658755842121536 9.20852882350204638 0.005047658755842121536 8.42309368966978411
0.006354625877790454069 11.33477047725974707 0.006354625877790454069 10.18298556696335666
0.008000000000009777068 13.89765994295005669 0.008000000000009777068 12.22389708507079398
0.010071403294347192059 16.96361951267712342 0.010071403294347192059 14.55446191031573022
0.012679145539706837553 20.59954311858824738 0.012679145539706837553 17.16736744434356510
0.015962098519750611558 24.86845467690034894 0.015962098519750611558 20.03353178933483392
0.020095091452091651263 29.82381467412368181 0.020095091452091651263 23.09697054665397076
0.025298221281360611101 35.50281313893259494 0.025298221281360611101 26.27163291607937268
0.031848573644296607199 41.91921855378546979 0.031848573644296607199 29.44363750720147976
0.040094978690177640601 49.05770081413244554 0.040094978690177640601 32.47848261227500899
0.050476587558421215363 56.87000240557081554 0.050476587558421215363 35.23748335933917986
0.063546258777961384112 65.27683275212018543 0.063546258777961384112 37.59855613751023640
0.079999999999998294697 74.17361209466267269 0.079999999999998294697 39.47834881993448164
0.100714032943542974863 83.44255395471300574 0.100714032943542974863 40.85153629033209199
0.126791455396897845276 92.96728447885750768 0.126791455396897845276 41.75429862838829109
0.159620985197506115583 102.64650879292673835 0.159620985197506115583 42.27658954290774318
0.200950914520760193227 112.40504210202280433 0.200950914520760193227 42.54162092359393910
0.252982212813478213320 122.19799554632842842 0.252982212813478213320 42.67843457779494543
0.318485736442795541734 132.00914151163081556 0.318485736442795541734 42.79964854222094317
0.400949786901833249431 141.84481556431254035 0.400949786901833249431 42.98771331870572254
0.504765875584155310207 151.72591539827183738 0.504765875584155310207 43.28904067171534820
0.635462587779443310865 161.67906342940136710 0.635462587779443310865 43.72544828129080940
0.799999999999997157829 171.73380298038338765 0.799999999999997157829 44.29612459974251237
1.007140329435344483500 181.91461934562985903 1.007140329435344483500 44.98814914463125803
1.267914553968893187630 192.24286466072231860 1.267914553968893187630 45.79226477398849227
1.596209851975103788391 202.73588939654655405 1.596209851975103788391 46.69897074407104043
2.009509145207672986544 213.40701390087406253 2.009509145207672986544 47.70405048554516725
2.529822128134711078928 224.26696164808782896 2.529822128134711078928 48.80944146534520911
3.184857364427998049905 235.32394723751303900 3.184857364427998049905 50.02001632173815437
4.009497869018190385759 246.58330591379194630 4.009497869018190385759 51.33277166521367008
5.009497869018204596614 257.66190580659014131 5.009497869018204596614 52.67595767668093742
6.009497869018204596614 266.84612204498506571 6.009497869018204596614 53.82596849311546805
7.009497869018204596614 274.69767314879231890 7.009497869018204596614 54.82838097169496194
8.009497869018204596614 281.55357781164730113 8.009497869018204596614 55.71478679307323745
9.009497869018204596614 287.63788964435315165 9.009497869018204596614 56.50284415116093584
10.009497869018190385759 293.10290297713811469 10.009497869018190385759 57.20060074901721237
11.009497869018190385759 298.05865491335566730 11.009497869018190385759 57.84223497283970516
12.009497869018190385759 302.58977021303678612 12.009497869018190385759 58.39834399908172458
13.009497869018190385759 306.76368096271181685 13.009497869018190385759 58.92824122039656487
14.009497869018190385759 310.62008530195925005 14.009497869018190385759 59.44640942159854546
15.009497869018190385759 314.21290772398958779 15.009497869018190385759 59.87625661542647748
16.009497869018204596614 317.57326144057594774 16.009497869018204596614 60.26070295552069922
17.009497869018204596614 320.71693029510356610 17.009497869018204596614 60.68735582522555916
18.009497869018204596614 323.66735415647553964 18.009497869018204596614 60.99481582527674561
19.009497869018204596614 326.46121055615515161 19.009497869018204596614 61.29287314253292607
20.009497869018204596614 329.10462824953668814 20.009497869018204596614 61.57845115090061938
21.009497869018204596614 331.60532739098692900 21.009497869018204596614 61.92470846736180334
22.009497869018190385759 333.96849883970770634 22.009497869018190385759 62.23775432200409341
23.009497869018190385759 336.22605280168539821 23.009497869018190385759 62.43720744378104826
24.009497869018190385759 338.38890345827888950 24.009497869018190385759 62.64269323689878632
25.009497869018190385759 340.45534906531753450 25.009497869018190385759 62.92047567485603565
26.009497869018190385759 342.42892259411263467 26.009497869018190385759 63.09581612153861130
27.009497869018204596614 344.30951976666119663 27.009497869018204596614 63.31222098003940602
28.009497869018190385759 346.10803115617864023 28.009497869018190385759 63.46250515316791763
29.009497869018190385759 347.84062308681313880 29.009497869018190385759 63.40315146370617327
30.009497869018190385759 349.51099813936383498 30.009497869018190385759 63.39378091852747588
31.009497869018190385759 351.11676451806590649 31.009497869018190385759 63.42107605638355494
32.009497869018190385759 352.65885711787558421 32.009497869018190385759 63.49266112297961939
33.009497869018218807469 354.13023776842925372 33.009497869018218807469 63.46038819666553366
34.009497869018190385759 355.53840100139126434 34.009497869018190385759 63.51319815335995855
35.009497869018218807469 356.89392314962339015 35.009497869018218807469 63.53157173248810352
36.009497869018190385759 358.20564456029427447 36.009497869018190385759 63.49079312737185177
37.009497869018218807469 359.48196491387921014 37.009497869018218807469 63.44486885509605401
38.009497869018190385759 360.71821579673019187 38.009497869018190385759 63.48063881269213482
39.009497869018190385759 361.91450947288603857 39.009497869018190385759 63.62039643128268551
40.009497869018190385759 363.07138044084553030 40.009497869018190385759 63.78427319395826345
41.009497869018190385759 364.19095289867368592 41.009497869018190385759 63.90482925190747920
42.009497869018190385759 365.27334915820017613 42.009497869018190385759 64.06182546076541939
43.009497869018190385759 366.32149480456922674 43.009497869018190385759 64.15444393883731777
44.009497869018218807469 367.34376767338511627 44.009497869018218807469 64.20588157560989373
46.009497869018218807469 369.31539634156513330 46.009497869018218807469 64.34028228867614985
48.009497869018218807469 371.19578225179424180 48.009497869018218807469 64.44792421875750676
50.009497869018218807469 372.97544340547074171 50.009497869018218807469 64.68235086217860896
52.009497869018190385759 374.65840054702357520 52.009497869018190385759 64.75530939333924607
54.009497869018190385759 376.24639080956910675 54.009497869018190385759 64.73505694506154384
56.009497869018190385759 377.76150266906228126 56.009497869018190385759 64.55165512884954637
58.009497869018190385759 379.21416054078241586 58.009497869018190385759 63.84350675759687022
60.009497869018190385759 380.60339948204796201 60.009497869018190385759 63.36263098810428573
62.009497869018190385759 381.92060218108684921 62.009497869018190385759 62.89337895554332647
64.009497869018190385759 383.16423012707792850 64.009497869018190385759 62.43711483825725139
66.009497869018218807469 384.34031799839465293 66.009497869018218807469 62.00133358394145944
68.009497869018218807469 385.42401803735037902 68.009497869018218807469 61.39421404986930497
70.009497869018218807469 386.44809527365742952 70.009497869018218807469 60.99593012281887638
72.009497869018218807469 387.42655550458215430 72.009497869018218807469 60.69435488754078989
74.009497869018190385759 388.36820451153221256 74.009497869018190385759 60.29374677895139456
76.009497869018190385759 389.26926627534379577 76.009497869018190385759 59.90080333054520167
78.009497869018190385759 390.12835419636388679 78.009497869018190385759 59.80474012096372860
80.009497869018190385759 390.95435957965366924 80.009497869018190385759 59.51626666903868568
82.009497869018190385759 391.76818701679610513 82.009497869018190385759 59.26006606174929914
84.009497869018190385759 392.55506801006998785 84.009497869018190385759 59.22002534679338481
86.009497869018190385759 393.31735916191877322 86.009497869018190385759 59.18425834572528288
88.009497869018218807469 394.05359878271355001 88.009497869018218807469 59.10174279244781559
91.009497869018190385759 395.11112207050445022 91.009497869018190385759 58.86627750164864636
94.009497869018218807469 396.11319588917052670 94.009497869018218807469 58.48879999624371351
97.009497869018190385759 397.06277577489714758 97.009497869018190385759 57.32599147503562875
99.504748934509109403734 397.79343567943431026 99.504748934509109403734 59.35754167496958189
nan nan nan nan

