Time Pressure difference Time.1 Pressure.1 difference.1
(hr) (psi) (hr) (psi)
0.000200000000006639311 0.88138149122734377 0.000200000000006639311 0.70845340062902640
0.000399999999999067768 1.74956104940074808 0.000399999999999067768 1.79659051386243207
0.000600000000005707079 2.60705452757208622 0.000600000000005707079 2.60199809246049751
0.000799999999998135536 3.45503031311470199 0.000799999999998135536 3.40673127685118926
0.001007140329434719206 4.32406135681381532 0.001007140329434719206 4.23588638033935094
0.001267914553963578328 5.40570776473201242 0.001267914553963578328 5.26601298277528951
0.001596209851982166583 6.74911816791270702 0.001596209851982166583 6.53132709053297766
0.002009509145224797066 8.41344542413744279 0.002009509145224797066 8.07832794149389066
0.002529822128138903281 10.46924842864216210 0.002529822128138903281 9.95934726703035622
0.003184857364431081805 12.99977450313693161 0.003184857364431081805 12.23162630370262427
0.004009497869020606231 16.10193531353676022 0.004009497869020606231 14.95539093547773213
0.005047658755842121536 19.88670164105795735 0.005047658755842121536 18.19047909950908704
0.006354625877790454069 24.47852452563772019 0.006354625877790454069 21.99113448703803542
0.008000000000009777068 30.01333026063355547 0.008000000000009777068 26.39867875543571785
0.010071403294347192059 36.63456415970069457 0.010071403294347192059 31.43175713561114293
0.012679145539706837553 44.48669008842593087 0.012679145539706837553 37.07457736970358297
0.015962098519750611558 53.70581424162923412 0.015962098519750611558 43.26433430868472385
0.020095091452091651263 64.40738966997619741 0.020095091452091651263 49.88012427146080086
0.025298221281360611101 76.67173180912918440 0.025298221281360611101 56.73611229755323393
0.031848573644296607199 90.52857501817507568 0.031848573644296607199 63.58636059636037174
0.040094978690177640601 105.94481246526784446 0.040094978690177640601 70.14039982327672362
0.050476587558421215363 122.81622741728321557 0.050476587558421215363 76.09872668915873817
0.063546258777961384112 140.97158426669997766 0.063546258777961384112 81.19768992120897622
0.079999999999998294697 160.18503298827153003 0.079999999999998294697 85.25728260305042738
0.100714032943542974863 180.20220237896606363 0.100714032943542974863 88.22281271588890661
0.126791455396897845276 200.77177193514884834 0.126791455396897845276 90.17241461363047961
0.159620985197506115583 221.67498565583574077 0.159620985197506115583 91.30035196236035233
0.200950914520760193227 242.74947476174216376 0.200950914520760193227 91.87271266125640068
0.252982212813478213320 263.89829745257594595 0.252982212813478213320 92.16817487608646786
0.318485736442795541734 285.08640863824922462 0.318485736442795541734 92.42994806390744600
0.400949786901833249431 306.32749058232343486 0.400949786901833249431 92.83609199534629397
0.504765875584155310207 327.66667386010630025 0.504765875584155310207 93.48683732942163260
0.635462587779443310865 349.16145213339405018 0.635462587779443310865 94.42930143979771174
0.799999999999997157829 370.87562704248449563 0.799999999999997157829 95.66173171136311737
1.007140329435344483500 392.86207693025926346 1.007140329435344483500 97.15622512244608799
1.267914553968893187630 415.16691378244877342 1.267914553968893187630 98.89278998665393772
1.596209851975103788391 437.82760760587524373 1.596209851975103788391 100.85090853618574158
2.009509145207672986544 460.87292496976647271 2.009509145207672986544 103.02147468494501936
2.529822128134711078928 484.32602424607244984 2.529822128134711078928 105.40867257869501827
3.184857364427998049905 508.20464565030590620 3.184857364427998049905 108.02302514734967076
4.009497869018190385759 532.52031115523948301 4.009497869018190385759 110.85804628305740493
5.009497869018204596614 556.44561072170677107 5.009497869018204596614 113.75878536640792049
6.009497869018204596614 576.27980700219995924 6.009497869018204596614 116.24234407907158584
7.009497869018204596614 593.23598504254346153 7.009497869018204596614 118.40715001766042747
8.009497869018204596614 608.04196905182016053 8.009497869018204596614 120.32142844807128768
9.009497869018204596614 621.18162430265363128 9.009497869018204596614 122.02331393452736563
10.009497869018190385759 632.98384501527402790 10.009497869018190385759 123.53018626403917324
11.009497869018190385759 643.68626687348933046 11.009497869018190385759 124.91585694134474238
12.009497869018190385759 653.47164516714406091 12.009497869018190385759 126.11682774751183445
13.009497869018190385759 662.48560595785647820 13.009497869018190385759 127.26119164566448205
14.009497869018190385759 670.81388118746360760 14.009497869018190385759 128.38022559937141409
15.009497869018190385759 678.57292597362607012 15.009497869018190385759 129.30852186240588253
16.009497869018204596614 685.82993228277916842 16.009497869018204596614 130.13877062515479111
17.009497869018204596614 692.61898683932474796 17.009497869018204596614 131.06016843871944388
18.009497869018204596614 698.99071028943899364 18.009497869018204596614 131.72415781256734135
19.009497869018204596614 705.02431128187845388 19.009497869018204596614 132.36784119064182619
20.009497869018204596614 710.73302545202955116 20.009497869018204596614 132.98457430366215704
21.009497869018204596614 716.13352521407080076 21.009497869018204596614 133.73235020527226879
22.009497869018190385759 721.23702072656067230 22.009497869018190385759 134.40840276812602383
23.009497869018190385759 726.11242514141747506 23.009497869018190385759 134.83914092404432949
24.009497869018190385759 730.78330868060629655 24.009497869018190385759 135.28290721261578256
25.009497869018190385759 735.24599626429176169 25.009497869018190385759 135.88280504327497056
26.009497869018190385759 739.50811768304333782 26.009497869018190385759 136.26146956348441108
27.009497869018204596614 743.56944773850671027 27.009497869018204596614 136.72881662153963589
28.009497869018190385759 747.45350566859588071 28.009497869018190385759 137.05336971461920825
29.009497869018190385759 751.19520420162268692 29.009497869018190385759 136.92518972667051003
30.009497869018190385759 754.80253941612102153 30.009497869018190385759 136.90495313516336751
31.009497869018190385759 758.27034599962109951 31.009497869018190385759 136.96389960459396207
32.009497869018190385759 761.60064294749292912 32.009497869018190385759 137.11849442518226283
33.009497869018218807469 764.77823065545635473 33.009497869018218807469 137.04879794391001724
34.009497869018190385759 767.81929428381261005 34.009497869018190385759 137.16284611301372820
35.009497869018218807469 770.74667443827752322 35.009497869018218807469 137.20252562026217902
36.009497869018190385759 773.57946269687795393 36.009497869018190385759 137.11446030941516483
37.009497869018218807469 776.33579897563004124 37.009497869018218807469 137.01528243656099448
38.009497869018190385759 779.00560138728201309 38.009497869018190385759 137.09253109246040481
39.009497869018190385759 781.58911237679831174 39.009497869018190385759 137.39435108089128335
40.009497869018190385759 784.08748624497752644 40.009497869018190385759 137.74825867543714253
41.009497869018190385759 786.50531040137809669 41.009497869018190385759 138.00861105108904781
42.009497869018190385759 788.84284899013323411 42.009497869018190385759 138.34765942941058370
43.009497869018190385759 791.10642009310004141 43.009497869018190385759 138.54767792043858776
44.009497869018218807469 793.31411645019943535 44.009497869018218807469 138.65876243298379222
46.009497869018218807469 797.57203775582445360 46.009497869018218807469 138.94901366988850100
48.009497869018218807469 801.63291157003652643 48.009497869018218807469 139.18147674717528162
50.009497869018218807469 805.47626060696609329 50.009497869018218807469 139.68774357912914752
52.009497869018190385759 809.11076805003676782 52.009497869018190385759 139.84530452824171221
54.009497869018190385759 812.54018540490778832 54.009497869018190385759 139.80156742276926707
56.009497869018190385759 815.81221485500509516 56.009497869018190385759 139.40549360149529434
58.009497869018190385759 818.94936892544728835 58.009497869018190385759 137.87617924014355708
60.009497869018190385759 821.94956372991771332 60.009497869018190385759 136.83768187127978422
62.009497869018190385759 824.79418935673095348 62.009497869018190385759 135.82428707772891130
64.009497869018190385759 827.47992324413405640 64.009497869018190385759 134.83894093352932941
66.009497869018218807469 830.01979785915943921 66.009497869018218807469 133.89782949744125062
68.009497869018218807469 832.36015208470212201 68.009497869018218807469 132.58669660466725304
70.009497869018218807469 834.57174514654514041 70.009497869018218807469 131.72656424503713879
72.009497869018218807469 836.68482390787539771 72.009497869018218807469 131.07528358541637203
74.009497869018190385759 838.71840529864232394 74.009497869018190385759 130.21013193272534636
76.009497869018190385759 840.66433464311626267 76.009497869018190385759 129.36153284919762996
78.009497869018190385759 842.51961744628886208 78.009497869018190385759 129.15407512991964722
80.009497869018190385759 844.30345533464605978 80.009497869018190385759 128.53108902869161057
82.009497869018190385759 846.06099377970724618 82.009497869018190385759 127.97779923234344324
84.009497869018190385759 847.76033879346425692 84.009497869018190385759 127.89132746610530944
86.009497869018190385759 849.40657968503262509 86.009497869018190385759 127.81408519511177246
88.009497869018218807469 850.99655979539556938 88.009497869018218807469 127.63588493964992665
91.009497869018190385759 853.28038281488738903 91.009497869018190385759 127.12737504901494390
94.009497869018218807469 855.44445738489559972 94.009497869018218807469 126.31217615350409744
97.009497869018190385759 857.49516626942443054 97.009497869018190385759 123.80097956931936665
99.504748934509109403734 859.07309644710153407 99.504748934509109403734 128.18830717281309717
nan nan nan nan

