Time Pressure difference Time.1 Pressure.1 difference.1
(hr) (psi) (hr) (psi)
0.000200000000006639311 0.28115162629422286 0.000200000000006639311 0.22598934482179420
0.000399999999999067768 0.55809197179200665 0.000399999999999067768 0.57309388702253439
0.000600000000005707079 0.83162356772879453 0.000600000000005707079 0.83001061695886780
0.000799999999998135536 1.10211911765398818 0.000799999999998135536 1.08671222208255891
0.001007140329434719206 1.37933107827269508 0.001007140329434719206 1.35120416809702393
0.001267914553963578328 1.72436515226718079 0.001267914553963578328 1.67980395428098572
0.001596209851982166583 2.15289924720134040 0.001596209851982166583 2.08342613458535597
0.002009509145224797066 2.68380251602513376 0.002009509145224797066 2.57690348741760245
0.002529822128138903281 3.33958252026845415 0.002529822128138903281 3.17692929659247092
0.003184857364431081805 4.14679429894265006 0.003184857364431081805 3.90176292756089316
0.004009497869020606231 5.13635167625447586 0.004009497869020606231 4.77061581758457187
0.005047658755842121536 6.34365318952363300 0.005047658755842121536 5.80257565288362898
0.006354625877790454069 7.80839743989004909 0.006354625877790454069 7.01494561279697937
0.008000000000009777068 9.57394351625448259 0.008000000000009777068 8.42090688082654815
0.010071403294347192059 11.68604899762202010 0.010071403294347192059 10.02640709377305761
0.012679145539706837553 14.19079637058301380 0.012679145539706837553 11.82640868388112310
0.015962098519750611558 17.13160211075357253 0.015962098519750611558 13.80087745487510986
0.020095091452091651263 20.54529455328520271 0.020095091452091651263 15.91124637658384877
0.025298221281360611101 24.45749349570912301 0.025298221281360611101 18.09823600885468053
0.031848573644296607199 28.87768389260776658 0.031848573644296607199 20.28339472718324288
0.040094978690177640601 33.79530500529124026 0.040094978690177640601 22.37406579956722652
0.050476587558421215363 39.17711276828211453 0.050476587558421215363 24.27471075865587835
0.063546258777961384112 44.96848478479390820 0.063546258777961384112 25.90122756139593818
0.079999999999998294697 51.09737722076762623 0.079999999999998294697 27.19619585373263959
0.100714032943542974863 57.48264827991340553 0.100714032943542974863 28.14216944445099600
0.126791455396897845276 64.04412930765738565 0.126791455396897845276 28.76407238844527114
0.159620985197506115583 70.71203939068286104 0.159620985197506115583 29.12387279622533143
0.200950914520760193227 77.43458455917127026 0.200950914520760193227 29.30644996958693582
0.252982212813478213320 84.18084137635958086 0.252982212813478213320 29.40069937581429826
0.318485736442795541734 90.93963081912346524 0.318485736442795541734 29.48420232908553729
0.400949786901833249431 97.71531738874864459 0.400949786901833249431 29.61375806399727395
0.504765875584155310207 104.52229727436505868 0.504765875584155310207 29.82133912940390985
0.635462587779443310865 111.37891036247648913 0.635462587779443310865 30.12197548266700053
0.799999999999997157829 118.30550871981967020 0.799999999999997157829 30.51510805760040057
1.007140329435344483500 125.31895999365612226 1.007140329435344483500 30.99183607741264623
1.267914553968893187630 132.43397343294202528 1.267914553968893187630 31.54578239985873722
1.596209851975103788391 139.66250158428763939 1.596209851975103788391 32.17040206813782532
2.009509145207672986544 147.01372068726880116 2.009509145207672986544 32.86279033448666809
2.529822128134711078928 154.49501802423827712 2.529822128134711078928 33.62428189834892578
3.184857364427998049905 162.11205254139787257 3.184857364427998049905 34.45823346608628412
4.009497869018190385759 169.86849962950111603 4.009497869018190385759 35.36257603603608857
5.009497869018204596614 177.50042400009544963 5.009497869018204596614 36.28788195504687053
6.009497869018204596614 183.82732851987856293 6.009497869018204596614 37.08011162859065735
7.009497869018204596614 189.23617483583473131 7.009497869018204596614 37.77066244716763777
8.009497869018204596614 193.95913138135702525 8.009497869018204596614 38.38129756856156405
9.009497869018204596614 198.15054619944331193 9.009497869018204596614 38.92418152635531214
10.009497869018190385759 201.91533316202847459 10.009497869018190385759 39.40485829376741123
11.009497869018190385759 205.32929560697837701 11.009497869018190385759 39.84687298128957167
12.009497869018190385759 208.45073059120309722 12.009497869018190385759 40.22997031047852090
13.009497869018190385759 211.32609132986814870 13.009497869018190385759 40.59501061849540804
14.009497869018190385759 213.98272543023861658 14.009497869018190385759 40.95197093487900020
15.009497869018190385759 216.45778087652615795 15.009497869018190385759 41.24808789062712577
16.009497869018204596614 218.77269121461901591 16.009497869018204596614 41.51292870269202950
17.009497869018204596614 220.93832975884913594 17.009497869018204596614 41.80684512404427977
18.009497869018204596614 222.97084397446093362 18.009497869018204596614 42.01865090185731333
19.009497869018204596614 224.89550060535131593 19.009497869018204596614 42.22397927596712464
20.009497869018204596614 226.71652168301415031 20.009497869018204596614 42.42071079284265522
21.009497869018204596614 228.43922553601319692 21.009497869018204596614 42.65924361084925209
22.009497869018190385759 230.06718808957643319 22.009497869018190385759 42.87489742182504671
23.009497869018190385759 231.62239193004990057 23.009497869018190385759 43.01229846127138501
24.009497869018190385759 233.11235571570321667 24.009497869018190385759 43.15385534097472231
25.009497869018190385759 234.53590713388541644 25.009497869018190385759 43.34521657601193567
26.009497869018190385759 235.89548000927760540 26.009497869018190385759 43.46600666150438030
27.009497869018204596614 237.19100250592214252 27.009497869018204596614 43.61508556402714731
28.009497869018190385759 238.42997701870081073 28.009497869018190385759 43.71861466107122851
29.009497869018190385759 239.62354034869349562 29.009497869018190385759 43.67772656388647334
30.009497869018190385759 240.77424316267283189 30.009497869018190385759 43.67127129943003894
31.009497869018190385759 241.88043777911204302 31.009497869018190385759 43.69007461661978198
32.009497869018190385759 242.94276823675872379 32.009497869018190385759 43.73938877360818367
33.009497869018218807469 243.95638601825129399 33.009497869018218807469 43.71715631325847795
34.009497869018190385759 244.92645402318066772 34.009497869018190385759 43.75353650564797192
35.009497869018218807469 245.86025816974051850 35.009497869018218807469 43.76619386015846658
36.009497869018190385759 246.76388847486938971 36.009497869018190385759 43.73810193218949394
37.009497869018218807469 247.64313138511681700 37.009497869018218807469 43.70646521128839623
38.009497869018190385759 248.49477088219191501 38.009497869018190385759 43.73110673763235923
39.009497869018190385759 249.31888430354371167 39.009497869018190385759 43.82738420821696224
40.009497869018190385759 250.11583985924909257 40.009497869018190385759 43.94027708917124642
41.009497869018190385759 250.88710088575300006 41.009497869018190385759 44.02332681798070269
42.009497869018190385759 251.63275164231561121 42.009497869018190385759 44.13147976186061783
43.009497869018190385759 252.35480753203657400 43.009497869018190385759 44.19528360231015540
44.009497869018218807469 253.05903995277643048 44.009497869018218807469 44.23071841875348298
46.009497869018218807469 254.41727303530038284 46.009497869018218807469 44.32330557664356974
48.009497869018218807469 255.71264999568052190 48.009497869018218807469 44.39745890625516722
50.009497869018218807469 256.93863879043539100 50.009497869018218807469 44.55895281616748349
52.009497869018190385759 258.09800926572734170 52.009497869018190385759 44.60921313763370222
54.009497869018190385759 259.19195811325874956 54.009497869018190385759 44.59526145104239703
56.009497869018190385759 260.23570183868736194 56.009497869018190385759 44.46891797765191257
58.009497869018190385759 261.23642170587231703 58.009497869018190385759 43.98108243301118137
60.009497869018190385759 262.19345297652193949 60.009497869018190385759 43.64981245847184255
62.009497869018190385759 263.10085928030423474 62.009497869018190385759 43.32654994715206698
64.009497869018190385759 263.95758075420928890 64.009497869018190385759 43.01223466635499904
66.009497869018218807469 264.76777462111630257 66.009497869018218807469 42.71202980227079138
68.009497869018218807469 265.51432353684140253 68.009497869018218807469 42.29379190102108055
70.009497869018218807469 266.21979896629733275 70.009497869018218807469 42.01941852905299868
72.009497869018218807469 266.89384934760107626 72.009497869018218807469 41.81166670030587795
74.009497869018190385759 267.54254088572218961 74.009497869018190385759 41.53569222549985085
76.009497869018190385759 268.16327232301460981 76.009497869018190385759 41.26499784993114162
78.009497869018190385759 268.75508844638397932 78.009497869018190385759 41.19882097221945827
80.009497869018190385759 269.32411437709475877 80.009497869018190385759 41.00009481644887899
82.009497869018190385759 269.88475105601509085 82.009497869018190385759 40.82360106476063066
84.009497869018190385759 270.42682462915934138 84.009497869018190385759 40.79601746112432892
86.009497869018190385759 270.95195853376628747 86.009497869018190385759 40.77137797149963916
88.009497869018218807469 271.45914582809155036 88.009497869018218807469 40.71453392368627533
91.009497869018190385759 272.18766187079194196 91.009497869018190385759 40.55232450113573606
94.009497869018218807469 272.87797939031747774 94.009497869018218807469 40.29228444185677915
97.009497869018190385759 273.53213442270691758 97.009497869018190385759 39.49123857169121266
99.504748934509109403734 274.03547791249917509 99.504748934509109403734 40.89075093164571939
nan nan nan nan

