Time Pressure difference Time.1 Pressure.1 difference.1
(hr) (psi) (hr) (psi)
0.000200000000006639311 0.66041774974097511 0.000200000000006639311 0.53084300645823201
0.000399999999999067768 1.31094331203928816 0.000399999999999067768 1.34618241497082125
0.000600000000005707079 1.95346181158581955 0.000600000000005707079 1.94967303279780957
0.000799999999998135536 2.58884871918136250 0.000799999999998135536 2.55265832811768245
0.001007140329434719206 3.24001229822999637 0.001007140329434719206 3.17394292857981286
0.001267914553963578328 4.05048823157188220 0.001267914553963578328 3.94581515360430934
0.001596209851982166583 5.05710351028819272 0.001596209851982166583 4.89391300235445748
0.002009509145224797066 6.30418127664554806 0.002009509145224797066 6.05307827982844415
0.002529822128138903281 7.84459119863645693 0.002529822128138903281 7.46252306912190377
0.003184857364431081805 9.74071036203244311 0.003184857364431081805 9.16513813776033892
0.004009497869020606231 12.06515452398778621 0.004009497869020606231 11.20605064482475477
0.005047658755842121536 14.90107391439422280 0.005047658755842121536 13.63009706146565136
0.006354625877790454069 18.34171949956577308 0.006354625877790454069 16.47792209926797469
0.008000000000009777068 22.48894063495554718 0.008000000000009777068 19.78048801038728755
0.010071403294347192059 27.45022066596843757 0.010071403294347192059 23.55176563669272838
0.012679145539706837553 33.33380613735189257 0.012679145539706837553 27.77992186448322443
0.015962098519750611558 40.24168120443874841 0.015962098519750611558 32.41789689546909869
0.020095091452091651263 48.26035465449104578 0.020095091452091651263 37.37509779367643148
0.025298221281360611101 57.45000671572729800 0.025298221281360611101 42.51227871874662156
0.031848573644296607199 67.83291729612558640 0.031848573644296607199 47.64515887528966687
0.040094978690177640601 79.38427949923250537 0.040094978690177640601 52.55609004531773820
0.050476587558421215363 92.02600389265094805 0.050476587558421215363 57.02065489056703740
0.063546258777961384112 105.62978390797630368 0.063546258777961384112 60.84129993160747318
0.079999999999998294697 120.02639048045415393 0.079999999999998294697 63.88314627225760489
0.100714032943542974863 135.02522367217196120 0.100714032943542974863 66.10521326981012180
0.126791455396897845276 150.43796942942395845 0.126791455396897845276 67.56604687139196130
0.159620985197506115583 166.10071422855418177 0.159620985197506115583 68.41120853306888705
0.200950914520760193227 181.89179540145505598 0.200950914520760193227 68.84007749454291059
0.252982212813478213320 197.73857461133144398 0.252982212813478213320 69.06146686225000053
0.318485736442795541734 213.61479262791169731 0.318485736442795541734 69.25761309559388224
0.400949786901833249431 229.53070154952391135 0.400949786901833249431 69.56193609754197382
0.504765875584155310207 245.52011764447627229 0.504765875584155310207 70.04953854150301140
0.635462587779443310865 261.62612082212217501 0.635462587779443310865 70.75572540063421911
0.799999999999997157829 277.89651755007491829 0.799999999999997157829 71.67918344321969926
1.007140329435344483500 294.37092948656470526 1.007140329435344483500 72.79900497949421379
1.267914553968893187630 311.08390826916883043 1.267914553968893187630 74.10021027063592669
1.596209851975103788391 328.06353011441166245 1.596209851975103788391 75.56742538586040325
2.009509145207672986544 345.33134976686892514 2.009509145207672986544 77.19382714933672673
2.529822128134711078928 362.90471975781480296 2.529822128134711078928 78.98255073483134936
3.184857364427998049905 380.79693280252109844 3.184857364427998049905 80.94148095699446799
4.009497869018190385759 399.01662229686331784 4.009497869018190385759 83.06575778552758038
5.009497869018204596614 416.94381121430041048 5.009497869018204596614 85.23927696772005902
6.009497869018204596614 431.80554294552121064 6.009497869018204596614 87.10020356158685217
7.009497869018204596614 444.51078018622763466 7.009497869018204596614 88.72228920874276525
8.009497869018204596614 455.60488045884738995 8.009497869018204596614 90.15665499242759040
9.009497869018204596614 465.45040324268057930 9.009497869018204596614 91.43187508096951888
10.009497869018190385759 474.29378845391443065 10.009497869018190385759 92.56097212113694184
11.009497869018190385759 482.31309613252096824 11.009497869018190385759 93.59925295604971041
12.009497869018190385759 489.64526452655036337 12.009497869018190385759 94.49913847124133781
13.009497869018190385759 496.39941101238815691 13.009497869018190385759 95.35660852027807266
14.009497869018190385759 502.63977439771588251 14.009497869018190385759 96.19509888222310678
15.009497869018190385759 508.45361431700132471 15.009497869018190385759 96.89066979587194339
16.009497869018204596614 513.89127760384110388 16.009497869018204596614 97.51277387347894887
17.009497869018204596614 518.97830538662219624 17.009497869018204596614 98.20317578991044627
18.009497869018204596614 523.75262763502405505 18.009497869018204596614 98.70070197181145488
19.009497869018204596614 528.27359526359634856 19.009497869018204596614 99.18301290337146270
20.009497869018204596614 532.55112571288657364 20.009497869018204596614 99.64513004418465414
21.009497869018204596614 536.59771159632430226 21.009497869018204596614 100.20543733809456910
22.009497869018190385759 540.42175266789070065 22.009497869018190385759 100.71200244833390514
23.009497869018190385759 544.07488544272723630 23.009497869018190385759 101.03475386357295918
24.009497869018190385759 547.57477105066948297 24.009497869018190385759 101.36726723789077198
25.009497869018190385759 550.91865576024110851 25.009497869018190385759 101.81676972840341477
26.009497869018190385759 554.11225656138219620 26.009497869018190385759 102.10050245121702517
27.009497869018204596614 557.15540471332440120 27.009497869018204596614 102.45068485860922181
28.009497869018190385759 560.06572314363450005 28.009497869018190385759 102.69387197512627097
29.009497869018190385759 562.86937190411572374 29.009497869018190385759 102.59782691399726673
30.009497869018190385759 565.57234244369783482 30.009497869018190385759 102.58266366816263826
31.009497869018190385759 568.17076440196115072 31.009497869018190385759 102.62683216396611385
32.009497869018190385759 570.66615060892593192 32.009497869018190385759 102.74266981718521663
33.009497869018218807469 573.04711202527641944 33.009497869018218807469 102.69044635460423365
34.009497869018190385759 575.32577616588764613 34.009497869018190385759 102.77590246634611049
35.009497869018218807469 577.51925746029962738 35.009497869018218807469 102.80563425802618838
36.009497869018190385759 579.64186119756698190 36.009497869018190385759 102.73964706065626729
37.009497869018218807469 581.70717958791362889 37.009497869018218807469 102.66533323824634749
38.009497869018190385759 583.70765828925436836 38.009497869018190385759 102.72321553326544574
39.009497869018190385759 585.64347896521553594 39.009497869018190385759 102.94936877062107783
40.009497869018190385759 587.51550653154993142 40.009497869018190385759 103.21455116840517974
41.009497869018190385759 589.32717832694470417 41.009497869018190385759 103.40963278945028492
42.009497869018190385759 591.07869227417836555 42.009497869018190385759 103.66368120014767840
43.009497869018190385759 592.77478250193939857 43.009497869018190385759 103.81355473739129991
44.009497869018218807469 594.42900587147778424 44.009497869018218807469 103.89679018598691584
46.009497869018218807469 597.61945953453266611 46.009497869018218807469 104.11427497622140947
48.009497869018218807469 600.66226582563069769 48.009497869018218807469 104.28845919035305201
50.009497869018218807469 603.54208114703442334 50.009497869018218807469 104.66780412243447529
52.009497869018190385759 606.26541179427442785 52.009497869018190385759 104.78586429103987143
54.009497869018190385759 608.83506876457556700 54.009497869018190385759 104.75309214746320663
56.009497869018190385759 611.28679522811887637 56.009497869018190385759 104.45631466304745061
58.009497869018190385759 613.63745978417523474 58.009497869018190385759 103.31040184411131122
60.009497869018190385759 615.88550098004122901 60.009497869018190385759 102.53225741711422359
62.009497869018190385759 618.01697443848593139 62.009497869018190385759 101.77292230987919197
64.009497869018190385759 620.02939056927164074 64.009497869018190385759 101.03460401099810895
66.009497869018218807469 621.93251457922042391 66.009497869018218807469 100.32943070855982626
68.009497869018218807469 623.68613827862156995 68.009497869018218807469 99.34700091706125136
70.009497869018218807469 625.34328144282756057 70.009497869018218807469 98.70250510783418463
72.009497869018218807469 626.92660799832390239 72.009497869018218807469 98.21450154529327392
74.009497869018190385759 628.45036730047934270 74.009497869018190385759 97.56624478775772502
76.009497869018190385759 629.90844906373820322 76.009497869018190385759 96.93039084397315719
78.009497869018190385759 631.29860951775253852 78.009497869018190385759 96.77494310483221795
80.009497869018190385759 632.63523641071219572 80.009497869018190385759 96.30814060989895609
82.009497869018190385759 633.95215717263374700 82.009497869018190385759 95.89356144537613602
84.009497869018190385759 635.22547368902246490 84.009497869018190385759 95.82876828844746342
86.009497869018190385759 636.45899937110493738 86.009497869018190385759 95.77089077762818192
88.009497869018218807469 637.65036893930016504 88.009497869018218807469 95.63736560959736721
91.009497869018190385759 639.36163389590717543 91.009497869018190385759 95.25633995721325675
94.009497869018218807469 640.98317152974880173 94.009497869018218807469 94.64551272119437897
97.009497869018190385759 642.51976443574267250 97.009497869018190385759 92.76387711414857051
99.504748934509109403734 643.70210500853920621 99.504748934509109403734 96.05129471040532962
nan nan nan nan

