Time Pressure difference Time.1 Pressure.1 difference.1
(hr) (psi) (hr) (psi)
0.000200000000006639311 0.29516798303029845 0.000200000000006639311 0.23725567579531470
0.000399999999999067768 0.58591473871418875 0.000399999999999067768 0.60166455001192765
0.000600000000005707079 0.87308280717568465 0.000600000000005707079 0.87138944537030694
0.000799999999998135536 1.15706347249304331 0.000799999999998135536 1.14088849121863967
0.001007140329434719206 1.44809538422763895 0.001007140329434719206 1.41856625272356185
0.001267914553963578328 1.81033057041539802 0.001267914553963578328 1.76354784642989104
0.001596209851982166583 2.26022853518498490 0.001596209851982166583 2.18729195361160533
0.002009509145224797066 2.81759912239588806 0.002009509145224797066 2.70537081670235047
0.002529822128138903281 3.50607197142553284 0.002529822128138903281 3.33530993601203685
0.003184857364431081805 4.35352597953509957 0.003184857364431081805 4.09627896793782931
0.004009497869020606231 5.39241612932288117 0.004009497869020606231 5.00844710467823084
0.005047658755842121536 6.65990569457319825 0.005047658755842121536 6.09185361798339997
0.006354625877790454069 8.19767238557371591 0.006354625877790454069 7.36466430903612412
0.008000000000009777068 10.05123688803256599 0.008000000000009777068 8.84071748778857369
0.010071403294347192059 12.26863795058264728 0.010071403294347192059 10.52625730079400235
0.012679145539706837553 14.89825542718099527 0.012679145539706837553 12.41599504055554881
0.015962098519750611558 17.98567025117237250 0.015962098519750611558 14.48889773854923391
0.020095091452091651263 21.56954677441672175 0.020095091452091651263 16.70447566808509521
0.025298221281360611101 25.67678202775327279 0.025298221281360611101 19.00049410900286162
0.031848573644296607199 30.31733382273777266 0.031848573644296607199 21.29459035874369377
0.040094978690177640601 35.48011493224124280 0.040094978690177640601 23.48948843473626624
0.050476587558421215363 41.13022396200879172 0.050476587558421215363 25.48488695483520416
0.063546258777961384112 47.21031540456369413 0.063546258777961384112 27.19249110551245252
0.079999999999998294697 53.64475379775603869 0.079999999999998294697 28.55201793441726110
0.100714032943542974863 60.34835215310556578 0.100714032943542974863 29.54515149886644565
0.126791455396897845276 67.23694513824440833 0.126791455396897845276 30.19805840194547386
0.159620985197506115583 74.23727302599549205 0.159620985197506115583 30.57579607345650530
0.200950914520760193227 81.29495974247305412 0.200950914520760193227 30.76747533463965567
0.252982212813478213320 88.37754021330420073 0.252982212813478213320 30.86642339161735293
0.318485736442795541734 95.47327810336129517 0.318485736442795541734 30.95408924871737000
0.400949786901833249431 102.58675549903816204 0.400949786901833249431 31.09010377393261848
0.504765875584155310207 109.73308628804306863 0.504765875584155310207 31.30803345550322447
0.635462587779443310865 116.93152466207209272 0.635462587779443310865 31.62365754485274039
0.799999999999997157829 124.20343730702475682 0.799999999999997157829 32.03638910446024113
1.007140329435344483500 131.56653277926361056 1.007140329435344483500 32.53688362379391918
1.267914553968893187630 139.03625363341129173 1.267914553968893187630 33.11844603856137326
1.596209851975103788391 146.62514829083568202 1.596209851975103788391 33.77420510379278795
2.009509145207672986544 154.34285045760185540 2.009509145207672986544 34.50111126025286268
2.529822128134711078928 162.19711569700089626 2.529822128134711078928 35.30056574665371016
3.184857364427998049905 170.19388507278719658 3.184857364427998049905 36.17609261248941266
4.009497869018190385759 178.33701720633840182 4.009497869018190385759 37.12551970938686452
5.009497869018204596614 186.34941874496823289 5.009497869018204596614 38.09695524899348129
6.009497869018204596614 192.99174079213057098 6.009497869018204596614 38.92868024350573108
7.009497869018204596614 198.67023633791447423 7.009497869018204596614 39.65365734922585261
8.009497869018204596614 203.62864819509036352 8.009497869018204596614 40.29473469074791581
9.009497869018204596614 208.02901917712813429 9.009497869018204596614 40.86468324467801239
10.009497869018190385759 211.98149346629384127 10.009497869018190385759 41.36932336999628745
11.009497869018190385759 215.56565345248753829 11.009497869018190385759 41.83337398035679655
12.009497869018190385759 218.84270249750943549 12.009497869018190385759 42.23557000337628153
13.009497869018190385759 221.86140966596127555 13.009497869018190385759 42.61880880182216202
14.009497869018190385759 224.65048593555840739 14.009497869018190385759 42.99356479380258378
15.009497869018190385759 227.24893124280458778 15.009497869018190385759 43.30444417842965521
16.009497869018204596614 229.67924766813374049 16.009497869018204596614 43.58248819813415764
17.009497869018204596614 231.95285059726685972 17.009497869018204596614 43.89105734430454930
18.009497869018204596614 234.08669250104694015 18.009497869018204596614 44.11342235444257653
19.009497869018204596614 236.10729975576469997 19.009497869018204596614 44.32898704045815919
20.009497869018204596614 238.01910487542244255 20.009497869018204596614 44.53552628691399207
21.009497869018204596614 239.82769132519862865 21.009497869018204596614 44.78595077033440219
22.009497869018190385759 241.53681330225325041 22.009497869018190385759 45.01235565106559022
23.009497869018190385759 243.16954929899668514 23.009497869018190385759 45.15660659570426816
24.009497869018190385759 244.73379280416935444 24.009497869018190385759 45.30522056325205682
25.009497869018190385759 246.22831306138115792 25.009497869018190385759 45.50612180120901229
26.009497869018190385759 247.65566522968146046 26.009497869018190385759 45.63293367981984971
27.009497869018204596614 249.01577389184788558 27.009497869018204596614 45.78944466839213590
28.009497869018190385759 250.31651546244833639 28.009497869018190385759 45.89813504006891520
29.009497869018190385759 251.56958194965474718 29.009497869018190385759 45.85520853334708846
30.009497869018190385759 252.77765117958026053 30.009497869018190385759 45.84843145218754756
31.009497869018190385759 253.93899332821732173 31.009497869018190385759 45.86817217815215031
32.009497869018190385759 255.05428454181705433 32.009497869018190385759 45.91994481217516011
33.009497869018218807469 256.11843458807612706 33.009497869018218807469 45.89660398869952473
34.009497869018190385759 257.13686375454153676 34.009497869018190385759 45.93479785636942125
35.009497869018218807469 258.11722118700032524 35.009497869018218807469 45.94808622268836018
36.009497869018190385759 259.06590051027342270 36.009497869018190385759 45.91859381737196344
37.009497869018218807469 259.98897664478533898 37.009497869018218807469 45.88537989924118676
38.009497869018190385759 260.88307324288768996 38.009497869018190385759 45.91124988877532331
39.009497869018190385759 261.74827149756202971 39.009497869018190385759 46.01232711595798008
40.009497869018190385759 262.58495797539939076 40.009497869018190385759 46.13084808775163026
41.009497869018190385759 263.39466896510134575 41.009497869018190385759 46.21803812562197322
42.009497869018190385759 264.17749292653667226 42.009497869018190385759 46.33158285849296476
43.009497869018190385759 264.93554573744603431 43.009497869018190385759 46.39856753556315283
44.009497869018218807469 265.67488651933717847 44.009497869018218807469 46.43576889710775646
46.009497869018218807469 267.10083210157642952 46.009497869018218807469 46.53297183706275320
48.009497869018218807469 268.46078797200470945 48.009497869018218807469 46.61082196023269830
50.009497869018218807469 269.74789644274443390 50.009497869018218807469 46.78036688618169592
52.009497869018190385759 270.96506544613015421 52.009497869018190385759 46.83313285417263216
54.009497869018190385759 272.11355133298133069 54.009497869018190385759 46.81848562895359578
56.009497869018190385759 273.20932920307939185 56.009497869018190385759 46.68584350732957233
58.009497869018190385759 274.25993833050529247 58.009497869018190385759 46.17368771559531382
60.009497869018190385759 275.26468083752160965 60.009497869018190385759 45.82590281563906132
62.009497869018190385759 276.21732440571531697 62.009497869018190385759 45.48652457794850790
64.009497869018190385759 277.11675633433111443 64.009497869018190385759 45.15653962039615266
66.009497869018218807469 277.96734109782886435 66.009497869018218807469 44.84136853141625068
68.009497869018218807469 278.75110799468978939 68.009497869018218807469 44.40228006030952201
70.009497869018218807469 279.49175375347346062 70.009497869018218807469 44.11422825044274276
72.009497869018218807469 280.19940781947553887 72.009497869018218807469 43.89611929240324173
74.009497869018190385759 280.88043881844146199 74.009497869018190385759 43.60638655932242358
76.009497869018190385759 281.53211581125879093 76.009497869018190385759 43.32219715623269707
78.009497869018190385759 282.15343596423889494 78.009497869018190385759 43.25272113798992990
80.009497869018190385759 282.75082975659802287 80.009497869018190385759 43.04408781316333688
82.009497869018190385759 283.33941606467277552 82.009497869018190385759 42.85879525273990254
84.009497869018190385759 283.90851383354561221 84.009497869018190385759 42.82983651343844400
86.009497869018190385759 284.45982743427663308 86.009497869018190385759 42.80396866216091212
88.009497869018218807469 284.99229972567968616 88.009497869018218807469 42.74429074686125318
91.009497869018190385759 285.75713474998099173 91.009497869018190385759 42.57399463755599101
94.009497869018218807469 286.48186692590519442 94.009497869018218807469 42.30099070435404229
97.009497869018190385759 287.16863379275389434 97.009497869018190385759 41.46000999608637727
99.504748934509109403734 287.69707065300502791 99.504748934509109403734 42.92929276694769669
nan nan nan nan

