Time Pressure difference Time.1 Pressure.1 difference.1
(hr) (psi) (hr) (psi)
0.000200000000006639311 0.28280060943964352 0.000200000000006639311 0.22731479552456130
0.000399999999999067768 0.56136523848873399 0.000399999999999067768 0.57645514149187482
0.000600000000005707079 0.83650112531078158 0.000600000000005707079 0.83487871441903705
0.000799999999998135536 1.10858315939975927 0.000799999999998135536 1.09308590080445089
0.001007140329434719206 1.38742099662033569 0.001007140329434719206 1.35912911922955781
0.001267914553963578328 1.73447873087285331 0.001267914553963578328 1.68965617688673908
0.001596209851982166583 2.16552622225824010 0.001596209851982166583 2.09564564270609077
0.002009509145224797066 2.69954329324522257 0.002009509145224797066 2.59201729086286647
0.002529822128138903281 3.35916951452222845 0.002529822128138903281 3.19556231299477300
0.003184857364431081805 4.17111567312999831 0.003184857364431081805 3.92464716760523835
0.004009497869020606231 5.16647690602722953 0.004009497869020606231 4.79859596900735497
0.005047658755842121536 6.38085936658828690 0.005047658755842121536 5.83660835466007200
0.006354625877790454069 7.85419449232342082 0.006354625877790454069 7.05608898882511415
0.008000000000009777068 9.63009567764014029 0.008000000000009777068 8.47029636399855157
0.010071403294347192059 11.75458887444091616 0.010071403294347192059 10.08521300048140468
0.012679145539706837553 14.27402684782983577 0.012679145539706837553 11.89577178466634955
0.015962098519750611558 17.23208071550872589 0.015962098519750611558 13.88182101766030030
0.020095091452091651263 20.66579481459479339 0.020095091452091651263 16.00456746970164090
0.025298221281360611101 24.60093920536137801 0.025298221281360611101 18.20438402063681949
0.031848573644296607199 29.04705447262305995 0.031848573644296607199 20.40235891913152955
0.040094978690177640601 33.99351793787359810 0.040094978690177640601 22.50529199194005159
0.050476587558421215363 39.40689055577936983 0.050476587558421215363 24.41708442879462027
0.063546258777961384112 45.23222956359035152 0.063546258777961384112 26.05314091952729427
0.079999999999998294697 51.39706858276626633 0.079999999999998294697 27.35570433381318267
0.100714032943542974863 57.81978991205366469 0.100714032943542974863 28.30722615673516884
0.126791455396897845276 64.41975469949115052 0.126791455396897845276 28.93277662532764438
0.159620985197506115583 71.12677275954317224 0.159620985197506115583 29.29468729942900040
0.200950914520760193227 77.88874634544205833 0.200950914520760193227 29.47833530665196022
0.252982212813478213320 84.67457065129423199 0.252982212813478213320 29.57313749532054103
0.318485736442795541734 91.47300108785732675 0.318485736442795541734 29.65713020198339933
0.400949786901833249431 98.28842775466505088 0.400949786901833249431 29.78744579457790209
0.504765875584155310207 105.13533127597423800 0.504765875584155310207 29.99624434423911978
0.635462587779443310865 112.03215910360539453 0.635462587779443310865 30.29864396057120146
0.799999999999997157829 118.99938267125554603 0.799999999999997157829 30.69408229840743374
1.007140329435344483500 126.05396855666877798 1.007140329435344483500 31.17360637698691761
1.267914553968893187630 133.21071228005607168 1.267914553968893187630 31.73080165147081644
1.596209851975103788391 140.48163649094033190 1.596209851975103788391 32.35908477821488560
2.009509145207672986544 147.87597124848446128 2.009509145207672986544 33.05553397281209982
2.529822128134711078928 155.40114716221034996 2.529822128134711078928 33.82149176285536640
3.184857364427998049905 163.06285636862014599 3.184857364427998049905 34.66033454213371101
4.009497869018190385759 170.86479581501137659 4.009497869018190385759 35.56998117407735549
5.009497869018204596614 178.54148220537459224 5.009497869018204596614 36.50071410727588272
6.009497869018204596614 184.90549466955528146 6.009497869018204596614 37.29759028916890173
7.009497869018204596614 190.34606442431470441 7.009497869018204596614 37.99219125917448991
8.009497869018204596614 195.09672159473740294 8.009497869018204596614 38.60640781823054368
9.009497869018204596614 199.31271949093562057 9.009497869018204596614 39.15247584615798360
10.009497869018190385759 203.09958731547146726 10.009497869018190385759 39.63597183214727693
11.009497869018190385759 206.53357300056768509 11.009497869018190385759 40.08057898117983342
12.009497869018190385759 209.67331552135678407 12.009497869018190385759 40.46592321552531502
13.009497869018190385759 212.56554054587908809 13.009497869018190385759 40.83310452241619970
14.009497869018190385759 215.23775607792330788 14.009497869018190385759 41.19215844769353652
15.009497869018190385759 217.72732797844128072 15.009497869018190385759 41.49001215978037038
16.009497869018204596614 220.05581550326778029 16.009497869018204596614 41.75640629039110507
17.009497869018204596614 222.23415573983945137 17.009497869018204596614 42.05204656172195854
18.009497869018204596614 224.27859085994165866 18.009497869018204596614 42.26509460216146152
19.009497869018204596614 226.21453579951756296 19.009497869018204596614 42.47162724826019087
20.009497869018204596614 228.04623735270922680 20.009497869018204596614 42.66951261567457721
21.009497869018204596614 229.77904504062325941 21.009497869018204596614 42.90944445314161726
22.009497869018190385759 231.41655576165607044 22.009497869018190385759 43.12636309585333549
23.009497869018190385759 232.98088103227894408 23.009497869018190385759 43.26457000649878637
24.009497869018190385759 234.47958360846394044 24.009497869018190385759 43.40695713183087889
25.009497869018190385759 235.91148430182607854 25.009497869018190385759 43.59944072015276362
26.009497869018190385759 237.27903121167804557 26.009497869018190385759 43.72093925189443553
27.009497869018204596614 238.58215208073696090 27.009497869018204596614 43.87089251748184893
28.009497869018190385759 239.82839330620052465 28.009497869018190385759 43.97502882330625340
29.009497869018190385759 241.02895700763011178 29.009497869018190385759 43.93390091323477975
30.009497869018190385759 242.18640881172078139 30.009497869018190385759 43.92740778798974333
31.009497869018190385759 243.29909137312444045 31.009497869018190385759 43.94632138856476899
32.009497869018190385759 244.36765250794204007 32.009497869018190385759 43.99592477814547919
33.009497869018218807469 245.38721526176004772 33.009497869018218807469 43.97356192213389647
34.009497869018190385759 246.36297281510547919 34.009497869018190385759 44.01015548808579325
35.009497869018218807469 247.30225381882993929 35.009497869018218807469 44.02288707927963429
36.009497869018190385759 248.21118400844630969 36.009497869018190385759 43.99463038926978697
37.009497869018218807469 249.09558376860718454 37.009497869018218807469 43.96280811575343250
38.009497869018190385759 249.95221821874437751 38.009497869018190385759 43.98759416717859239
39.009497869018190385759 250.78116514989881125 39.009497869018190385759 44.08443631501001647
40.009497869018190385759 251.58279493173736796 40.009497869018190385759 44.19799132429834998
41.009497869018190385759 252.35857948332338196 41.009497869018190385759 44.28152814829144290
42.009497869018190385759 253.10860355810635269 42.009497869018190385759 44.39031542028795485
43.009497869018190385759 253.83489437973179292 43.009497869018190385759 44.45449347681051222
44.009497869018218807469 254.54325719590124777 44.009497869018218807469 44.49013612208928237
46.009497869018218807469 255.90945645486229409 46.009497869018218807469 44.58326631316347743
48.009497869018218807469 257.21243093407156266 48.009497869018218807469 44.65785455966429396
50.009497869018218807469 258.44561027894235394 50.009497869018218807469 44.82029564793386101
52.009497869018190385759 259.61178058106884237 52.009497869018190385759 44.87085075134416456
54.009497869018190385759 260.71214555087317422 54.009497869018190385759 44.85681723667900656
56.009497869018190385759 261.76201094038049177 56.009497869018190385759 44.72973274584928305
58.009497869018190385759 262.76860013229969582 58.009497869018190385759 44.23903599566813938
60.009497869018190385759 263.73124448958071753 60.009497869018190385759 43.90582308872681239
62.009497869018190385759 264.64397282447026782 62.009497869018190385759 43.58066460959870625
64.009497869018190385759 265.50571905775296955 64.009497869018190385759 43.26450583741866751
66.009497869018218807469 266.32066479484717547 66.009497869018218807469 42.96254024099378199
68.009497869018218807469 267.07159229658827826 68.009497869018218807469 42.54184933152560433
70.009497869018218807469 267.78120541184745207 70.009497869018218807469 42.26586673156944585
72.009497869018218807469 268.45920916782154109 72.009497869018218807469 42.05689641702321069
74.009497869018190385759 269.11170534839504853 74.009497869018190385759 41.77930332359662202
76.009497869018190385759 269.73607743927863112 76.009497869018190385759 41.50702129773132043
78.009497869018190385759 270.33136462495519936 78.009497869018190385759 41.44045628583950958
80.009497869018190385759 270.90372795115393956 80.009497869018190385759 41.24056458076822196
82.009497869018190385759 271.46765282173953437 82.009497869018190385759 41.06303567511113073
84.009497869018190385759 272.01290571202832780 84.009497869018190385759 41.03529029080834079
86.009497869018190385759 272.54111958088515166 86.009497869018190385759 41.01050628804802045
88.009497869018218807469 273.05128158074899147 88.009497869018218807469 40.95332884405979712
91.009497869018190385759 273.78407044481417643 91.009497869018190385759 40.79016804659693918
94.009497869018218807469 274.47843674744547116 94.009497869018218807469 40.52860282567998951
97.009497869018190385759 275.13642846624185268 97.009497869018190385759 39.72285873926711020
99.504748934509109403734 275.64272411726460632 99.504748934509109403734 41.13057938285771087
nan nan nan nan

