Time Pressure difference Time.1 Pressure.1 difference.1
(hr) (psi) (hr) (psi)
0.000200000000006639311 0.21766577519552735 0.000200000000006639311 0.17495949276526002
0.000399999999999067768 0.43207120396800508 0.000399999999999067768 0.44368558995292989
0.000600000000005707079 0.64383760082229258 0.000600000000005707079 0.64258886474234933
0.000799999999998135536 0.85325351044179731 0.000799999999998135536 0.84132559128972306
0.001007140329434719206 1.06786922188853817 0.001007140329434719206 1.04609354949447009
0.001267914553963578328 1.33499237594878495 0.001267914553963578328 1.30049338395947278
0.001596209851982166583 1.66676070751071537 0.001596209851982166583 1.61297507193704948
0.002009509145224797066 2.07778259305171664 0.002009509145224797066 1.99502205477491801
0.002529822128138903281 2.58548324149815834 0.002529822128138903281 2.45955816510384873
0.003184857364431081805 3.21042139272979421 0.003184857364431081805 3.02071968585359496
0.004009497869020606231 3.97653033000346534 0.004009497869020606231 3.69337998780741028
0.005047658755842121536 4.91121537253442497 0.005047658755842121536 4.49231663449055141
0.006354625877790454069 6.04521092120519832 0.006354625877790454069 5.43092563571379028
0.008000000000009777068 7.41208530290669731 0.008000000000009777068 6.51941177870442434
0.010071403294347192059 9.04726374009446666 0.010071403294347192059 7.76237968550172219
0.012679145539706837553 10.98642299658039967 0.012679145539706837553 9.15592930364990210
0.015962098519750611558 13.26317582768018610 0.015962098519750611558 10.68455028764524428
0.020095091452091651263 15.90603449286596494 0.020095091452091651263 12.31838429154878511
0.025298221281360611101 18.93483367409738705 0.025298221281360611101 14.01153755524233269
0.031848573644296607199 22.35691656201891675 0.031848573644296607199 15.70327333717412088
0.040094978690177640601 26.16410710087063762 0.040094978690177640601 17.32185739321333884
0.050476587558421215363 30.33066794963776758 0.050476587558421215363 18.79332445831422760
0.063546258777961384112 34.81431080113076604 0.063546258777961384112 20.05256327333879085
0.079999999999998294697 39.55925978382009589 0.079999999999998294697 21.05511937063172212
0.100714032943542974863 44.50269544251360543 0.100714032943542974863 21.78748602151045333
0.126791455396897845276 49.58255172205733885 0.126791455396897845276 22.26895926847375762
0.159620985197506115583 54.74480468956092949 0.159620985197506115583 22.54751442288412733
0.200950914520760193227 59.94935578774549612 0.200950914520760193227 22.68886449258343418
0.252982212813478213320 65.17226429137515709 0.252982212813478213320 22.76183177482397113
0.318485736442795541734 70.40487547286977588 0.318485736442795541734 22.82647922251783612
0.400949786901833249431 75.65056830096668250 0.400949786901833249431 22.92678043664304965
0.504765875584155310207 80.92048821241165513 0.504765875584155310207 23.08748835824818713
0.635462587779443310865 86.22883382901405014 0.635462587779443310865 23.32023908335509432
0.799999999999997157829 91.59136158953781148 0.799999999999997157829 23.62459978652934112
1.007140329435344483500 97.02113031766926099 1.007140329435344483500 23.99367954380333856
1.267914553968893187630 102.52952781905189283 1.267914553968893187630 24.42254121279386325
1.596209851975103788391 108.12580767815816785 1.596209851975103788391 24.90611773017121777
2.009509145207672986544 113.81707408046618468 2.009509145207672986544 25.44216025895742206
2.529822128134711078928 119.60904621231350120 2.529822128134711078928 26.03170211485078056
3.184857364427998049905 125.50610519334028936 3.184857364427998049905 26.67734203826034900
4.009497869018190385759 131.51109648735570090 4.009497869018190385759 27.37747822144729426
5.009497869018204596614 137.41968309684807537 5.009497869018204596614 28.09384409422983353
6.009497869018204596614 142.31793175732536838 6.009497869018204596614 28.70718319632825200
7.009497869018204596614 146.50542567935590910 7.009497869018204596614 29.24180318490397923
8.009497869018204596614 150.16190816621190152 8.009497869018204596614 29.71455295630572380
9.009497869018204596614 153.40687447698837786 9.009497869018204596614 30.13485021395250030
10.009497869018190385759 156.32154825447366875 10.009497869018190385759 30.50698706614251421
11.009497869018190385759 158.96461595378968923 11.009497869018190385759 30.84919198551451203
12.009497869018190385759 161.38121078028626698 12.009497869018190385759 31.14578346617692262
13.009497869018190385759 163.60729651344630042 13.009497869018190385759 31.42839531754482962
14.009497869018190385759 165.66404549437828564 14.009497869018190385759 31.70475169151922401
15.009497869018190385759 167.58021745279444303 15.009497869018190385759 31.93400352822745347
16.009497869018204596614 169.37240610164050736 16.009497869018204596614 32.13904157627770530
17.009497869018204596614 171.04902949072192087 17.009497869018204596614 32.36658977345363297
18.009497869018204596614 172.62258888345363061 18.009497869018204596614 32.53056844014759719
19.009497869018204596614 174.11264562994938387 19.009497869018204596614 32.68953234268422392
20.009497869018204596614 175.52246839975288140 20.009497869018204596614 32.84184061381366604
21.009497869018204596614 176.85617460852637350 21.009497869018204596614 33.02651118259296936
22.009497869018190385759 178.11653271451078240 22.009497869018190385759 33.19346897173551980
23.009497869018190385759 179.32056149423218017 23.009497869018190385759 33.29984397001655338
24.009497869018190385759 180.47408184441539447 24.009497869018190385759 33.40943639301269030
25.009497869018190385759 181.57618616816935742 25.009497869018190385759 33.55758702658988568
26.009497869018190385759 182.62875871686006235 26.009497869018190385759 33.65110193148726125
27.009497869018204596614 183.63174387555264389 27.009497869018204596614 33.76651785602101796
28.009497869018190385759 184.59094994996195283 28.009497869018190385759 33.84666941502288751
29.009497869018190385759 185.51499897963367403 29.009497869018190385759 33.81501411397662338
30.009497869018190385759 186.40586567432734455 30.009497869018190385759 33.81001648988132047
31.009497869018190385759 187.26227440963512549 31.009497869018190385759 33.82457389673789550
32.009497869018190385759 188.08472379620030779 32.009497869018190385759 33.86275259892246225
33.009497869018218807469 188.86946014316225728 33.009497869018218807469 33.84554037155495365
34.009497869018190385759 189.62048053407534098 34.009497869018190385759 33.87370568179197505
35.009497869018218807469 190.34342567979913952 35.009497869018218807469 33.88350492399364811
36.009497869018190385759 191.04301043215696154 36.009497869018190385759 33.86175633459831857
37.009497869018218807469 191.72371462073556359 37.009497869018218807469 33.83726338938456735
38.009497869018190385759 192.38304842492277658 38.009497869018190385759 33.85634070010247143
39.009497869018190385759 193.02107171887254822 39.009497869018190385759 33.93087809668409704
40.009497869018190385759 193.63806956845093055 40.009497869018190385759 34.01827903677773435
41.009497869018190385759 194.23517487929265712 41.009497869018190385759 34.08257560101731798
42.009497869018190385759 194.81245288437341401 42.009497869018190385759 34.16630691240821704
43.009497869018190385759 195.37146389577026184 43.009497869018190385759 34.21570343404657422
44.009497869018218807469 195.91667609247207338 44.009497869018218807469 34.24313684032527760
46.009497869018218807469 196.96821138216805025 46.009497869018218807469 34.31481722062727613
48.009497869018218807469 197.97108386762360510 48.009497869018218807469 34.37222625000399745
50.009497869018218807469 198.92023648291771565 50.009497869018218807469 34.49725379316192431
52.009497869018190385759 199.81781362507925337 52.009497869018190385759 34.53616500978093740
54.009497869018190385759 200.66474176510354255 54.009497869018190385759 34.52536370403282007
56.009497869018190385759 201.47280142349987386 56.009497869018190385759 34.42754940205309566
58.009497869018190385759 202.24755228841729604 58.009497869018190385759 34.04987027071832983
60.009497869018190385759 202.98847972375892823 60.009497869018190385759 33.79340319365562095
62.009497869018190385759 203.69098782991295593 62.009497869018190385759 33.54313544295644078
64.009497869018190385759 204.35425606777491225 64.009497869018190385759 33.29979458040386930
66.009497869018218807469 204.98150293247712739 66.009497869018218807469 33.06737791143545024
68.009497869018218807469 205.55947628658685744 68.009497869018218807469 32.74358082659696123
70.009497869018218807469 206.10565081261731279 70.009497869018218807469 32.53116273217006693
72.009497869018218807469 206.62749626911045198 72.009497869018218807469 32.37032260668841843
74.009497869018190385759 207.12970907281720656 74.009497869018190385759 32.15666494877407899
76.009497869018190385759 207.61027534685001683 76.009497869018190385759 31.94709510962411159
78.009497869018190385759 208.06845557139408243 78.009497869018190385759 31.89586139784732310
80.009497869018190385759 208.50899177581527510 80.009497869018190385759 31.74200889015396854
82.009497869018190385759 208.94303307562458372 82.009497869018190385759 31.60536856626629287
84.009497869018190385759 209.36270293870401815 84.009497869018190385759 31.58401351828980097
86.009497869018190385759 209.76925821969001618 86.009497869018190385759 31.56493778438682085
88.009497869018218807469 210.16191935078055053 88.009497869018218807469 31.52092948930550520
91.009497869018190385759 210.72593177093568784 91.009497869018190385759 31.39534800087927735
94.009497869018218807469 211.26037114089095326 94.009497869018218807469 31.19402666466331553
97.009497869018190385759 211.76681374661183099 97.009497869018190385759 30.57386212001900461
99.504748934509109403734 212.15649902903163593 99.504748934509109403734 31.65735555998378103
nan nan nan nan

