Time Pressure difference Time.1 Pressure.1 difference.1
(hr) (psi) (hr) (psi)
0.000200000000006639311 0.57796859246994203 0.000200000000006639311 0.46457047131987600
0.000399999999999067768 1.14727997720292274 0.000399999999999067768 1.17811969150380258
0.000600000000005707079 1.70958393248646612 0.000600000000005707079 1.70626815978934387
0.000799999999998135536 2.26564663189280280 0.000799999999998135536 2.23397439202309034
0.001007140329434719206 2.83551638084797464 0.001007140329434719206 2.77769537195311944
0.001267914553963578328 3.54480930128825156 0.001267914553963578328 3.45320402331663034
0.001596209851982166583 4.42575475744322500 0.001596209851982166583 4.28293759631769611
0.002009509145224797066 5.51714241564111063 0.002009509145224797066 5.29738810756521783
0.002529822128138903281 6.86524148594776040 0.002529822128138903281 6.53087224900680940
0.003184857364431081805 8.52464165266509788 0.003184857364431081805 8.02092613554306766
0.004009497869020606231 10.55889303535011159 0.004009497869020606231 9.80704307368558581
0.005047658755842121536 13.04076506116148515 0.005047658755842121536 11.92846197264347197
0.006354625877790454069 16.05186687789713673 0.006354625877790454069 14.42075329786123916
0.008000000000009777068 19.68133256567270806 0.008000000000009777068 17.31101385178712704
0.010071403294347192059 24.02322682502356344 0.010071403294347192059 20.61147030127540702
0.012679145539706837553 29.17228227501082927 0.012679145539706837553 24.31176682522189836
0.015962098519750611558 35.21775096668110194 0.015962098519750611558 28.37071875620953421
0.020095091452091651263 42.23534158901151869 0.020095091452091651263 32.70904313778673611
0.025298221281360611101 50.27772123311464725 0.025298221281360611101 37.20487812963968111
0.031848573644296607199 59.36438829536083261 0.031848573644296607199 41.69694927787522687
0.040094978690177640601 69.47363287011482669 0.040094978690177640601 45.99478042667632138
0.050476587558421215363 80.53711451778815444 0.050476587558421215363 49.90197138362982798
0.063546258777961384112 92.44254496815403854 0.063546258777961384112 53.24563202503974679
0.079999999999998294697 105.04182238052230502 0.079999999999998294697 55.90772226823044377
0.100714032943542974863 118.16814206515923047 0.100714032943542974863 57.85237765560161449
0.126791455396897845276 131.65669983773557306 0.126791455396897845276 59.13083502727312180
0.159620985197506115583 145.36404578553865008 0.159620985197506115583 59.87048337288550925
0.200950914520760193227 159.18370608791511245 0.200950914520760193227 60.24581064129161945
0.252982212813478213320 173.05211086459843273 0.252982212813478213320 60.43956088693789752
0.318485736442795541734 186.94627919121859350 0.318485736442795541734 60.61121945070077288
0.400949786901833249431 200.87518325370319872 0.400949786901833249431 60.87754956851051702
0.504765875584155310207 214.86841756401733505 0.504765875584155310207 61.30427779974233715
0.635462587779443310865 228.96368376567747305 0.635462587779443310865 61.92230150542393829
0.799999999999997157829 243.20281997828030285 0.799999999999997157829 62.73047140286767842
1.007140329435344483500 257.62050133593237433 1.007140329435344483500 63.71049000078083679
1.267914553968893187630 272.24696591346736341 1.267914553968893187630 64.84924769003218614
1.596209851975103788391 287.10678478177601392 1.596209851975103788391 66.13328988200767355
2.009509145207672986544 302.21882170608631668 2.009509145207672986544 67.55664523306496960
2.529822128134711078928 317.59826285921121780 2.529822128134711078928 69.12205750950907657
3.184857364427998049905 333.25674144140737098 3.184857364427998049905 70.83642715462312367
4.009497869018190385759 349.20181302134983525 4.009497869018190385759 72.69550088346420580
5.009497869018204596614 364.89090095034282513 5.009497869018204596614 74.59766935626937823
6.009497869018204596614 377.89723546168585244 6.009497869018204596614 76.22627053267463282
7.009497869018204596614 389.01630076222915022 7.009497869018204596614 77.64584860840034253
8.009497869018204596614 398.72536978982776645 8.009497869018204596614 78.90114250897845238
9.009497869018204596614 407.34173866806378328 9.009497869018204596614 80.01715909083598888
10.009497869018190385759 415.08108078176530853 10.009497869018190385759 81.00529520214355728
11.009497869018190385759 422.09922645305516653 11.009497869018190385759 81.91395296153663708
12.009497869018190385759 428.51601801886619114 12.009497869018190385759 82.70149321890160365
13.009497869018190385759 434.42695021184039206 13.009497869018190385759 83.45191332423837594
14.009497869018190385759 439.88824201348171528 14.009497869018190385759 84.18572324149613451
15.009497869018190385759 444.97625922124586850 15.009497869018190385759 84.79445633821002559
16.009497869018204596614 449.73506317140146393 16.009497869018204596614 85.33889448852525561
17.009497869018204596614 454.18700633710625425 17.009497869018204596614 85.94310390602649363
18.009497869018204596614 458.36528336098859882 18.009497869018204596614 86.37851695660403095
19.009497869018204596614 462.32183555528223451 19.009497869018204596614 86.80061428871835005
20.009497869018204596614 466.06534222813166934 20.009497869018204596614 87.20503890258855506
21.009497869018204596614 469.60673636582185964 21.009497869018204596614 87.69539522347602656
22.009497869018190385759 472.95336906390929244 22.009497869018190385759 88.13871874691892572
23.009497869018190385759 476.15043033127562921 23.009497869018190385759 88.42117660220304742
24.009497869018190385759 479.21337641263329488 24.009497869018190385759 88.71217769508294282
25.009497869018190385759 482.13979736320726488 25.009497869018190385759 89.10556252136179012
26.009497869018190385759 484.93469644135950603 26.009497869018190385759 89.35387293171427814
27.009497869018204596614 487.59792597258484648 27.009497869018204596614 89.66033718587398482
28.009497869018190385759 490.14490876864897473 28.009497869018190385759 89.87316386337516860
29.009497869018190385759 492.59853895728485895 29.009497869018190385759 89.78910944658187532
30.009497869018190385759 494.96405999130104192 30.009497869018190385759 89.77583924017730510
31.009497869018190385759 497.23808470134173376 31.009497869018190385759 89.81449356671691930
32.009497869018190385759 499.42193704975909441 32.009497869018190385759 89.91586959032063930
33.009497869018218807469 501.50564984983617478 33.009497869018218807469 89.87016591083340700
34.009497869018190385759 503.49983656964701595 34.009497869018190385759 89.94495334445521451
35.009497869018218807469 505.41947500583029296 35.009497869018218807469 89.97097330196798737
36.009497869018190385759 507.27708451871973239 36.009497869018190385759 89.91322420664174331
37.009497869018218807469 509.08456041339258036 37.009497869018218807469 89.84818801499461927
38.009497869018190385759 510.83529146163198220 38.009497869018190385759 89.89884405595391570
39.009497869018190385759 512.52943664746078412 39.009497869018190385759 90.09676343096799656
40.009497869018190385759 514.16775290713667346 40.009497869018190385759 90.32883941204998735
41.009497869018190385759 515.75324844842475613 41.009497869018190385759 90.49956627391341613
42.009497869018190385759 517.28609648464293969 42.009497869018190385759 90.72189827878092672
43.009497869018190385759 518.77044011717782723 43.009497869018190385759 90.85306101237367216
44.009497869018218807469 520.21814371523839782 44.009497869018218807469 90.92590501919703172
46.009497869018218807469 523.01028855643869520 46.009497869018218807469 91.11623815022622352
48.009497869018218807469 525.67321890607638579 48.009497869018218807469 91.26867651989698516
50.009497869018218807469 528.19350672168673100 50.009497869018218807469 91.60066253411555692
52.009497869018190385759 530.57684602719905342 52.009497869018190385759 91.70398360551679673
54.009497869018190385759 532.82569688385444806 54.009497869018190385759 91.67530286563260233
56.009497869018190385759 534.97134014345976993 56.009497869018190385759 91.41557625317885538
58.009497869018190385759 537.02853846280493144 58.009497869018190385759 90.41272371126343899
60.009497869018190385759 538.99592532710232717 60.009497869018190385759 89.73172590436587370
62.009497869018190385759 540.86129723018552795 62.009497869018190385759 89.06718918754721415
64.009497869018190385759 542.62247539208419767 64.009497869018190385759 88.42104545781482727
66.009497869018218807469 544.28800589267609666 66.009497869018218807469 87.80390877241003977
68.009497869018218807469 545.82270029127801081 68.009497869018218807469 86.94412939183513345
70.009497869018218807469 547.27295916532091269 70.009497869018218807469 86.38009498201218150
72.009497869018218807469 548.65861698729713680 72.009497869018218807469 85.95301570942645242
74.009497869018190385759 549.99214416683651052 74.009497869018190385759 85.38568988291905271
76.009497869018190385759 551.26819325053747889 76.009497869018190385759 84.82921845396401750
78.009497869018190385759 552.48480058919415114 78.009497869018190385759 84.69317742382943948
80.009497869018190385759 553.65455770775190558 80.009497869018190385759 84.28465239393155173
82.009497869018190385759 554.80706888641225305 82.009497869018190385759 83.92183092785103327
84.009497869018190385759 555.92141954557394001 84.009497869018190385759 83.86512680424678479
86.009497869018190385759 557.00094701516172790 86.009497869018190385759 83.81447495020893257
88.009497869018218807469 558.04358130642867764 88.009497869018218807469 83.69761959092105030
91.009497869018190385759 559.54120519479511131 91.009497869018190385759 83.36416268415293018
94.009497869018218807469 560.96030367335060873 94.009497869018218807469 82.82959353003401759
97.009497869018190385759 562.30506225899569017 97.009497869018190385759 81.18286873535349457
99.504748934509109403734 563.33979477026957738 99.504748934509109403734 84.05987214980541467
nan nan nan nan

