Time Pressure difference Time.1 Pressure.1 difference.1
(hr) (psi) (hr) (psi)
0.000200000000006639311 0.05688991851701283 0.000200000000006639311 0.04572804924546568
0.000399999999999067768 0.11292770103709225 0.000399999999999067768 0.11596327919224304
0.000600000000005707079 0.16827573657855374 0.000600000000005707079 0.16794936237584129
0.000799999999998135536 0.22300944022910610 0.000799999999998135536 0.21989191590526852
0.001007140329434719206 0.27910218299359524 0.001007140329434719206 0.27341081407241835
0.001267914553963578328 0.34891846189570525 0.001267914553963578328 0.33990167989849857
0.001596209851982166583 0.43563063946302782 0.001596209851982166583 0.42157303016536524
0.002009509145224797066 0.54305681409306217 0.002009509145224797066 0.52142621886162621
0.002529822128138903281 0.67575130175520037 0.002529822128138903281 0.64283906587941497
0.003184857364431081805 0.83908740946346894 0.003184857364431081805 0.78950628152991686
0.004009497869020606231 1.03932042715999651 0.004009497869020606231 0.96531522408602755
0.005047658755842121536 1.28361310873058843 0.005047658755842121536 1.17412821128730305
0.006354625877790454069 1.57999830895135873 0.006354625877790454069 1.41944647297064974
0.008000000000009777068 1.93724956780515933 0.008000000000009777068 1.70393716943411078
0.010071403294347192059 2.36462575025196253 0.010071403294347192059 2.02880378143795026
0.012679145539706837553 2.87145146501533155 0.012679145539706837553 2.39302697709031520
0.015962098519750611558 3.46651186405277567 0.015962098519750611558 2.79255291608909806
0.020095091452091651263 4.15725901518087682 0.020095091452091651263 3.21957771256388714
0.025298221281360611101 4.94887698300272660 0.025298221281360611101 3.66210640648379160
0.031848573644296607199 5.84328501052767191 0.031848573644296607199 4.10426462221596378
0.040094978690177640601 6.83834617409118906 0.040094978690177640601 4.52730363686257586
0.050476587558421215363 7.92733366865532396 0.050476587558421215363 4.91189161978667244
0.063546258777961384112 9.09919486847736003 0.063546258777961384112 5.24101085553173007
0.079999999999998294697 10.33935198895298058 0.079999999999998294697 5.50304256277874515
0.100714032943542974863 11.63138630883878299 0.100714032943542974863 5.69445657380386727
0.126791455396897845276 12.95907601826498556 0.126791455396897845276 5.82029617244200459
0.159620985197506115583 14.30830122568069562 0.159620985197506115583 5.89310036052653352
0.200950914520760193227 15.66858162634257035 0.200950914520760193227 5.93004412874339781
0.252982212813478213320 17.03365998524578018 0.252982212813478213320 5.94911512296535605
0.318485736442795541734 18.40127427131823623 0.318485736442795541734 5.96601161497625299
0.400949786901833249431 19.77230762411629428 0.400949786901833249431 5.99222670503170640
0.504765875584155310207 21.14967305551668275 0.504765875584155310207 6.03422991181486701
0.635462587779443310865 22.53708156894685644 0.635462587779443310865 6.09506248769508208
0.799999999999997157829 23.93865132453828792 0.799999999999997157829 6.17461130784289569
1.007140329435344483500 25.35779542393628461 1.007140329435344483500 6.27107533531223549
1.267914553968893187630 26.79749022543401793 1.267914553968893187630 6.38316418061657753
1.596209851975103788391 28.26015427951860914 1.596209851975103788391 6.50955349765838776
2.009509145207672986544 29.74764436194002570 2.009509145207672986544 6.64965552222750844
2.529822128134711078928 31.26145526003648456 2.529822128134711078928 6.80374032547236318
3.184857364427998049905 32.80273203916848246 3.184857364427998049905 6.97248712363622758
4.009497869018190385759 34.37221840010433027 4.009497869018190385759 7.15547726242372484
5.009497869018204596614 35.91650808213074697 5.009497869018204596614 7.34270925190097934
6.009497869018204596614 37.19673216384639147 6.009497869018204596614 7.50301378994942958
7.009497869018204596614 38.29119080255892982 7.009497869018204596614 7.64274401423626681
8.009497869018204596614 39.24686236162356323 8.009497869018204596614 7.76630361357990484
9.009497869018204596614 40.09497855648559295 9.009497869018204596614 7.87615403319213048
10.009497869018190385759 40.85676829378289199 10.009497869018190385759 7.97341707410542888
11.009497869018190385759 41.54757007883139863 11.009497869018190385759 8.06285699621401974
12.009497869018190385759 42.17918009030208992 12.009497869018190385759 8.14037522411442183
13.009497869018190385759 42.76099795237801260 13.009497869018190385759 8.21423968526739934
14.009497869018190385759 43.29855734512159415 14.009497869018190385759 8.28646919210161492
15.009497869018190385759 43.79937501607128070 15.009497869018190385759 8.34638728578672051
16.009497869018204596614 44.26778795838331604 16.009497869018204596614 8.39997677561803613
17.009497869018204596614 44.70599634416595336 17.009497869018204596614 8.45944959987992640
18.009497869018204596614 45.11726754908447390 18.009497869018204596614 8.50230766049312159
19.009497869018204596614 45.50671419873677337 19.009497869018204596614 8.54385504411065000
20.009497869018204596614 45.87519060448086350 20.009497869018204596614 8.58366288770129948
21.009497869018204596614 46.22377290904666580 21.009497869018204596614 8.63192905908679897
22.009497869018190385759 46.55318468674713728 22.009497869018190385759 8.67556575397632734
23.009497869018190385759 46.86787402690158899 23.009497869018190385759 8.70336831034523684
24.009497869018190385759 47.16936230024493426 24.009497869018190385759 8.73201178453740745
25.009497869018190385759 47.45741229395334670 25.009497869018190385759 8.77073297285872044
26.009497869018190385759 47.73251648281570425 26.009497869018190385759 8.79517436845689815
27.009497869018204596614 47.99466033111035301 27.009497869018204596614 8.82533989418731046
28.009497869018190385759 48.24536191874005198 28.009497869018190385759 8.84628859710825566
29.009497869018190385759 48.48687473331334274 29.009497869018190385759 8.83801505251661901
30.009497869018190385759 48.71971489215374618 30.009497869018190385759 8.83670885530989025
31.009497869018190385759 48.94354899342736331 31.009497869018190385759 8.84051363210195085
32.009497869018190385759 49.15850735582507980 32.009497869018190385759 8.85049215653655530
33.009497869018218807469 49.36360890105378019 33.009497869018218807469 8.84599350620186264
34.009497869018190385759 49.55989832140605245 34.009497869018190385759 8.85335489410472043
35.009497869018218807469 49.74884989358385923 35.009497869018218807469 8.85591605968016005
36.009497869018190385759 49.93169590840464878 36.009497869018190385759 8.85023176927001565
37.009497869018218807469 50.10960723041952747 37.009497869018218807469 8.84383020404369269
38.009497869018190385759 50.28193311105935948 38.009497869018190385759 8.84881631934496404
39.009497869018190385759 50.44868919925078643 39.009497869018190385759 8.86829768436061627
40.009497869018190385759 50.60995000084513151 40.009497869018190385759 8.89114111188509071
41.009497869018190385759 50.76601161617875846 41.009497869018190385759 8.90794589572043627
42.009497869018190385759 50.91689109477940889 42.009497869018190385759 8.92983021574305802
43.009497869018190385759 51.06299624548540805 43.009497869018190385759 8.94274067026217168
44.009497869018218807469 51.20549488780520164 44.009497869018218807469 8.94991076508501493
46.009497869018218807469 51.48032797488482970 46.009497869018218807469 8.96864540993667703
48.009497869018218807469 51.74244237449253347 48.009497869018218807469 8.98365004261468059
50.009497869018218807469 51.99051635348985911 50.009497869018218807469 9.01632769594004913
52.009497869018190385759 52.22511037928207145 52.009497869018190385759 9.02649767301092432
54.009497869018190385759 52.44646659769751551 54.009497869018190385759 9.02367460446312286
56.009497869018190385759 52.65766400841474137 56.009497869018190385759 8.99810950280933142
58.009497869018190385759 52.86015571174542771 58.009497869018190385759 8.89939791166501948
60.009497869018190385759 53.05380720052789911 60.009497869018190385759 8.83236674379635645
62.009497869018190385759 53.23741727372725308 62.009497869018190385759 8.76695585440906910
64.009497869018190385759 53.41077147225934851 64.009497869018190385759 8.70335540169646649
66.009497869018218807469 53.57471099371561962 66.009497869018218807469 8.64261013594335559
68.009497869018218807469 53.72577221126702085 68.009497869018218807469 8.55798135240602420
70.009497869018218807469 53.86852237147952138 70.009497869018218807469 8.50246298681717683
72.009497869018218807469 54.00491379760841681 72.009497869018218807469 8.46042522674810904
74.009497869018190385759 54.13617396221358291 74.009497869018190385759 8.40458288433868006
76.009497869018190385759 54.26177651110853617 76.009497869018190385759 8.34980894910630234
78.009497869018190385759 54.38152816070526541 78.009497869018190385759 8.33641831989191218
80.009497869018190385759 54.49666830504263260 80.009497869018190385759 8.29620686901751370
82.009497869018190385759 54.61011091749278989 82.009497869018190385759 8.26049405709232687
84.009497869018190385759 54.71979735897945574 84.009497869018190385759 8.25491262409846982
86.009497869018190385759 54.82605612560080033 86.009497869018190385759 8.24992692091928248
88.009497869018218807469 54.92868346668127799 88.009497869018218807469 8.23842475288666520
91.009497869018190385759 55.07609580376728076 91.009497869018190385759 8.20560231841163024
94.009497869018218807469 55.21577882091468581 94.009497869018218807469 8.15298424190063997
97.009497869018190385759 55.34814450195536750 97.009497869018190385759 7.99089578136860368
99.504748934509109403734 55.44999406440599898 99.504748934509109403734 8.27408156681394225
nan nan nan nan

