Time Pressure difference Time.1 Pressure.1 difference.1
(hr) (psi) (hr) (psi)
0.000200000000006639311 0.79563436766546936 0.000200000000006639311 0.63952996408513607
0.000399999999999067768 1.57935118117092776 0.000399999999999067768 1.62180528145673231
0.000600000000005707079 2.35342153330875892 0.000600000000005707079 2.34885702453169332
0.000799999999998135536 3.11890014233460011 0.000799999999998135536 3.07529998331281362
0.001007140329434719206 3.90338560273651280 0.001007140329434719206 3.82378892144758975
0.001267914553963578328 4.87980167723703673 0.001267914553963578328 4.75369740727610335
0.001596209851982166583 6.09251546495393992 0.001596209851982166583 5.89591266825474580
0.002009509145224797066 7.59492500869282772 0.002009509145224797066 7.29241016234013539
0.002529822128138903281 9.45072472744591785 0.002529822128138903281 8.99043041411065680
0.003184857364431081805 11.73506304539489165 0.003184857364431081805 11.04164582139666173
0.004009497869020606231 14.53542336535357649 0.004009497869020606231 13.50042306149299520
0.005047658755842121536 17.95198043369591190 0.005047658755842121536 16.42077860713402515
0.006354625877790454069 22.09707779910233683 0.006354625877790454069 19.85167893357502678
0.008000000000009777068 27.09341786857940448 0.008000000000009777068 23.83042563049155049
0.010071403294347192059 33.07049056511803542 0.010071403294347192059 28.37384998677713099
0.012679145539706837553 40.15870527159123071 0.012679145539706837553 33.46769612887180045
0.015962098519750611558 48.48092679436128094 0.015962098519750611558 39.05526904385477849
0.020095091452091651263 58.14137608187748185 0.020095091452091651263 45.02742742933552478
0.025298221281360611101 69.21255490721203785 0.025298221281360611101 51.21641568488201557
0.031848573644296607199 81.72130485737974936 0.031848573644296607199 57.40022261504934420
0.040094978690177640601 95.63773997098547852 0.040094978690177640601 63.31663781988966377
0.050476587558421215363 110.86778246742592557 0.050476587558421215363 68.69529584194405913
0.063546258777961384112 127.25685576928482590 0.063546258777961384112 73.29819529837853054
0.079999999999998294697 144.60108216434238670 0.079999999999998294697 76.96284163886217300
0.100714032943542974863 162.67083750767284300 0.100714032943542974863 79.63986367711206071
0.126791455396897845276 181.23925155979290480 0.126791455396897845276 81.39979429574687231
0.159620985197506115583 200.10885047509958667 0.159620985197506115583 82.41799779576963658
0.200950914520760193227 219.13306187566061567 0.200950914520760193227 82.93467513387506074
0.252982212813478213320 238.22437515597357560 0.252982212813478213320 83.20139266176187220
0.318485736442795541734 257.35115466408836937 0.318485736442795541734 83.43769867321860545
0.400949786901833249431 276.52575155466990964 0.400949786901833249431 83.80433000515357378
0.504765875584155310207 295.78890577642897597 0.504765875584155310207 84.39176615799053138
0.635462587779443310865 315.19251759469153740 0.635462587779443310865 85.24254058877903617
0.799999999999997157829 334.79418156781810012 0.799999999999997157829 86.35507118939702309
1.007140329435344483500 354.64163165360162111 1.007140329435344483500 87.70416954458417536
1.267914553968893187630 374.77649373251927045 1.267914553968893187630 89.27178890282604584
1.596209851975103788391 395.23259245993415334 1.596209851975103788391 91.03940761217889133
2.009509145207672986544 416.03589578655248715 2.009509145207672986544 92.99880549202239877
2.529822128134711078928 437.20730907152477585 2.529822128134711078928 95.15375962435986423
3.184857364427998049905 458.76284663474763192 3.184857364427998049905 97.51376919288347267
4.009497869018190385759 480.71290950870547931 4.009497869018190385759 100.07297910491151072
5.009497869018204596614 502.31058404719084365 5.009497869018204596614 102.69151345049918689
6.009497869018204596614 520.21516721901127767 6.009497869018204596614 104.93345372900289192
7.009497869018204596614 535.52172644158508774 7.009497869018204596614 106.88765179330432886
8.009497869018204596614 548.88727795603961113 8.009497869018204596614 108.61569546528419039
9.009497869018204596614 560.74861314505210430 9.009497869018204596614 110.15200930478849273
10.009497869018190385759 571.40262903623909096 10.009497869018190385759 111.51228226828607148
11.009497869018190385759 581.06384240684485576 11.009497869018190385759 112.76314494705114555
12.009497869018190385759 589.89722879915245812 12.009497869018190385759 113.84727668507851206
13.009497869018190385759 598.03424672528672090 13.009497869018190385759 114.88030864178320201
14.009497869018190385759 605.55228750786000091 14.009497869018190385759 115.89047493301535496
15.009497869018190385759 612.55647667404036838 15.009497869018190385759 116.72845986643747551
16.009497869018204596614 619.10746927304194287 16.009497869018204596614 117.47793606480297512
17.009497869018204596614 625.23603582782823196 17.009497869018204596614 118.30969367948013371
18.009497869018204596614 630.98787224444220101 18.009497869018204596614 118.90908539675163524
19.009497869018204596614 636.43448118523167523 19.009497869018204596614 119.49014663140258108
20.009497869018204596614 641.58781062788455074 20.009497869018204596614 120.04687951640222821
21.009497869018204596614 646.46291097434823314 21.009497869018204596614 120.72190640606898171
22.009497869018190385759 651.06990177842010326 22.009497869018190385759 121.33218771865445262
23.009497869018190385759 655.47099182550778096 23.009497869018190385759 121.72102057221960081
24.009497869018190385759 659.68745825704866093 24.009497869018190385759 122.12161408809562602
25.009497869018190385759 663.71598353137653703 25.009497869018190385759 122.66314954795167580
26.009497869018190385759 667.56345515821965364 26.009497869018190385759 123.00497486320153939
27.009497869018204596614 671.22966984813751878 27.009497869018204596614 123.42685504189500989
28.009497869018190385759 674.73585871861087071 28.009497869018190385759 123.71983327839805611
29.009497869018190385759 678.11353793691853298 29.009497869018190385759 123.60412356055852001
30.009497869018190385759 681.36992566562844331 30.009497869018190385759 123.58585573005861136
31.009497869018190385759 684.50035911097688768 31.009497869018190385759 123.63906746345482190
32.009497869018190385759 687.50666084595945904 32.009497869018190385759 123.77862218924312288
33.009497869018218807469 690.37510999299843206 33.009497869018218807469 123.71570628238836775
34.009497869018190385759 693.12031710372241378 34.009497869018190385759 123.81865902624720377
35.009497869018218807469 695.76290068562934721 35.009497869018218807469 123.85447822596162837
36.009497869018190385759 698.32009495087663709 36.009497869018190385759 123.77498054124006899
37.009497869018218807469 700.80827503412820079 37.009497869018218807469 123.68545140437919372
38.009497869018190385759 703.21833988655475878 38.009497869018190385759 123.75518475605638002
39.009497869018190385759 705.55050836633336075 39.009497869018190385759 124.02764152765209360
40.009497869018190385759 707.80582247558777453 40.009497869018190385759 124.34711844882772880
41.009497869018190385759 709.98842332771732799 41.009497869018190385759 124.58214187493072700
42.009497869018190385759 712.09854936901649580 42.009497869018190385759 124.88820519118914376
43.009497869018190385759 714.14190401294808908 43.009497869018190385759 125.06876444642023216
44.009497869018218807469 716.13481980771041435 44.009497869018218807469 125.16904185952230932
46.009497869018218807469 719.97849993860677387 46.009497869018218807469 125.43105537085351386
48.009497869018218807469 723.64430277369990563 48.009497869018218807469 125.64090276990097550
50.009497869018218807469 727.11374320460447507 50.009497869018218807469 126.09791632727747412
52.009497869018190385759 730.39465965227816469 52.009497869018190385759 126.24014861529772702
54.009497869018190385759 733.49043864895793376 54.009497869018190385759 126.20066656966540108
56.009497869018190385759 736.44414156695972906 56.009497869018190385759 125.84312565523195815
58.009497869018190385759 739.27609075122222748 58.009497869018190385759 124.46259398198178303
60.009497869018190385759 741.98440505086125540 60.009497869018190385759 123.52512909802149466
62.009497869018190385759 744.55228506009848388 62.009497869018190385759 122.61032463050365493
64.009497869018190385759 746.97673145985902465 64.009497869018190385759 121.72084003821868237
66.009497869018218807469 749.26950882515313879 66.009497869018218807469 120.87128668384548291
68.009497869018218807469 751.38217657786492509 68.009497869018218807469 119.68771021843208757
70.009497869018218807469 753.37860997793825391 70.009497869018218807469 118.91125771418225554
72.009497869018218807469 755.28611325640758878 72.009497869018218807469 118.32333831611488506
74.009497869018190385759 757.12185323965377393 74.009497869018190385759 117.54235483169313170
76.009497869018190385759 758.87846859738749572 76.009497869018190385759 116.77631356358813264
78.009497869018190385759 760.55325616058814830 78.009497869018190385759 116.58903882167675192
80.009497869018190385759 762.16354948356729437 80.009497869018190385759 116.02666128408552026
82.009497869018190385759 763.75010196203686519 82.009497869018190385759 115.52719949411731193
84.009497869018190385759 765.28412248427787290 84.009497869018190385759 115.44914032253659286
86.009497869018190385759 766.77020523485180092 86.009497869018190385759 115.37941273459574631
88.009497869018218807469 768.20550065720931343 88.009497869018218807469 115.21854908022655195
91.009497869018190385759 770.26713696573085599 91.009497869018190385759 114.75951068503219687
94.009497869018218807469 772.22067481424164725 94.009497869018218807469 114.02362019469734378
97.009497869018190385759 774.07187600560757801 97.009497869018190385759 111.75673085537249563
99.504748934509109403734 775.49629379930127016 99.504748934509109403734 115.71722770978919925
nan nan nan nan

