Time Pressure difference Time.1 Pressure.1 difference.1
(hr) (psi) (hr) (psi)
0.000200000000006639311 0.80305479181986228 0.000200000000006639311 0.64549449224758804
0.000399999999999067768 1.59408088130620063 0.000399999999999067768 1.63693092656876416
0.000600000000005707079 2.37537054242770074 0.000600000000005707079 2.37076346310245523
0.000799999999998135536 3.14798833019057023 0.000799999999998135536 3.10398153756132666
0.001007140329434719206 3.93979023530089467 0.001007140329434719206 3.85945120154399257
0.001267914553963578328 4.92531278096256298 0.001267914553963578328 4.79803240900199413
0.001596209851982166583 6.14933685270998698 0.001596209851982166583 5.95090045479805418
0.002009509145224797066 7.66575850618322630 0.002009509145224797066 7.36042227784382508
0.002529822128138903281 9.53886620158790066 0.002529822128138903281 9.07427898792101573
0.003184857364431081805 11.84450922923795169 0.003184857364431081805 11.14462490159621666
0.004009497869020606231 14.67098689933096800 0.004009497869020606231 13.62633374289552179
0.005047658755842121536 18.11940823048685800 0.005047658755842121536 16.57392576512802052
0.006354625877790454069 22.30316453505251317 0.006354625877790454069 20.03682412570163507
0.008000000000009777068 27.34610259481485883 0.008000000000009777068 24.05267830476556412
0.010071403294347192059 33.37892001080306414 0.010071403294347192059 28.63847656696469102
0.012679145539706837553 40.53324241920192605 0.012679145539706837553 33.77983008240531859
0.015962098519750611558 48.93308051575947815 0.015962098519750611558 39.41951507638813723
0.020095091452091651263 58.68362725777063815 0.020095091452091651263 45.44737234836559736
0.025298221281360611101 69.85806060064717826 0.025298221281360611101 51.69408173790163374
0.031848573644296607199 82.48347246744857841 0.031848573644296607199 57.93556147881664486
0.040094978690177640601 96.52969816760605681 0.040094978690177640601 63.90715568556738191
0.050476587558421215363 111.90178251116357444 0.050476587558421215363 69.33597735756839597
0.063546258777961384112 128.44370727386882436 0.063546258777961384112 73.98180540996963828
0.079999999999998294697 145.94969329333628139 0.079999999999998294697 77.68062979922460443
0.100714032943542974863 164.18797485230399502 0.100714032943542974863 80.38261888239082964
0.126791455396897845276 182.92956582304486801 0.126791455396897845276 82.15896336171756786
0.159620985197506115583 201.97515063497098708 0.159620985197506115583 83.18666306018613454
0.200950914520760193227 221.17678991387921883 0.200950914520760193227 83.70815915066766877
0.252982212813478213320 240.44615689317956253 0.252982212813478213320 83.97736419953994869
0.318485736442795541734 259.75132087339079590 0.318485736442795541734 84.21587410125897577
0.400949786901833249431 279.10474820129377349 0.400949786901833249431 84.58592479276640574
0.504765875584155310207 298.54755878367029709 0.504765875584155310207 85.17883962474898851
0.635462587779443310865 318.13213692977154778 0.635462587779443310865 86.03754873934796876
0.799999999999997157829 337.91661434927959817 0.799999999999997157829 87.16045527302870255
1.007140329435344483500 357.94917018715858603 1.007140329435344483500 88.52213589266838767
1.267914553968893187630 378.27181854453237975 1.267914553968893187630 90.10437553508037922
1.596209851975103788391 398.91869953987139752 1.596209851975103788391 91.88847980752564126
2.009509145207672986544 419.91602331202290088 2.009509145207672986544 93.86615186448685222
2.529822128134711078928 441.28489019239907520 2.529822128134711078928 96.04120401463886481
3.184857364427998049905 463.04146385724789070 3.184857364427998049905 98.42322403509689366
4.009497869018190385759 485.19624234350175129 4.009497869018190385759 101.00630222609720477
5.009497869018204596614 506.99534597094708488 5.009497869018204596614 103.64925813552976308
6.009497869018204596614 525.06691489255638317 6.009497869018204596614 105.91210770160498100
7.009497869018204596614 540.51622958974496669 7.009497869018204596614 107.88453144733513511
8.009497869018204596614 554.00643391625146705 8.009497869018204596614 109.62869158879460940
9.009497869018204596614 565.97839295676760685 9.009497869018204596614 111.17933374390051426
10.009497869018190385759 576.73177272673240168 10.009497869018190385759 112.55229319099547070
11.009497869018190385759 586.48309067799675631 11.009497869018190385759 113.81482194655731632
12.009497869018190385759 595.39886098484407739 12.009497869018190385759 114.90906475778908202
13.009497869018190385759 603.61176819733589127 13.009497869018190385759 115.95173120942676803
14.009497869018190385759 611.19992542244108336 14.009497869018190385759 116.97131874068078616
15.009497869018190385759 618.26943863265830714 15.009497869018190385759 117.81711907762704072
16.009497869018204596614 624.88152857196155310 16.009497869018204596614 118.57358520944879388
17.009497869018204596614 631.06725274228460876 17.009497869018204596614 119.41310014902968817
18.009497869018204596614 636.87273322910539264 18.009497869018204596614 120.01808204812029146
19.009497869018204596614 642.37013955897987216 19.009497869018204596614 120.60456250672136491
20.009497869018204596614 647.57153114151253703 20.009497869018204596614 121.16648771914587712
21.009497869018204596614 652.49209874509347173 21.009497869018204596614 121.84781019638464272
22.009497869018190385759 657.14205630277842829 22.009497869018190385759 122.46378325178179125
23.009497869018190385759 661.58419278553844833 23.009497869018190385759 122.85624252574289983
24.009497869018190385759 665.83998377447198891 24.009497869018190385759 123.26057214694831998
25.009497869018190385759 669.90608078710965856 25.009497869018190385759 123.80715819658540511
26.009497869018190385759 673.78943556902163436 26.009497869018190385759 124.15217151995678080
27.009497869018204596614 677.48984293480407359 27.009497869018204596614 124.57798633244117070
28.009497869018190385759 681.02873201235956913 28.009497869018190385759 124.87369700845566456
29.009497869018190385759 684.43791290213323464 29.009497869018190385759 124.75690813262589529
30.009497869018190385759 687.72467108634407396 30.009497869018190385759 124.73846992857730243
31.009497869018190385759 690.88430028403251981 31.009497869018190385759 124.79217793720724217
32.009497869018190385759 693.91864006628441075 32.009497869018190385759 124.93303420966091721
33.009497869018218807469 696.81384158878802282 33.009497869018218807469 124.86953152232774755
34.009497869018190385759 699.58465166738403695 34.009497869018190385759 124.97344444721737489
35.009497869018218807469 702.25188110653164131 35.009497869018218807469 125.00959771200687953
36.009497869018190385759 704.83292485197296173 36.009497869018190385759 124.92935859810138766
37.009497869018218807469 707.34431075983502524 37.009497869018218807469 124.83899447447183206
38.009497869018190385759 709.77685290104079741 38.009497869018190385759 124.90937818901441858
39.009497869018190385759 712.13077217493139415 39.009497869018190385759 125.18437600822088029
40.009497869018190385759 714.40712030178485747 40.009497869018190385759 125.50683250689969839
41.009497869018190385759 716.61007701678420290 41.009497869018190385759 125.74404786132905087
42.009497869018190385759 718.73988299007453406 42.009497869018190385759 126.05296565411214260
43.009497869018190385759 720.80229482757670212 43.009497869018190385759 126.23520888167183784
44.009497869018218807469 722.81379740177203530 44.009497869018218807469 126.33642152453340657
46.009497869018218807469 726.69332532663520396 46.009497869018218807469 126.60087868519306653
48.009497869018218807469 730.39331699645981644 48.009497869018218807469 126.81268321024202805
50.009497869018218807469 733.89511490288589357 50.009497869018218807469 127.27395907022618360
52.009497869018190385759 737.20663057131503137 52.009497869018190385759 127.41751787699480758
54.009497869018190385759 740.33128211822281628 54.009497869018190385759 127.37766760503016883
56.009497869018190385759 743.31253252457906910 56.009497869018190385759 127.01679211212012888
58.009497869018190385759 746.17089367014557411 58.009497869018190385759 125.62338501393807633
60.009497869018190385759 748.90446685962569973 60.009497869018190385759 124.67717693416885538
62.009497869018190385759 751.49629600884566116 62.009497869018190385759 123.75384061151352455
64.009497869018190385759 753.94335382580584337 64.009497869018190385759 122.85606030800519761
66.009497869018218807469 756.25751460694209527 66.009497869018218807469 121.99858365809896554
68.009497869018218807469 758.38988599672575219 68.009497869018218807469 120.80396865570243392
70.009497869018218807469 760.40493898291379082 70.009497869018218807469 120.02027462550623227
72.009497869018218807469 762.33023244740002156 72.009497869018218807469 119.42687204134288947
74.009497869018190385759 764.18309332168155379 74.009497869018190385759 118.63860477312860553
76.009497869018190385759 765.95609162057553476 76.009497869018190385759 117.86541907868895862
78.009497869018190385759 767.64649896415846797 78.009497869018190385759 117.67639773296700412
80.009497869018190385759 769.27181056683366478 80.009497869018190385759 117.10877522352258495
82.009497869018190385759 770.87315990779677577 82.009497869018190385759 116.60465524069458354
84.009497869018190385759 772.42148735718819808 84.009497869018190385759 116.52586805611464627
86.009497869018190385759 773.92142994688663293 86.009497869018190385759 116.45549015906348700
88.009497869018218807469 775.37011154416768477 88.009497869018218807469 116.29312622190742843
91.009497869018190385759 777.45097554883091107 91.009497869018190385759 115.82980663960763934
94.009497869018218807469 779.42273292131744711 94.009497869018218807469 115.08705292190177261
97.009497869018190385759 781.29119920151481438 97.009497869018190385759 112.79902160946404877
99.504748934509109403734 782.72890172074551174 99.504748934509109403734 116.79645574024318933
nan nan nan nan

