Time Pressure difference Time.1 Pressure.1 difference.1
(hr) (psi) (hr) (psi)
0.000200000000006639311 0.30093942403927076 0.000200000000006639311 0.24189475325499965
0.000399999999999067768 0.59737117215273439 0.000399999999999067768 0.61342894065461906
0.000600000000005707079 0.89015425871263931 0.000600000000005707079 0.88842778648089960
0.000799999999998135536 1.17968761860324256 0.000799999999998135536 1.16319636674526117
0.001007140329434719206 1.47641009844438065 0.001007140329434719206 1.44630358168743034
0.001267914553963578328 1.84572809553525219 0.001267914553963578328 1.79803062555002868
0.001596209851982166583 2.30442294788413271 0.001596209851982166583 2.23006023203417847
0.002009509145224797066 2.87269184266619870 0.002009509145224797066 2.75826912876077657
0.002529822128138903281 3.57462645131374135 0.002529822128138903281 3.40052549342009325
0.003184857364431081805 4.43865078919081402 0.003184857364431081805 4.17637380809303860
0.004009497869020606231 5.49785443352751813 0.004009497869020606231 5.10637763465797256
0.005047658755842121536 6.79012731429948868 0.005047658755842121536 6.21096807420095143
0.006354625877790454069 8.35796206909052053 0.006354625877790454069 7.50866612513459675
0.008000000000009777068 10.24776945288236440 0.008000000000009777068 9.01358067889058745
0.010071403294347192059 12.50852751944878705 0.010071403294347192059 10.73207797427321353
0.012679145539706837553 15.18956209754487041 0.012679145539706837553 12.65876589330384228
0.015962098519750611558 18.33734536781540569 0.015962098519750611558 14.77220020829740399
0.020095091452091651263 21.99129768900029092 0.020095091452091651263 17.03109949399737388
0.025298221281360611101 26.17884201153615820 0.025298221281360611101 19.37201215024034795
0.031848573644296607199 30.91013085279130479 0.031848573644296607199 21.71096503056270777
0.040094978690177640601 36.17386019627947746 0.040094978690177640601 23.94878010804116286
0.050476587558421215363 41.93444621824918528 0.050476587558421215363 25.98319480032080619
0.063546258777961384112 48.13342213035124928 0.063546258777961384112 27.72418785897219351
0.079999999999998294697 54.69367356475127195 0.079999999999998294697 29.11029761469916011
0.100714032943542974863 61.52834786559645863 0.100714032943542974863 30.12284999186103818
0.126791455396897845276 68.55163400966260667 0.126791455396897845276 30.78852323103379263
0.159620985197506115583 75.68883981700659547 0.159620985197506115583 31.17364683466934139
0.200950914520760193227 82.88452599442085500 0.200950914520760193227 31.36907401436724641
0.252982212813478213320 90.10559267557550811 0.252982212813478213320 31.46995680988920441
0.318485736442795541734 97.34007404392980334 0.318485736442795541734 31.55933680385988538
0.400949786901833249431 104.59264177974560539 0.400949786901833249431 31.69801083096481875
0.504765875584155310207 111.87870529367519623 0.504765875584155310207 31.92020170742647167
0.635462587779443310865 119.21789525602321191 0.635462587779443310865 32.24199721751746495
0.799999999999997157829 126.63199613705036484 0.799999999999997157829 32.66279894728488387
1.007140329435344483500 134.13906274980789135 1.007140329435344483500 33.17307967230386367
1.267914553968893187630 141.75483959831038305 1.267914553968893187630 33.76601341920363808
1.596209851975103788391 149.49212046412017685 1.596209851975103788391 34.43459458906248472
2.009509145207672986544 157.36072742185663742 2.009509145207672986544 35.17571399439189150
2.529822128134711078928 165.36856767990312278 2.529822128134711078928 35.99080027242627011
3.184857364427998049905 173.52169846806515352 3.184857364427998049905 36.88344637865540676
4.009497869018190385759 181.82405385562435640 4.009497869018190385759 37.85143769253129875
5.009497869018204596614 189.99312246344527466 5.009497869018204596614 38.84186778179503818
6.009497869018204596614 196.76532231599907163 6.009497869018204596614 39.68985555552958999
7.009497869018204596614 202.55484989759435166 7.009497869018204596614 40.42900819124982092
8.009497869018204596614 207.61021394192175649 8.009497869018204596614 41.08262056458935518
9.009497869018204596614 212.09662569735129978 9.009497869018204596614 41.66371336398735536
10.009497869018190385759 216.12638300334427299 10.009497869018190385759 42.17822075432582096
11.009497869018190385759 219.78062433005015919 11.009497869018190385759 42.65134497997271268
12.009497869018190385759 223.12174975304731106 12.009497869018190385759 43.06140517104005738
13.009497869018190385759 226.19948192199962023 13.009497869018190385759 43.45213746554493639
14.009497869018190385759 229.04309320245482695 14.009497869018190385759 43.83422108865347155
15.009497869018190385759 231.69234609950748904 15.009497869018190385759 44.15117912046599002
16.009497869018204596614 234.17018267840447265 16.009497869018204596614 44.43465975508091503
17.009497869018204596614 236.48824153073294951 17.009497869018204596614 44.74926237617642499
18.009497869018204596614 238.66380660022943516 18.009497869018204596614 44.97597530550709166
19.009497869018204596614 240.72392293534670671 19.009497869018204596614 45.19575494348387679
20.009497869018204596614 242.67310971935532393 20.009497869018204596614 45.40633266682571190
21.009497869018204596614 244.51705959133380475 21.009497869018204596614 45.66165371835769804
22.009497869018190385759 246.25960015453196661 22.009497869018190385759 45.89248551016464006
23.009497869018190385759 247.92426115679830900 23.009497869018190385759 46.03955700400016582
24.009497869018190385759 249.51909042883187340 24.009497869018190385759 46.19107683124860841
25.009497869018190385759 251.04283314917353209 25.009497869018190385759 46.39590630570192786
26.009497869018190385759 252.49809443808308629 26.009497869018190385759 46.52519774618504300
27.009497869018204596614 253.88479740369965043 27.009497869018204596614 46.68476900548360220
28.009497869018190385759 255.21097246869737774 28.009497869018190385759 46.79558460789149876
29.009497869018190385759 256.48854025593288952 29.009497869018190385759 46.75181875606617155
30.009497869018190385759 257.72023095124802694 30.009497869018190385759 46.74490916214652003
31.009497869018190385759 258.90428090726072696 31.009497869018190385759 46.76503587995959066
32.009497869018190385759 260.04137949095877502 32.009497869018190385759 46.81782082805568734
33.009497869018218807469 261.12633694035690723 33.009497869018218807469 46.79402361976347891
34.009497869018190385759 262.16467952627840532 34.009497869018190385759 46.83296429490179236
35.009497869018218807469 263.16420595881317013 35.009497869018218807469 46.84651248961243653
36.009497869018190385759 264.13143487779274210 36.009497869018190385759 46.81644341715298197
37.009497869018218807469 265.07255998700185273 37.009497869018218807469 46.78258006486881015
38.009497869018190385759 265.98413892082123766 38.009497869018190385759 46.80895589218712871
39.009497869018190385759 266.86625445980490667 39.009497869018190385759 46.91200948973369123
40.009497869018190385759 267.71930072910828358 40.009497869018190385759 47.03284791069649629
41.009497869018190385759 268.54484405659775348 41.009497869018190385759 47.12174278170954977
42.009497869018190385759 269.34297463180416798 42.009497869018190385759 47.23750766298864789
43.009497869018190385759 270.11584970437928632 43.009497869018190385759 47.30580209631438748
44.009497869018218807469 270.86964687027386844 44.009497869018218807469 47.34373085878304721
46.009497869018218807469 272.32347407004294837 46.009497869018218807469 47.44283441488241948
48.009497869018218807469 273.71002125637352265 48.009497869018218807469 47.52220674716462412
50.009497869018218807469 275.02229665251883262 50.009497869018218807469 47.69506679736402077
52.009497869018190385759 276.26326504982546339 52.009497869018190385759 47.74886450215924327
54.009497869018190385759 277.43420736463173171 54.009497869018190385759 47.73393087868173978
56.009497869018190385759 278.55141105900548837 56.009497869018190385759 47.59869519602037258
58.009497869018190385759 279.62256282300114663 58.009497869018190385759 47.07652518489466331
60.009497869018190385759 280.64695113322727593 60.009497869018190385759 46.72194002153144510
62.009497869018190385759 281.61822181029634748 62.009497869018190385759 46.37592589651174535
64.009497869018190385759 282.53524039673425250 64.009497869018190385759 46.03948871911899232
66.009497869018218807469 283.40245670588694793 66.009497869018218807469 45.71815506694674269
68.009497869018218807469 284.20154865380385445 68.009497869018218807469 45.27048106707535169
70.009497869018218807469 284.95667631289893507 70.009497869018218807469 44.97679695925028653
72.009497869018218807469 285.67816719024739314 72.009497869018218807469 44.75442330091391341
74.009497869018190385759 286.37251443779643978 74.009497869018190385759 44.45902540266113334
76.009497869018190385759 287.03693371818280866 76.009497869018190385759 44.16927922353333003
78.009497869018190385759 287.67040258923799456 78.009497869018190385759 44.09844473566012368
80.009497869018190385759 288.27947726580526933 80.009497869018190385759 43.88573198828105149
82.009497869018190385759 288.87957224470824258 82.009497869018190385759 43.69681638896665277
84.009497869018190385759 289.45979762358700782 84.009497869018190385759 43.66729141733249264
86.009497869018190385759 290.02189109919260090 86.009497869018190385759 43.64091777008025730
88.009497869018218807469 290.56477485998073007 88.009497869018218807469 43.58007296816859366
91.009497869018190385759 291.34456475905881234 91.009497869018190385759 43.40644704667020903
94.009497869018218807469 292.08346767585300086 94.009497869018218807469 43.12810504773526787
97.009497869018190385759 292.78366294512619561 97.009497869018190385759 42.27068058260203287
99.504748934509109403734 293.32243236968389510 99.504748934509109403734 43.76869234618969529
nan nan nan nan

