Time Pressure difference Time.1 Pressure.1 difference.1
(hr) (psi) (hr) (psi)
0.000200000000006639311 0.76925063733873877 0.000200000000006639311 0.61832275284086213
0.000399999999999067768 1.52697891402329078 0.000399999999999067768 1.56802520994728622
0.000600000000005707079 2.27538061199696573 0.000600000000005707079 2.27096746516898440
0.000799999999998135536 3.01547547440226094 0.000799999999998135536 2.97332112376254409
0.001007140329434719206 3.77394690917426567 0.001007140329434719206 3.69698970332704802
0.001267914553963578328 4.71798441954627457 0.001267914553963578328 4.59606184558404518
0.001596209851982166583 5.89048386404355018 0.001596209851982166583 5.70040053832298188
0.002009509145224797066 7.34307257317140660 0.002009509145224797066 7.05058930721590293
0.002529822128138903281 9.13733281938553610 0.002529822128138903281 8.69230215167382880
0.003184857364431081805 11.34592105839734089 0.003184857364431081805 10.67549798068713507
0.004009497869020606231 14.05341968898951954 0.004009497869020606231 13.05274063872846035
0.005047658755842121536 17.35668160066143528 0.005047658755842121536 15.87625537871092618
0.006354625877790454069 21.36432496016837490 0.006354625877790454069 19.19338491712487382
0.008000000000009777068 26.19498328640889184 0.008000000000009777068 23.04019389973949927
0.010071403294347192059 31.97385253601567356 0.010071403294347192059 27.43295547944358503
0.012679145539706837553 38.82701763564209330 0.012679145539706837553 32.35788651630817014
0.015962098519750611558 46.87326911827883436 0.015962098519750611558 37.76017203929171728
0.020095091452091651263 56.21337190092403091 0.020095091452091651263 43.53428993945082226
0.025298221281360611101 66.91742355277598620 0.025298221281360611101 49.51804749636779235
0.031848573644296607199 79.01137557713504123 0.031848573644296607199 55.49679554387672908
0.040094978690177640601 92.46633304966782418 0.040094978690177640601 61.21701874192440584
0.050476587558421215363 107.19133786746984072 0.050476587558421215363 66.41731711972414587
0.063546258777961384112 123.03693930854167604 0.063546258777961384112 70.86758156827686150
0.079999999999998294697 139.80602037236420188 0.079999999999998294697 74.41070595757346950
0.100714032943542974863 157.27657139342875325 0.100714032943542974863 76.99895628056535202
0.126791455396897845276 175.22924529045263853 0.126791455396897845276 78.70052650562884367
0.159620985197506115583 193.47311657333463586 0.159620985197506115583 79.68496574451094716
0.200950914520760193227 211.86647329532780759 0.200950914520760193227 80.18450974083462768
0.252982212813478213320 230.32470675701901541 0.252982212813478213320 80.44238274966200208
0.318485736442795541734 248.81723036434655683 0.318485736442795541734 80.67085270685279852
0.400949786901833249431 267.35598570000729524 0.400949786901833249431 81.02532631586350931
0.504765875584155310207 285.98036175068210696 0.504765875584155310207 81.59328272062711562
0.635462587779443310865 304.74053773662922140 0.635462587779443310865 82.41584494231175029
0.799999999999997157829 323.69219834484380272 0.799999999999997157829 83.49148333648437870
1.007140329435344483500 342.88149464539930023 1.007140329435344483500 84.79584475139589017
1.267914553968893187630 362.34867217869481237 1.267914553968893187630 86.31148087703286365
1.596209851975103788391 382.12643395349073216 1.596209851975103788391 88.02048425094601214
2.009509145207672986544 402.23988680710203880 2.009509145207672986544 89.91490727881543421
2.529822128134711078928 422.70924286397161040 2.529822128134711078928 91.99840179225674319
3.184857364427998049905 443.54998539919125733 3.184857364427998049905 94.28015197612464249
4.009497869018190385759 464.77217054054119671 4.009497869018190385759 96.75449689625122573
5.009497869018204596614 485.65365276272444817 5.009497869018204596614 99.28619901483497756
6.009497869018204596614 502.96450882418389483 6.009497869018204596614 101.45379515975098172
7.009497869018204596614 517.76349302590551815 7.009497869018204596614 103.34319080119475132
8.009497869018204596614 530.68583454195334070 8.009497869018204596614 105.01393147058045940
9.009497869018204596614 542.15384048117471139 9.009497869018204596614 106.49930018794576370
10.009497869018190385759 552.45456258115132187 10.009497869018190385759 107.81446565420820605
11.009497869018190385759 561.79540410941581285 11.009497869018190385759 109.02384894880695754
12.009497869018190385759 570.33586991669346844 12.009497869018190385759 110.07203020432979201
13.009497869018190385759 578.20305926911134975 13.009497869018190385759 111.07080617905049280
14.009497869018190385759 585.47179714490505376 14.009497869018190385759 112.04747472798271701
15.009497869018190385759 592.24372304339863149 15.009497869018190385759 112.85767155998566125
16.009497869018204596614 598.57748065466137177 16.009497869018204596614 113.58229466161779442
17.009497869018204596614 604.50282013198318509 17.009497869018204596614 114.38647067663727341
18.009497869018204596614 610.06392207675094141 18.009497869018204596614 114.96598619188526413
19.009497869018204596614 615.32991807857115418 19.009497869018204596614 115.52777907471357821
20.009497869018204596614 620.31235991276298591 20.009497869018204596614 116.06605035109149071
21.009497869018204596614 625.02579890058746059 21.009497869018204596614 116.71869292939105378
22.009497869018190385759 629.48001902514602079 22.009497869018190385759 117.30873693420166148
23.009497869018190385759 633.73516618984331217 23.009497869018190385759 117.68467584858123587
24.009497869018190385759 637.81181197287719442 24.009497869018190385759 118.07198543439712068
25.009497869018190385759 641.70674884432571616 25.009497869018190385759 118.59556324169834340
26.009497869018190385759 645.42663591981227000 26.009497869018190385759 118.92605341696065580
27.009497869018204596614 648.97127665110076578 27.009497869018204596614 119.33394378661972723
28.009497869018190385759 652.36119811861544804 28.009497869018190385759 119.61720668263771472
29.009497869018190385759 655.62687139393256075 29.009497869018190385759 119.50533397098557487
30.009497869018190385759 658.77527528086147868 30.009497869018190385759 119.48767191310329849
31.009497869018190385759 661.80190160677875610 31.009497869018190385759 119.53911911233507226
32.009497869018190385759 664.70851250702605739 32.009497869018190385759 119.67404611664645131
33.009497869018218807469 667.48184209685757651 33.009497869018218807469 119.61321654038171403
34.009497869018190385759 670.13601643292531662 34.009497869018190385759 119.71275530724210512
35.009497869018218807469 672.69097030019918293 35.009497869018218807469 119.74738672002303019
36.009497869018190385759 675.16336641364546267 36.009497869018190385759 119.67052522795542302
37.009497869018218807469 677.56903689828141069 37.009497869018218807469 119.58396493293864182
38.009497869018190385759 679.89918250171569980 38.009497869018190385759 119.65138588331669212
39.009497869018190385759 682.15401482465188110 39.009497869018190385759 119.91480781896311214
40.009497869018190385759 684.33454131577536828 40.009497869018190385759 120.22369068679405757
41.009497869018190385759 686.44476576659099010 41.009497869018190385759 120.45092058995894035
42.009497869018190385759 688.48491871636508677 42.009497869018190385759 120.74683465635179402
43.009497869018190385759 690.46051444982447265 43.009497869018190385759 120.92140645441459412
44.009497869018218807469 692.38734391771379251 44.009497869018218807469 121.01835860614956175
46.009497869018218807469 696.10356522561664860 46.009497869018218807469 121.27168358653504754
48.009497869018218807469 699.64780775944245761 48.009497869018218807469 121.47457231535504718
50.009497869018218807469 703.00219938849329537 50.009497869018218807469 121.91643101901543389
52.009497869018190385759 706.17431860681415401 52.009497869018190385759 122.05394679593034368
54.009497869018190385759 709.16743964712725301 54.009497869018190385759 122.01577399947963443
56.009497869018190385759 712.02319593986885593 56.009497869018190385759 121.67008936407400199
58.009497869018190385759 714.76123592838382592 58.009497869018190385759 120.33533697947046903
60.009497869018190385759 717.37974084192069313 60.009497869018190385759 119.42895901394203406
62.009497869018190385759 719.86246835344252304 62.009497869018190385759 118.54449003135741236
64.009497869018190385759 722.20651860315911108 64.009497869018190385759 117.68450130120004360
66.009497869018218807469 724.42326604545905866 66.009497869018218807469 116.86311966427754783
68.009497869018218807469 726.46587642191502709 68.009497869018218807469 115.71879133035972131
70.009497869018218807469 728.39610684913623118 70.009497869018218807469 114.96808647391921454
72.009497869018218807469 730.24035613287912838 72.009497869018218807469 114.39966284863749024
74.009497869018190385759 732.01522183688803125 74.009497869018190385759 113.64457726214475031
76.009497869018190385759 733.71358673716326848 76.009497869018190385759 112.90393839878521476
78.009497869018190385759 735.33283730344953710 78.009497869018190385759 112.72287380375587418
80.009497869018190385759 736.88973229861994696 80.009497869018190385759 112.17914505497594746
82.009497869018190385759 738.42367371044599622 82.009497869018190385759 111.69624572850928246
84.009497869018190385759 739.90682515837431765 84.009497869018190385759 111.62077504759236035
86.009497869018190385759 741.34362848094997389 86.009497869018190385759 111.55335966982158880
88.009497869018218807469 742.73132861469036925 88.009497869018218807469 111.39783035425011803
91.009497869018190385759 744.72459978137499093 91.009497869018190385759 110.95401395765290431
94.009497869018218807469 746.61335710019420731 94.009497869018218807469 110.24252605352603496
97.009497869018190385759 748.40317130904861642 97.009497869018190385759 108.05080817415806393
99.504748934509109403734 749.78035452305505260 99.504748934509109403734 111.87997249039720771
nan nan nan nan

