Time Pressure difference Time.1 Pressure.1 difference.1
(hr) (psi) (hr) (psi)
0.000200000000006639311 0.33227010380226335 0.000200000000006639311 0.26707831660757497
0.000399999999999067768 0.65956323939055328 0.000399999999999067768 0.67729277557208611
0.000600000000005707079 0.98282785277039353 0.000600000000005707079 0.98092163822411649
0.000799999999998135536 1.30250441177289500 0.000799999999998135536 1.28429626246120598
0.001007140329434719206 1.63011854704954873 0.001007140329434719206 1.59687765320557373
0.001267914553963578328 2.03788608904303192 0.001267914553963578328 1.98522285505934670
0.001596209851982166583 2.54433547396522064 0.001596209851982166583 2.46223088632814724
0.002009509145224797066 3.17176660984788539 0.002009509145224797066 3.04543139422080245
0.002529822128138903281 3.94677934213544557 0.002529822128138903281 3.75455280506382927
0.003184857364431081805 4.90075689875040599 0.003184857364431081805 4.61117436893560040
0.004009497869020606231 6.07023379920983519 0.004009497869020606231 5.63800051169085670
0.005047658755842121536 7.49704467852792966 0.005047658755842121536 6.85758940795337946
0.006354625877790454069 9.22810606532460298 0.006354625877790454069 8.29039026966915671
0.008000000000009777068 11.31466051920984306 0.008000000000009777068 9.95198085915864716
0.010071403294347192059 13.81078517900784064 0.010071403294347192059 11.84939020173179713
0.012679145539706837553 16.77094116523447198 0.012679145539706837553 13.97666480822314483
0.015962098519750611558 20.24643885816331235 0.015962098519750611558 16.31012790121603828
0.020095091452091651263 24.28080265388251036 0.020095091452091651263 18.80420026323545457
0.025298221281360611101 28.90431049492896420 0.025298221281360611101 21.38882437410098447
0.031848573644296607199 34.12817187308190370 0.031848573644296607199 23.97128467758019355
0.040094978690177640601 39.93990591534419110 0.040094978690177640601 26.44207776312490310
0.050476587558421215363 46.30022418069705026 0.050476587558421215363 28.68829453295694876
0.063546258777961384112 53.14457292748370776 0.063546258777961384112 30.61054166346792726
0.079999999999998294697 60.38780944272537710 0.079999999999998294697 32.14095873622948574
0.100714032943542974863 67.93403887626131166 0.100714032943542974863 33.25892752526026896
0.126791455396897845276 75.68851645450418175 0.126791455396897845276 33.99390373179895875
0.159620985197506115583 83.56877382535246568 0.159620985197506115583 34.41912239553903419
0.200950914520760193227 91.51359993356602729 0.200950914520760193227 34.63489541860273846
0.252982212813478213320 99.48644889933405011 0.252982212813478213320 34.74628108050780639
0.318485736442795541734 107.47410914987317199 0.318485736442795541734 34.84496638891927489
0.400949786901833249431 115.48173873215748131 0.400949786901833249431 34.99807771199677831
0.504765875584155310207 123.52635132424960318 0.504765875584155310207 35.24340078929552789
0.635462587779443310865 131.62962133747220150 0.635462587779443310865 35.59869829769736072
0.799999999999997157829 139.81560121433233235 0.799999999999997157829 36.06330952261865264
1.007140329435344483500 148.10422544704815095 1.007140329435344483500 36.62671536421494523
1.267914553968893187630 156.51287769347695189 1.267914553968893187630 37.28137919983305437
1.596209851975103788391 165.05568369052173239 1.596209851975103788391 38.01956608052652342
2.009509145207672986544 173.74348808495403773 2.009509145207672986544 38.83784312257515836
2.529822128134711078928 182.58502130137250674 2.529822128134711078928 39.73778769804872724
3.184857364427998049905 191.58697118528837677 3.184857364427998049905 40.72336682355651760
4.009497869018190385759 200.75368138031950593 4.009497869018190385759 41.79213531531537740
5.009497869018204596614 209.77322836374912640 5.009497869018204596614 42.88567867414629120
6.009497869018204596614 217.25047915985649638 6.009497869018204596614 43.82195010651623335
7.009497869018204596614 223.64275207871378370 7.009497869018204596614 44.63805561937994071
8.009497869018204596614 229.22442799614918840 8.009497869018204596614 45.35971530830003218
9.009497869018204596614 234.17791823570570386 9.009497869018204596614 46.00130544023809875
10.009497869018190385759 238.62721191876096327 10.009497869018190385759 46.56937798354330482
11.009497869018190385759 242.66189480824712632 11.009497869018190385759 47.09175897788767884
12.009497869018190385759 246.35086342596730447 12.009497869018190385759 47.54451036692916688
13.009497869018190385759 249.74901702620780952 13.009497869018190385759 47.97592164004002768
14.009497869018190385759 252.88867550846381960 14.009497869018190385759 48.39778383212972557
15.009497869018190385759 255.81374103589456581 15.009497869018190385759 48.74774023437751680
16.009497869018204596614 258.54954416273153583 16.009497869018204596614 49.06073392136331535
17.009497869018204596614 261.10893516954894267 17.009497869018204596614 49.40808969205232870
18.009497869018204596614 263.51099742436292672 18.009497869018204596614 49.65840561128591446
19.009497869018204596614 265.78559162450608255 19.009497869018204596614 49.90106641705206414
20.009497869018204596614 267.93770744356214664 20.009497869018204596614 50.13356730063222955
21.009497869018204596614 269.97363017892473636 21.009497869018204596614 50.41546972191274989
22.009497869018190385759 271.89758592404490400 22.009497869018190385759 50.67033331670231888
23.009497869018190385759 273.73555409914990832 23.009497869018190385759 50.83271636332072774
24.009497869018190385759 275.49642039128565330 24.009497869018190385759 51.00001085751558350
25.009497869018190385759 277.17879934004639608 25.009497869018190385759 51.22616504437773699
26.009497869018190385759 278.78556728369170514 26.009497869018190385759 51.36891696359608517
27.009497869018204596614 280.31663932518074489 27.009497869018204596614 51.54510112112298970
28.009497869018190385759 281.78088193119191374 28.009497869018190385759 51.66745369035690771
29.009497869018190385759 283.19145677572868181 29.009497869018190385759 51.61913139368401460
30.009497869018190385759 284.55137828315878323 30.009497869018190385759 51.61150244478095317
31.009497869018190385759 285.85869919349607926 31.009497869018190385759 51.63372454691429425
32.009497869018190385759 287.11418064344212553 32.009497869018190385759 51.69200491426421706
33.009497869018218807469 288.31209256702425137 33.009497869018218807469 51.66573018839638820
34.009497869018190385759 289.45853657284982319 34.009497869018190385759 51.70872496122032658
35.009497869018218807469 290.56212329151156837 35.009497869018218807469 51.72368365291455206
36.009497869018190385759 291.63005001575476172 36.009497869018190385759 51.69048410167849283
37.009497869018218807469 292.66915527331985913 37.009497869018218807469 51.65309524970447086
38.009497869018190385759 293.67563831531771257 38.009497869018190385759 51.68221705356550899
39.009497869018190385759 294.64959054055168508 39.009497869018190385759 51.79599951880186381
40.009497869018190385759 295.59144710638531706 40.009497869018190385759 51.92941837811147110
41.009497869018190385759 296.50293741043537921 41.009497869018190385759 52.02756805761356418
42.009497869018190385759 297.38416103182754568 42.009497869018190385759 52.15538517310800160
43.009497869018190385759 298.23749981058870162 43.009497869018190385759 52.23078971182108887
44.009497869018218807469 299.06977448964488531 44.009497869018218807469 52.27266722216320716
46.009497869018218807469 300.67495904171869370 46.009497869018218807469 52.38208840876058048
48.009497869018218807469 302.20585908580426349 48.009497869018218807469 52.46972416193791844
50.009497869018218807469 303.65475493415090114 50.009497869018218807469 52.66058060092520776
52.009497869018190385759 305.02492004131408976 52.009497869018190385759 52.71997916265802075
54.009497869018190385759 306.31776867930574326 54.009497869018190385759 52.70349080577737055
56.009497869018190385759 307.55128399117592153 56.009497869018190385759 52.55417579177044018
58.009497869018190385759 308.73395292512185506 58.009497869018190385759 51.97764287537685135
60.009497869018190385759 309.86498988134411547 60.009497869018190385759 51.58614199637582232
62.009497869018190385759 310.93737914945046441 62.009497869018190385759 51.20410448299789863
64.009497869018190385759 311.94986816406543539 64.009497869018190385759 50.83264096932862941
66.009497869018218807469 312.90737000677381729 66.009497869018218807469 50.47785340268365673
68.009497869018218807469 313.78965508899432280 68.009497869018218807469 49.98357224666127507
70.009497869018218807469 314.62339877835142943 70.009497869018218807469 49.65931280706264062
72.009497869018218807469 315.42000377443758907 72.009497869018218807469 49.41378791854331354
74.009497869018190385759 316.18663922858075921 74.009497869018190385759 49.08763626649982825
76.009497869018190385759 316.92023092719909982 76.009497869018190385759 48.76772473173680567
78.009497869018190385759 317.61964998209020905 78.009497869018190385759 48.68951569444117666
80.009497869018190385759 318.29213517293015911 80.009497869018190385759 48.45465751034867452
82.009497869018190385759 318.95470579347238527 82.009497869018190385759 48.24607398562620375
84.009497869018190385759 319.59533819809740862 84.009497869018190385759 48.21347518132875365
86.009497869018190385759 320.21595099445107735 86.009497869018190385759 48.18435578449957291
88.009497869018218807469 320.81535416047182707 88.009497869018218807469 48.11717645526559295
91.009497869018190385759 321.67632766548143763 91.009497869018190385759 47.92547441043313938
94.009497869018218807469 322.49215746128436422 94.009497869018218807469 47.61815434037619355
97.009497869018190385759 323.26524977229001934 97.009497869018190385759 46.67146376654415718
99.504748934509109403734 323.86011026022634951 99.504748934509109403734 48.32543291921766127
nan nan nan nan

