Time Pressure difference Time.1 Pressure.1 difference.1
(hr) (psi) (hr) (psi)
0.000200000000006639311 0.75523428060266318 0.000200000000006639311 0.60705642186734154
0.000399999999999067768 1.49915614710110856 0.000399999999999067768 1.53945454695789308
0.000600000000005707079 2.23392137255007528 0.000600000000005707079 2.22958863675754504
0.000799999999998135536 2.96053111956320558 0.000799999999998135536 2.91914485462646356
0.001007140329434719206 3.70518260321932225 0.001007140329434719206 3.62962761870051009
0.001267914553963578328 4.63201900139805733 0.001267914553963578328 4.51231795343514008
0.001596209851982166583 5.78315457605990524 0.001596209851982166583 5.59653471929673252
0.002009509145224797066 7.20927596680065275 0.002009509145224797066 6.92212197793115447
0.002529822128138903281 8.97084336822845785 0.002529822128138903281 8.53392151225426154
0.003184857364431081805 11.13918937780489138 0.003184857364431081805 10.48098194031019936
0.004009497869020606231 13.79735523592111335 0.004009497869020606231 12.81490935163480316
0.005047658755842121536 17.04042909561187003 0.005047658755842121536 15.58697741361115519
0.006354625877790454069 20.97505001448470452 0.006354625877790454069 18.84366622088572640
0.008000000000009777068 25.71768991463081022 0.008000000000009777068 22.62038329277747195
0.010071403294347192059 31.39126358305504283 0.010071403294347192059 26.93310527242264385
0.012679145539706837553 38.11955857904411005 0.012679145539706837553 31.76830015963374976
0.015962098519750611558 46.01920097786003794 0.015962098519750611558 37.07215175561759679
0.020095091452091651263 55.18911967979251187 0.020095091452091651263 42.74106064794957405
0.025298221281360611101 65.69813502073183997 0.025298221281360611101 48.61578939621961126
0.031848573644296607199 77.57172564700502448 0.031848573644296607199 54.48559991231627464
0.040094978690177640601 90.78152312271781454 0.040094978690177640601 60.10159610675536612
0.050476587558421215363 105.23822667374315643 0.050476587558421215363 65.20714092354482716
0.063546258777961384112 120.79510868877190433 0.063546258777961384112 69.57631802416035782
0.079999999999998294697 137.25864379537577520 0.079999999999998294697 73.05488387688885155
0.100714032943542974863 154.41086752023662143 0.100714032943542974863 75.59597422614990592
0.126791455396897845276 172.03642945986561585 0.126791455396897845276 77.26654049212864095
0.159620985197506115583 189.94788293802199064 0.159620985197506115583 78.23304246727977329
0.200950914520760193227 208.00609811202602373 0.200950914520760193227 78.72348437578190783
0.252982212813478213320 226.12800792007442396 0.252982212813478213320 78.97665873385894031
0.318485736442795541734 244.28358308010874111 0.318485736442795541734 79.20096578722098002
0.400949786901833249431 262.48454758971774936 0.400949786901833249431 79.54898060592816478
0.504765875584155310207 280.76957273700406859 0.504765875584155310207 80.10658839452779034
0.635462587779443310865 299.18792343703364622 0.635462587779443310865 80.91416288012601399
0.799999999999997157829 317.79426975763874452 0.799999999999997157829 81.97020228962452393
1.007140329435344483500 336.63392185979182614 1.007140329435344483500 83.25079720501460656
1.267914553968893187630 355.74639197822551751 1.267914553968893187630 84.73881723833021340
1.596209851975103788391 375.16378724694271796 1.596209851975103788391 86.41668121529104951
2.009509145207672986544 394.91075703676898456 2.009509145207672986544 88.27658635304923962
2.529822128134711078928 415.00714519120896284 2.529822128134711078928 90.32211794395195170
3.184857364427998049905 435.46815286780190490 3.184857364427998049905 92.56229282972151395
4.009497869018190385759 456.30365296370388251 4.009497869018190385759 94.99155322290046399
5.009497869018204596614 476.80465801785163649 5.009497869018204596614 97.47712572088835259
6.009497869018204596614 493.80009655193185836 6.009497869018204596614 99.60522654483591509
7.009497869018204596614 508.32943152382580365 7.009497869018204596614 101.46019589913653647
8.009497869018204596614 521.01631772821997401 8.009497869018204596614 103.10049434839410765
9.009497869018204596614 532.27536750348997430 9.009497869018204596614 104.55879846962307056
10.009497869018190385759 542.38840227688592677 10.009497869018190385759 105.85000057797932982
11.009497869018190385759 551.55904626390668000 11.009497869018190385759 107.03734794973972555
12.009497869018190385759 559.94389801038721544 12.009497869018190385759 108.06643051143204559
13.009497869018190385759 567.66774093301819448 13.009497869018190385759 109.04700799572374592
14.009497869018190385759 574.80403663958520610 14.009497869018190385759 110.00588086905912633
15.009497869018190385759 581.45257267712020166 15.009497869018190385759 110.80131527218314602
16.009497869018204596614 587.67092420114659035 16.009497869018204596614 111.51273516617567338
17.009497869018204596614 593.48829929356543289 17.009497869018204596614 112.30225845637700388
18.009497869018204596614 598.94807355016484962 18.009497869018204596614 112.87121473929998672
19.009497869018204596614 604.11811892815774172 19.009497869018204596614 113.42277131022255787
20.009497869018204596614 609.00977672035469368 20.009497869018204596614 113.95123485702015387
21.009497869018204596614 613.63733311140197202 21.009497869018204596614 114.59198576990590368
22.009497869018190385759 618.01039381246926041 22.009497869018190385759 115.17127870496111086
23.009497869018190385759 622.18800882089658444 23.009497869018190385759 115.54036771414835982
24.009497869018190385759 626.19037488441097139 24.009497869018190385759 115.92062021211978617
25.009497869018190385759 630.01434291682994626 25.009497869018190385759 116.43465801650127389
26.009497869018190385759 633.66645069940841495 26.009497869018190385759 116.75912639864520770
27.009497869018204596614 637.14650526517505114 27.009497869018204596614 117.15958468225473155
28.009497869018190385759 640.47465967486789395 28.009497869018190385759 117.43768630364002092
29.009497869018190385759 643.68082979297139445 29.009497869018190385759 117.32785200152495975
30.009497869018190385759 646.77186726395405003 30.009497869018190385759 117.31051176034578987
31.009497869018190385759 649.74334605767330686 31.009497869018190385759 117.36102155080270393
32.009497869018190385759 652.59699620196772685 32.009497869018190385759 117.49349007807946066
33.009497869018218807469 655.31979352703274344 33.009497869018218807469 117.43376886494067435
34.009497869018190385759 657.92560670156444758 34.009497869018190385759 117.53149395652064868
35.009497869018218807469 660.43400728293943303 35.009497869018218807469 117.56549435749312238
36.009497869018190385759 662.86135437824145811 36.009497869018190385759 117.49003334277296062
37.009497869018218807469 665.22319163861288871 37.009497869018218807469 117.40505024498584419
38.009497869018190385759 667.51088014101992485 38.009497869018190385759 117.47124273217372092
39.009497869018190385759 669.72462763063356306 39.009497869018190385759 117.72986491122209429
40.009497869018190385759 671.86542319962518377 40.009497869018190385759 118.03311968821367373
41.009497869018190385759 673.93719768724258756 41.009497869018190385759 118.25620928231766982
42.009497869018190385759 675.94017743214408256 42.009497869018190385759 118.54673155971943288
43.009497869018190385759 677.87977624441498392 43.009497869018190385759 118.71812252116160380
44.009497869018218807469 679.77149735115312978 44.009497869018218807469 118.81330812779526696
46.009497869018218807469 683.42000615934068719 46.009497869018218807469 119.06201732611586408
48.009497869018218807469 686.89966978311827006 48.009497869018218807469 119.26120926137751610
50.009497869018218807469 690.19294173618413879 50.009497869018218807469 119.69501694900121436
52.009497869018190385759 693.30726242641128465 52.009497869018190385759 119.83002707939142795
54.009497869018190385759 696.24584642740467189 54.009497869018190385759 119.79254982156841436
56.009497869018190385759 699.04956857547676918 56.009497869018190385759 119.45316383439633512
58.009497869018190385759 701.73771930375085049 58.009497869018190385759 118.14273169688632947
60.009497869018190385759 704.30851298092113666 60.009497869018190385759 117.25286865677480819
62.009497869018190385759 706.74600322803132713 62.009497869018190385759 116.38451540056098565
64.009497869018190385759 709.04734302303711502 64.009497869018190385759 115.54019634715888287
66.009497869018218807469 711.22369956874649688 66.009497869018218807469 114.73378093513208853
68.009497869018218807469 713.22909196406646970 68.009497869018218807469 113.61030317107129406
70.009497869018218807469 715.12415206196010331 70.009497869018218807469 112.87327675252947756
72.009497869018218807469 716.93479766100449524 72.009497869018218807469 112.31521025654014068
74.009497869018190385759 718.67732390416870203 74.009497869018190385759 111.57388292832219179
76.009497869018190385759 720.34474324891903052 76.009497869018190385759 110.84673909248365931
78.009497869018190385759 721.93448978559456464 78.009497869018190385759 110.66897363798540255
80.009497869018190385759 723.46301691911673970 80.009497869018190385759 110.13515205826149668
82.009497869018190385759 724.96900870178831155 82.009497869018190385759 109.66105154053002479
84.009497869018190385759 726.42513595398816051 84.009497869018190385759 109.58695599527825948
86.009497869018190385759 727.83575958043968512 86.009497869018190385759 109.52076897916032294
88.009497869018218807469 729.19817471710223344 88.009497869018218807469 109.36807353107515439
91.009497869018190385759 731.15512690218599801 91.009497869018190385759 108.93234382123264936
94.009497869018218807469 733.00946956460654746 94.009497869018218807469 108.23381979102877892
97.009497869018190385759 734.76667193900152597 97.009497869018190385759 106.08203674976290642
99.504748934509109403734 736.11876178254919978 99.504748934509109403734 109.84143065509523751
nan nan nan nan

