Time Pressure difference Time.1 Pressure.1 difference.1
(hr) (psi) (hr) (psi)
0.000200000000006639311 0.59610740706956922 0.000200000000006639311 0.47915042905031441
0.000399999999999067768 1.18328591086692314 0.000399999999999067768 1.21509349066654671
0.000600000000005707079 1.76323706588832385 0.000600000000005707079 1.75981723185120664
0.000799999999998135536 2.33675109109628565 0.000799999999998135536 2.30408485796390083
0.001007140329434719206 2.92450548267201960 0.001007140329434719206 2.86486983441099197
0.001267914553963578328 3.65605866595065043 0.001267914553963578328 3.56157847197991995
0.001596209851982166583 4.56465148306911761 0.001596209851982166583 4.41735218564578336
0.002009509145224797066 5.69029096506208720 0.002009509145224797066 5.46363994546312703
0.002529822128138903281 7.08069842273927375 0.002529822128138903281 6.73583542943213054
0.003184857364431081805 8.79217676872591269 0.003184857364431081805 8.27265277603086702
0.004009497869020606231 10.89027056285039841 0.004009497869020606231 10.11482473933620341
0.005047658755842121536 13.45003300887268693 0.005047658755842121536 12.30282169218435051
0.006354625877790454069 16.55563445466424000 0.006354625877790454069 14.87333043417072176
0.008000000000009777068 20.29900634091493217 0.008000000000009777068 17.85429816667916114
0.010071403294347192059 24.77716547003143432 0.010071403294347192059 21.25833527506721765
0.012679145539706837553 30.08781752472586390 0.012679145539706837553 25.07476093385939109
0.015962098519750611558 36.32301561898778175 0.015962098519750611558 29.26109794684663967
0.020095091452091651263 43.56084446341701266 0.020095091452091651263 33.73557516208246909
0.025298221281360611101 51.85562403928943098 0.025298221281360611101 38.37250625924320246
0.031848573644296607199 61.22746467552907745 0.031848573644296607199 43.00555538930640154
0.040094978690177640601 71.65397512852072737 0.040094978690177640601 47.43826854277742910
0.050476587558421215363 83.06467018025797699 0.050476587558421215363 51.46808175515600681
0.063546258777961384112 95.34373753491495052 0.063546258777961384112 54.91667896448464603
0.079999999999998294697 108.33842736250731775 0.079999999999998294697 57.66231554911642121
0.100714032943542974863 121.87670001870202441 0.100714032943542974863 59.66800149072748383
0.126791455396897845276 135.78857914790700079 0.126791455396897845276 60.98658163297925938
0.159620985197506115583 149.92611284300207330 0.159620985197506115583 61.74944290812585734
0.200950914520760193227 164.17948573689389491 0.200950914520760193227 62.13654934900689852
0.252982212813478213320 178.48313288887970884 0.252982212813478213320 62.33638020150656445
0.318485736442795541734 192.81335214729111271 0.318485736442795541734 62.51342605257725182
0.400949786901833249431 207.17939727878376743 0.400949786901833249431 62.78811460489744434
0.504765875584155310207 221.61179158171827908 0.504765875584155310207 63.22823516292969259
0.635462587779443310865 236.14941991809533306 0.635462587779443310865 63.86565476237019823
0.799999999999997157829 250.83543344407510745 0.799999999999997157829 64.69918805174512499
1.007140329435344483500 265.70559552907150191 1.007140329435344483500 65.70996329609778286
1.267914553968893187630 280.79109323172167478 1.267914553968893187630 66.88445945776500423
1.596209851975103788391 296.11726875495588729 1.596209851975103788391 68.20879969285526556
2.009509145207672986544 311.70357787945852124 2.009509145207672986544 69.67682525464476839
2.529822128134711078928 327.56568337690407589 2.529822128134711078928 71.29136601907998738
3.184857364427998049905 343.71558354085237852 3.184857364427998049905 73.05953899114481942
4.009497869018190385759 360.16107106196278664 4.009497869018190385759 74.97695740191815617
5.009497869018204596614 376.34254120841347913 5.009497869018204596614 76.93882303078851237
6.009497869018204596614 389.75706310812967104 6.009497869018204596614 78.61853579903532818
7.009497869018204596614 401.22508623550885432 7.009497869018204596614 80.08266554047567354
8.009497869018204596614 411.23886213701212000 8.009497869018204596614 81.37735525533726388
9.009497869018204596614 420.12564487447946249 9.009497869018204596614 82.52839660866537486
10.009497869018190385759 428.10787646963814268 10.009497869018190385759 83.54754412432210131
11.009497869018190385759 435.34627778253769748 11.009497869018190385759 84.48471896032951634
12.009497869018190385759 441.96445225055668971 12.009497869018190385759 85.29697517441634602
13.009497869018190385759 448.06089158796089578 13.009497869018190385759 86.07094626736710552
14.009497869018190385759 453.69357913801326276 14.009497869018190385759 86.82778588245606954
15.009497869018190385759 458.94127734231210525 15.009497869018190385759 87.45562329889564523
16.009497869018204596614 463.84943034653821314 16.009497869018204596614 88.01714795321507268
17.009497869018204596614 468.44109212799980924 17.009497869018204596614 88.64031972048097430
18.009497869018204596614 472.75049910127637531 18.009497869018204596614 89.08939765994966820
19.009497869018204596614 476.83122269111134983 19.009497869018204596614 89.52474198394203597
20.009497869018204596614 480.69221459477773806 20.009497869018204596614 89.94185895373969686
21.009497869018204596614 484.34475091653240497 21.009497869018204596614 90.44760448869209313
22.009497869018190385759 487.79641345678527387 22.009497869018190385759 90.90484116123022318
23.009497869018190385759 491.09381045579493730 23.009497869018190385759 91.19616359970443398
24.009497869018190385759 494.25288323300128468 24.009497869018190385759 91.49629739450067234
25.009497869018190385759 497.27114621055466159 25.009497869018190385759 91.90202810691093305
26.009497869018190385759 500.15375966776457517 26.009497869018190385759 92.15813142600488561
27.009497869018204596614 502.90057129554753601 27.009497869018204596614 92.47421367387573810
28.009497869018190385759 505.52748793114574255 28.009497869018190385759 92.69371964796040686
29.009497869018190385759 508.05812220558766512 29.009497869018190385759 92.60702728941326711
30.009497869018190385759 510.49788213082831589 30.009497869018190385759 92.59334061433406760
31.009497869018190385759 512.84327423547802027 31.009497869018190385759 92.63320805811173386
32.009497869018190385759 515.09566403277585778 32.009497869018190385759 92.73776564023084745
33.009497869018218807469 517.24477152843303429 33.009497869018218807469 92.69062760846298943
34.009497869018190385759 519.30154328082005577 34.009497869018190385759 92.76776215127119940
35.009497869018218807469 521.28142714581349537 35.009497869018218807469 92.79459871230079671
36.009497869018190385759 523.19733538806610795 36.009497869018190385759 92.73503723452493830
37.009497869018218807469 525.06153663178713487 37.009497869018218807469 92.66795996411001113
38.009497869018190385759 526.86721216370892762 38.009497869018190385759 92.72020578096244492
39.009497869018190385759 528.61452595736682269 39.009497869018190385759 92.92433660569167841
40.009497869018190385759 530.30425870450767434 40.009497869018190385759 93.16369599844813365
41.009497869018190385759 531.93951302169909923 41.009497869018190385759 93.33978090733151589
42.009497869018190385759 533.52046755834078340 42.009497869018190385759 93.56909052148161265
43.009497869018190385759 535.05139544182532063 43.009497869018190385759 93.70436963187754031
44.009497869018218807469 536.54453338961104691 44.009497869018218807469 93.77949975589081077
46.009497869018218807469 539.42430617161937789 46.009497869018218807469 93.97580625194515846
48.009497869018218807469 542.17080922837828894 48.009497869018218807469 94.13302870739731532
50.009497869018218807469 544.77019309526326651 50.009497869018218807469 94.47543368354571669
52.009497869018190385759 547.22833049595556076 52.009497869018190385759 94.58199735633188254
54.009497869018190385759 549.54775869761306240 54.009497869018190385759 94.55241650763532846
56.009497869018190385759 551.76074026208493706 56.009497869018190385759 94.28453870334995202
58.009497869018190385759 553.88250115350638225 58.009497869018190385759 93.25021290048998424
60.009497869018190385759 555.91163197074888558 60.009497869018190385759 92.54784283717050641
62.009497869018190385759 557.83554621601172130 62.009497869018190385759 91.86245047446024614
64.009497869018190385759 559.65199673106531009 64.009497869018190385759 91.19602833951513787
66.009497869018218807469 561.36979780371586912 66.009497869018218807469 90.55952359836298626
68.009497869018218807469 562.95265664849353016 68.009497869018218807469 89.67276112738487370
70.009497869018218807469 564.44843006637233884 70.009497869018218807469 89.09102520969302930
72.009497869018218807469 565.87757500972304570 72.009497869018218807469 88.65054259331715514
74.009497869018190385759 567.25295325623801546 74.009497869018190385759 88.06541196198355692
76.009497869018190385759 568.56904952944148590 76.009497869018190385759 87.49147637976602709
78.009497869018190385759 569.82383855347700319 78.009497869018190385759 87.35116587365004648
80.009497869018190385759 571.03030702240323535 80.009497869018190385759 86.92981980144438126
82.009497869018190385759 572.21898830938096125 82.009497869018190385759 86.55561164170656241
84.009497869018190385759 573.36831145713256319 84.009497869018190385759 86.49712793077094375
86.009497869018190385759 574.48171853346923399 86.009497869018190385759 86.44488643224117652
88.009497869018218807469 575.55707458566030255 88.009497869018218807469 86.32436371502983263
91.009497869018190385759 577.10169950903980407 91.009497869018190385759 85.98044168422620714
94.009497869018218807469 578.56533460175819528 94.009497869018218807469 85.42909575208931017
97.009497869018190385759 579.95229673788003311 97.009497869018190385759 83.73069057868841014
99.504748934509109403734 581.01950302268892301 99.504748934509109403734 86.69798511313739198
nan nan nan nan

