Time Pressure difference Time.1 Pressure.1 difference.1
(hr) (psi) (hr) (psi)
0.000200000000006639311 0.51200926665311552 0.000200000000006639311 0.41155244320919115
0.000399999999999067768 1.01634930933383028 0.000399999999999067768 1.04366951273018738
0.000600000000005707079 1.51448162920698359 0.000600000000005707079 1.51154426138257159
0.000799999999998135536 2.00708496206195486 0.000799999999998135536 1.97902724314741651
0.001007140329434719206 2.51191964694235681 0.001007140329434719206 2.46069732665176488
0.001267914553963578328 3.14026615706134704 0.001267914553963578328 3.05911511908648714
0.001596209851982166583 3.92067575516725064 0.001596209851982166583 3.79415727148828719
0.002009509145224797066 4.88751132683756051 0.002009509145224797066 4.69283596975463624
0.002529822128138903281 6.08176171579680425 0.002529822128138903281 5.78555159291473409
0.003184857364431081805 7.55178668517122009 0.003184857364431081805 7.10555653376925189
0.004009497869020606231 9.35388384443997012 0.004009497869020606231 8.68783701677424958
0.005047658755842121536 11.55251797857529539 0.005047658755842121536 10.56715390158572987
0.006354625877790454069 14.21998478056222837 0.006354625877790454069 12.77501825673584790
0.008000000000009777068 17.43524611024643534 0.008000000000009777068 15.33543452490699899
0.010071403294347192059 21.28163175226766413 0.010071403294347192059 18.25923403294155278
0.012679145539706837553 25.84306318513798217 0.012679145539706837553 21.53724279381283679
0.015962098519750611558 31.19860677647497837 0.015962098519750611558 25.13297624480188475
0.020095091452091651263 37.41533113662789134 0.020095091452091651263 28.97619941307498337
0.025298221281360611101 44.53989284702453233 0.025298221281360611101 32.95895765835413016
0.031848573644296607199 52.58956509474904095 0.031848573644296607199 36.93838159994366777
0.040094978690177640601 61.54511556682070506 0.040094978690177640601 40.74573273176319077
0.050476587558421215363 71.34600301789792809 0.050476587558421215363 44.20702457808005903
0.063546258777961384112 81.89275381629623496 0.063546258777961384112 47.16909769978556710
0.079999999999998294697 93.05416790057681453 0.079999999999998294697 49.52738306500870635
0.100714032943542974863 104.68247677954903452 0.100714032943542974863 51.25010916423480722
0.126791455396897845276 116.63168416438487895 0.126791455396897845276 52.38266555197804308
0.159620985197506115583 128.77471103112625883 0.159620985197506115583 53.03790324473879991
0.200950914520760193227 141.01723463708316331 0.200950914520760193227 53.37039715869057943
0.252982212813478213320 153.30293986721201804 0.252982212813478213320 53.54203610668820801
0.318485736442795541734 165.61146844186413318 0.318485736442795541734 53.69410453478626977
0.400949786901833249431 177.95076861704663429 0.400949786901833249431 53.93004034528535584
0.504765875584155310207 190.34705749965016253 0.504765875584155310207 54.30806920633380486
0.635462587779443310865 202.83373412052168305 0.635462587779443310865 54.85556238925573780
0.799999999999997157829 215.44786192084458776 0.799999999999997157829 55.57150177058606033
1.007140329435344483500 228.22015881542657212 1.007140329435344483500 56.43967801781013094
1.267914553968893187630 241.17741202890616137 1.267914553968893187630 57.44847762554920223
1.596209851975103788391 254.34138851566746098 1.596209851975103788391 58.58598147892548269
2.009509145207672986544 267.72879925746019580 2.009509145207672986544 59.84689970004757242
2.529822128134711078928 281.35309734032836104 2.529822128134711078928 61.23366292925126686
3.184857364427998049905 295.22458835251632081 3.184857364427998049905 62.75238411272604822
4.009497869018190385759 309.34996560093895823 4.009497869018190385759 64.39929536181352887
5.009497869018204596614 323.24857273917672273 5.009497869018204596614 66.08438326710880517
6.009497869018204596614 334.77058947461756588 6.009497869018204596614 67.52712410954485733
7.009497869018204596614 344.62071722303045362 7.009497869018204596614 68.78469612812641287
8.009497869018204596614 353.22176125461203355 8.009497869018204596614 69.89673252221915334
9.009497869018204596614 360.85480700837030099 9.009497869018204596614 70.88538629872917340
10.009497869018190385759 367.71091464404605631 10.009497869018190385759 71.76075366694887236
11.009497869018190385759 373.92813070948255927 11.009497869018190385759 72.56571296592618125
12.009497869018190385759 379.61262081271883062 12.009497869018190385759 73.26337701702981064
13.009497869018190385759 384.84898157140207786 13.009497869018190385759 73.92815716740659582
14.009497869018190385759 389.68701610609434738 14.009497869018190385759 74.57822272891453963
15.009497869018190385759 394.19437514464152628 15.009497869018190385759 75.11748557208049704
16.009497869018204596614 398.41009162544986566 16.009497869018204596614 75.59979098056233227
17.009497869018204596614 402.35396709749363708 17.009497869018204596614 76.13504639891934289
18.009497869018204596614 406.05540794176022246 18.009497869018204596614 76.52076894443810318
19.009497869018204596614 409.56042778863098874 19.009497869018204596614 76.89469539699585710
20.009497869018204596614 412.87671544032775728 20.009497869018204596614 77.25296598931169001
21.009497869018204596614 416.01395618141992827 21.009497869018204596614 77.68736153178117831
22.009497869018190385759 418.97866218072419997 22.009497869018190385759 78.08009178578696208
23.009497869018190385759 421.81086624211434355 23.009497869018190385759 78.33031479310712086
24.009497869018190385759 424.52426070220440124 24.009497869018190385759 78.58810606083666528
25.009497869018190385759 427.11671064558015587 25.009497869018190385759 78.93659675572847334
26.009497869018190385759 429.59264834534133115 26.009497869018190385759 79.15656931611206915
27.009497869018204596614 431.95194297999313449 27.009497869018204596614 79.42805904768580660
28.009497869018190385759 434.20825726866047489 28.009497869018190385759 79.61659737397430092
29.009497869018190385759 436.38187259982009891 29.009497869018190385759 79.54213547264956219
30.009497869018190385759 438.47743402938368718 30.009497869018190385759 79.53037969778901584
31.009497869018190385759 440.49194094084623430 31.009497869018190385759 79.56462268891755230
32.009497869018190385759 442.42656620242576082 32.009497869018190385759 79.65442940882898881
33.009497869018218807469 444.27248010948397905 33.009497869018218807469 79.61394155581676557
34.009497869018190385759 446.03908489265450044 34.009497869018190385759 79.68019404694248919
35.009497869018218807469 447.73964904225476857 35.009497869018218807469 79.70324453712143509
36.009497869018190385759 449.38526317564185319 36.009497869018190385759 79.65208592343013549
37.009497869018218807469 450.98646507377571879 37.009497869018218807469 79.59447183639323953
38.009497869018190385759 452.53739799953422107 38.009497869018190385759 79.63934687410467461
39.009497869018190385759 454.03820279325702813 39.009497869018190385759 79.81467915924555712
40.009497869018190385759 455.48955000760616940 40.009497869018190385759 80.02027000696581638
41.009497869018190385759 456.89410454560879771 41.009497869018190385759 80.17151306148392109
42.009497869018190385759 458.25201985301470131 42.009497869018190385759 80.36847194168753106
43.009497869018190385759 459.56696620936867248 43.009497869018190385759 80.48466603235954153
44.009497869018218807469 460.84945399024678636 44.009497869018218807469 80.54919688576514147
46.009497869018218807469 463.32295177396349573 46.009497869018218807469 80.71780868943007192
48.009497869018218807469 465.68198137043276574 48.009497869018218807469 80.85285038353212883
50.009497869018218807469 467.91464718140872492 50.009497869018218807469 81.14694926346042791
52.009497869018190385759 470.02599341353868567 52.009497869018190385759 81.23847905709833128
54.009497869018190385759 472.01819937927763249 54.009497869018190385759 81.21307144016810753
56.009497869018190385759 473.91897607573264395 56.009497869018190385759 80.98298552528397920
58.009497869018190385759 475.74140140570881385 58.009497869018190385759 80.09458120498516109
60.009497869018190385759 477.48426480475109202 60.009497869018190385759 79.49130069416720801
62.009497869018190385759 479.13675546354528478 62.009497869018190385759 78.90260268968162904
64.009497869018190385759 480.69694325033418636 64.009497869018190385759 78.33019861526820193
66.009497869018218807469 482.17239894344055529 66.009497869018218807469 77.78349122349020206
68.009497869018218807469 483.53194990140320897 68.009497869018218807469 77.02183217165422491
70.009497869018218807469 484.81670134331574218 70.009497869018218807469 76.52216688135459322
72.009497869018218807469 486.04422417847575844 72.009497869018218807469 76.14382704073298669
74.009497869018190385759 487.22556565992221067 74.009497869018190385759 75.64124595904812054
76.009497869018190385759 488.35598859997679710 76.009497869018190385759 75.14828054195672280
78.009497869018190385759 489.43375344634739577 78.009497869018190385759 75.02776487902721669
80.009497869018190385759 490.47001474538365073 80.009497869018190385759 74.66586182115763393
82.009497869018190385759 491.49099825743513748 82.009497869018190385759 74.34444651383094538
84.009497869018190385759 492.47817623081510874 84.009497869018190385759 74.29421361688623904
86.009497869018190385759 493.43450513040716032 86.009497869018190385759 74.24934228827352456
88.009497869018218807469 494.35815120013148771 88.009497869018218807469 74.14582277597997972
91.009497869018190385759 495.68486223390556233 91.009497869018190385759 73.85042086570466324
94.009497869018218807469 496.94200938823212255 94.009497869018218807469 73.37685817710574554
97.009497869018190385759 498.13330051759828621 97.009497869018190385759 71.91806203231743666
99.504748934509109403734 499.04994657965403348 99.504748934509109403734 74.46673410132548554
nan nan nan nan

