Time Pressure difference Time.1 Pressure.1 difference.1
(hr) (psi) (hr) (psi)
0.000200000000006639311 0.42378866837311008 0.000200000000006639311 0.34064083061115019
0.000399999999999067768 0.84122954105891912 0.000399999999999067768 0.86384239862047718
0.000600000000005707079 1.25353229857067561 0.000600000000005707079 1.25110104726351334
0.000799999999998135536 1.66125872866319635 0.000799999999998135536 1.63803543152620312
0.001007140329434719206 2.07910901534359338 0.001007140329434719206 2.03671244106120364
0.001267914553963578328 2.59918970165786156 0.001267914553963578328 2.53202120967867028
0.001596209851982166583 3.24513258962313467 0.001596209851982166583 3.14041358702895268
0.002009509145224797066 4.04537974556281199 0.002009509145224797066 3.88424748543298337
0.002529822128138903281 5.03385752321989877 0.002529822128138903281 4.78868521539158376
0.003184857364431081805 6.25059316614815952 0.003184857364431081805 5.88124969139677134
0.004009497869020606231 7.74218405159765677 0.004009497869020606231 7.19089891565533623
0.005047658755842121536 9.56198750561626731 0.005047658755842121536 8.74640435654599813
0.006354625877790454069 11.76984247537678918 0.006354625877790454069 10.57384763923063709
0.008000000000009777068 14.43110547611379424 0.008000000000009777068 12.69309717520482650
0.010071403294347192059 17.61474834245664667 0.010071403294347192059 15.11311802404502025
0.012679145539706837553 21.39023265243304905 0.012679145539706837553 17.82631690180321726
0.015962098519750611558 25.82300142207430227 0.015962098519750611558 20.80249563579415195
0.020095091452091651263 30.96856715656479153 0.020095091452091651263 23.98352093127301288
0.025298221281360611101 36.86554738062899617 0.025298221281360611101 27.28003902800969627
0.031848573644296607199 43.52823906393076925 0.031848573644296607199 30.57379733071022088
0.040094978690177640601 50.94072367366480591 0.040094978690177640601 33.72513143981687733
0.050476587558421215363 59.05289138679474092 0.050476587558421215363 36.59003322565725114
0.063546258777961384112 67.78240815068640757 0.063546258777961384112 39.04173303975810683
0.079999999999998294697 77.02068003364973947 0.079999999999998294697 40.99367938069963913
0.100714032943542974863 86.64539946004542514 0.100714032943542974863 42.41957505703171449
0.126791455396897845276 96.53572570127829522 0.126791455396897845276 43.35698887877087770
0.159620985197506115583 106.58647579709968056 0.159620985197506115583 43.89932732334258247
0.200950914520760193227 116.71957907159539047 0.200950914520760193227 44.17453162571167979
0.252982212813478213320 126.88842365820768521 0.252982212813478213320 44.31659671310425352
0.318485736442795541734 137.07615906460253541 0.318485736442795541734 44.44246333475063437
0.400949786901833249431 147.28936404051847830 0.400949786901833249431 44.63774675922169877
0.504765875584155310207 157.54973841355905506 0.504765875584155310207 44.95064021264987986
0.635462587779443310865 167.88492647012583348 0.635462587779443310865 45.40379882138075374
0.799999999999997157829 178.32560551902435009 0.799999999999997157829 45.99637988740940386
1.007140329435344483500 188.89720069424998883 1.007140329435344483500 46.71496699058680946
1.267914553968893187630 199.62188370830560302 1.267914553968893187630 47.54994766430320396
1.596209851975103788391 210.51767100974731761 1.596209851975103788391 48.49145648980305623
2.009509145207672986544 221.59839423242277689 2.009509145207672986544 49.53511504963680068
2.529822128134711078928 232.87518845882249252 2.529822128134711078928 50.68293517815644122
3.184857364427998049905 244.35658359612463641 3.184857364427998049905 51.93997654418870979
4.009497869018190385759 256.04811967613949264 4.009497869018190385759 53.30312047660571295
5.009497869018204596614 267.55195875674212402 5.009497869018204596614 54.69786312285656749
6.009497869018204596614 277.08870046691373545 6.009497869018204596614 55.89201576860880039
7.009497869018204596614 285.24162423935206334 7.009497869018204596614 56.93290468576002183
8.009497869018204596614 292.36068483876101709 8.009497869018204596614 57.85333416492857594
9.009497869018204596614 298.67853591353036791 9.009497869018204596614 58.67164018928630753
10.009497869018190385759 304.35331743484647404 10.009497869018190385759 59.39617936362595430
11.009497869018190385759 309.49929015245419350 11.009497869018190385759 60.06244197179718469
12.009497869018190385759 314.20432704949678282 12.009497869018190385759 60.63989659702627222
13.009497869018190385759 318.53844851481591149 13.009497869018190385759 61.19013330764411052
14.009497869018190385759 322.54287645496373216 14.009497869018190385759 61.72819079333666537
15.009497869018190385759 326.27360519218314039 15.009497869018190385759 62.17453717238224442
16.009497869018204596614 329.76294218273949355 16.009497869018204596614 62.57374003866189582
17.009497869018204596614 333.02727711451160530 17.009497869018204596614 63.01676948316350746
18.009497869018204596614 336.09094956854227121 18.009497869018204596614 63.33603097816614991
19.009497869018204596614 338.99204490073475426 19.009497869018204596614 63.64552887931702685
20.009497869018204596614 341.73692711164005686 20.009497869018204596614 63.94206846780387821
21.009497869018204596614 344.33361268478239481 21.009497869018204596614 64.30161646913933282
22.009497869018190385759 346.78749172446413240 22.009497869018190385759 64.62667822527293993
23.009497869018190385759 349.13169927286116945 23.009497869018190385759 64.83378712344132566
24.009497869018190385759 351.37756843950575103 24.009497869018190385759 65.04716025003227742
25.009497869018190385759 353.52333216075390965 25.009497869018190385759 65.33560504419395443
26.009497869018190385759 355.57265901691692989 26.009497869018190385759 65.51767573024413593
27.009497869018204596614 357.52544072740170122 27.009497869018204596614 65.74238703785910332
28.009497869018190385759 359.39298588742587981 28.009497869018190385759 65.89843969440062210
29.009497869018190385759 361.19208134671100652 29.009497869018190385759 65.83680778251509480
30.009497869018190385759 362.92657180531921313 30.009497869018190385759 65.82707755984469600
31.009497869018190385759 364.59397366118355421 31.009497869018190385759 65.85542038986089608
32.009497869018190385759 366.19525769411723104 32.009497869018190385759 65.92975316608389846
33.009497869018218807469 367.72311558176289736 33.009497869018218807469 65.89624148098199896
34.009497869018190385759 369.18532952467700170 34.009497869018190385759 65.95107848651923632
35.009497869018218807469 370.59288181597253242 35.009497869018218807469 65.97015731413915773
36.009497869018190385759 371.95495212927528428 36.009497869018190385759 65.92781346963460010
37.009497869018218807469 373.28026255703821334 37.009497869018218807469 65.88012644751390212
38.009497869018190385759 374.56396549397840090 38.009497869018190385759 65.91726939338133207
39.009497869018190385759 375.80617751325945619 39.009497869018190385759 66.06239144581675760
40.009497869018190385759 377.00745362948401862 40.009497869018190385759 66.23255842766575086
41.009497869018190385759 378.16999957559244194 41.009497869018190385759 66.35774188985946864
42.009497869018190385759 379.29394235821183656 42.009497869018190385759 66.52076421582509624
43.009497869018190385759 380.38231985767390597 43.009497869018190385759 66.61693774659067913
44.009497869018218807469 381.44383148307065312 44.009497869018218807469 66.67034975729997370
46.009497869018218807469 383.49113882740294912 46.009497869018218807469 66.80990928561523390
48.009497869018218807469 385.44370116650958380 48.009497869018218807469 66.92168292614415748
50.009497869018218807469 387.29167254628680439 50.009497869018218807469 67.16510776395919891
52.009497869018190385759 389.03922804276788838 52.009497869018190385759 67.24086672358863837
54.009497869018190385759 390.68817146690611253 54.009497869018190385759 67.21983690860935212
56.009497869018190385759 392.26143913514744099 56.009497869018190385759 67.02939542672457662
58.009497869018190385759 393.76985559184271324 58.009497869018190385759 66.29406560283796068
60.009497869018190385759 395.21241885610635336 60.009497869018190385759 65.79473197552647434
62.009497869018190385759 396.58018085066390768 62.009497869018190385759 65.30746824878640666
64.009497869018190385759 397.87154401074354837 64.009497869018190385759 64.83369096336208770
66.009497869018218807469 399.09277464883808761 66.009497869018218807469 64.38118275180993066
68.009497869018218807469 400.21807125494569846 68.009497869018218807469 63.75075963966227022
70.009497869018218807469 401.28145650638367670 70.009497869018218807469 63.33718804672505343
72.009497869018218807469 402.29747379667719542 72.009497869018218807469 63.02403719635549351
74.009497869018190385759 403.27526690692434386 74.009497869018190385759 62.60805221087074557
76.009497869018190385759 404.21091487985194135 76.009497869018190385759 62.20002608464694305
78.009497869018190385759 405.10297789278996561 78.009497869018190385759 62.10027560035425154
80.009497869018190385759 405.96068853321611414 80.009497869018190385759 61.80072943007249364
82.009497869018190385759 406.80575379117823331 82.009497869018190385759 61.53469486007907818
84.009497869018190385759 407.62283829732518825 84.009497869018190385759 61.49311722879151176
86.009497869018190385759 408.41438910954798303 86.009497869018190385759 61.45597735293494424
88.009497869018218807469 409.17888843295912693 88.009497869018218807469 61.37029453599631523
91.009497869018190385759 410.27700352371573445 91.009497869018190385759 61.12579118353010443
94.009497869018218807469 411.31754078188617996 94.009497869018218807469 60.73382464256417990
97.009497869018190385759 412.30356918847911629 97.009497869018190385759 59.52638306700669091
99.504748934509109403734 413.06227462470553746 99.504748934509109403734 61.63591196148356488
nan nan nan nan

