Time Pressure difference Time.1 Pressure.1 difference.1
(hr) (psi) (hr) (psi)
0.000200000000006639311 0.08162466569832276 0.000200000000006639311 0.06560980978697251
0.000399999999999067768 0.16202670148800191 0.000399999999999067768 0.16638209623234873
0.000600000000005707079 0.24143910030835972 0.000600000000005707079 0.24097082427838096
0.000799999999998135536 0.31997006641567399 0.000799999999998135536 0.31549709673364618
0.001007140329434719206 0.40045095820820187 0.001007140329434719206 0.39228508106042626
0.001267914553963578328 0.50062214098079438 0.001267914553963578328 0.48768501898480227
0.001596209851982166583 0.62503526531651821 0.001596209851982166583 0.60486565197639364
0.002009509145224797066 0.77916847239439369 0.002009509145224797066 0.74813327054059420
0.002529822128138903281 0.96955621556180926 0.002529822128138903281 0.92233431191394322
0.003184857364431081805 1.20390802227367288 0.003184857364431081805 1.13276988219509800
0.004009497869020606231 1.49119887375129934 0.004009497869020606231 1.38501749542777874
0.005047658755842121536 1.84170576470040936 0.005047658755842121536 1.68461873793395700
0.006354625877790454069 2.26695409545194959 0.006354625877790454069 2.03659711339267169
0.008000000000009777068 2.77953198859001116 0.008000000000009777068 2.44477941701415880
0.010071403294347192059 3.39272390253542477 0.010071403294347192059 2.91089238206314604
0.012679145539706837553 4.11990862371764877 0.012679145539706837553 3.43347348886871329
0.015962098519750611558 4.97369093538006890 0.015962098519750611558 4.00670635786696749
0.020095091452091651263 5.96476293482473618 0.020095091452091651263 4.61939410933079486
0.025298221281360611101 7.10056262778651970 0.025298221281360611101 5.25432658321587454
0.031848573644296607199 8.38384371075709289 0.031848573644296607199 5.88872750144029578
0.040094978690177640601 9.81154016282648911 0.040094978690177640601 6.49569652245500162
0.050476587558421215363 11.37400048111416240 0.050476587558421215363 7.04749667186783579
0.063546258777961384112 13.05536655042403815 0.063546258777961384112 7.51971122750204746
0.079999999999998294697 14.83472241893253596 0.079999999999998294697 7.89566976398689579
0.100714032943542974863 16.68851079094260115 0.100714032943542974863 8.17030725806641911
0.126791455396897845276 18.59345689577149940 0.126791455396897845276 8.35085972567765822
0.159620985197506115583 20.52930175858534767 0.159620985197506115583 8.45531790858154686
0.200950914520760193227 22.48100842040455660 0.200950914520760193227 8.50832418471878604
0.252982212813478213320 24.43959910926568568 0.252982212813478213320 8.53568691555899051
0.318485736442795541734 26.40182830232616240 0.318485736442795541734 8.55992970844418899
0.400949786901833249431 28.36896311286250594 0.400949786901833249431 8.59754266374114273
0.504765875584155310207 30.34518307965437245 0.504765875584155310207 8.65780813434306928
0.635462587779443310865 32.33581268588027058 0.635462587779443310865 8.74508965625816082
0.799999999999997157829 34.34676059607667753 0.799999999999997157829 8.85922491994850247
1.007140329435344483500 36.38292386912597465 1.007140329435344483500 8.99762982892625196
1.267914553968893187630 38.44857293214446514 1.267914553968893187630 9.15845295479769916
1.596209851975103788391 40.54717787930930939 1.596209851975103788391 9.33979414881420844
2.009509145207672986544 42.68140278017481393 2.009509145207672986544 9.54081009710903416
2.529822128134711078928 44.85339232961756295 2.529822128134711078928 9.76188829306904360
3.184857364427998049905 47.06478944750260496 3.184857364427998049905 10.00400326434763087
4.009497869018190385759 49.31666118275838784 4.009497869018190385759 10.26655433304273402
5.009497869018204596614 51.53238116131802826 5.009497869018204596614 10.53519153533618713
6.009497869018204596614 53.36922440899700604 6.009497869018204596614 10.76519369862309539
7.009497869018204596614 54.93953462975846946 7.009497869018204596614 10.96567619433899132
8.009497869018204596614 56.31071556232945596 8.009497869018204596614 11.14295735861464642
9.009497869018204596614 57.52757792887062749 9.009497869018204596614 11.30056883023218717
10.009497869018190385759 58.62058059542762578 10.009497869018190385759 11.44012014980344283
11.009497869018190385759 59.61173098267114057 11.009497869018190385759 11.56844699456794068
12.009497869018190385759 60.51795404260735012 12.009497869018190385759 11.67966879981634420
13.009497869018190385759 61.35273619254236621 13.009497869018190385759 11.78564824407931155
14.009497869018190385759 62.12401706039185001 14.009497869018190385759 11.88928188431970945
15.009497869018190385759 62.84258154479793035 15.009497869018190385759 11.97525132308529550
16.009497869018204596614 63.51465228811519381 16.009497869018204596614 12.05214059110413949
17.009497869018204596614 64.14338605902071322 17.009497869018204596614 12.13747116504511325
18.009497869018204596614 64.73347083129510793 18.009497869018204596614 12.19896316505534983
19.009497869018204596614 65.29224211123101895 19.009497869018204596614 12.25857462850658486
20.009497869018204596614 65.82092564990733763 20.009497869018204596614 12.31569023018012565
21.009497869018204596614 66.32106547819738296 21.009497869018204596614 12.38494169347236173
22.009497869018190385759 66.79369976794154695 22.009497869018190385759 12.44755086440081904
23.009497869018190385759 67.24521056033707112 23.009497869018190385759 12.48744148875620930
24.009497869018190385759 67.67778069165576937 24.009497869018190385759 12.52853864737975975
25.009497869018190385759 68.09106981306351258 25.009497869018190385759 12.58409513497120713
26.009497869018190385759 68.48578451882252693 26.009497869018190385759 12.61916322430772475
27.009497869018204596614 68.86190395333224501 27.009497869018204596614 12.66244419600788085
28.009497869018190385759 69.22160623123571099 28.009497869018190385759 12.69250103063358281
29.009497869018190385759 69.56812461736262776 29.009497869018190385759 12.68063029274123465
30.009497869018190385759 69.90219962787276131 30.009497869018190385759 12.67875618370549340
31.009497869018190385759 70.22335290361317561 31.009497869018190385759 12.68421521127671170
32.009497869018190385759 70.53177142357512253 32.009497869018190385759 12.69853222459592423
33.009497869018218807469 70.82604755368585359 33.009497869018218807469 12.69207763933310851
34.009497869018190385759 71.10768020027825287 34.009497869018190385759 12.70263963067199242
35.009497869018218807469 71.37878462992466666 35.009497869018218807469 12.70631434649761893
36.009497869018190385759 71.64112891205886058 36.009497869018190385759 12.69815862547437035
37.009497869018218807469 71.89639298277583634 37.009497869018218807469 12.68897377101921187
38.009497869018190385759 72.14364315934604122 38.009497869018190385759 12.69612776253842767
39.009497869018190385759 72.38290189457720203 39.009497869018190385759 12.72407928625653639
40.009497869018190385759 72.61427608816910606 40.009497869018190385759 12.75685463879165127
41.009497869018190385759 72.83819057973474287 41.009497869018190385759 12.78096585038149513
42.009497869018190385759 73.05466983164002670 42.009497869018190385759 12.81236509215308317
43.009497869018190385759 73.26429896091384819 43.009497869018190385759 12.83088878776746355
44.009497869018218807469 73.46875353467702041 44.009497869018218807469 12.84117631512197732
46.009497869018218807469 73.86307926831302950 46.009497869018218807469 12.86805645773523032
48.009497869018218807469 74.23915645035884836 48.009497869018218807469 12.88958484375149993
50.009497869018218807469 74.59508868109413982 50.009497869018218807469 12.93647017243572073
52.009497869018190385759 74.93168010940470936 52.009497869018190385759 12.95106187866785064
54.009497869018190385759 75.24927816191382135 54.009497869018190385759 12.94701138901230841
56.009497869018190385759 75.55230053381244204 56.009497869018190385759 12.91033102576990821
58.009497869018190385759 75.84283210815647180 58.009497869018190385759 12.76870135151937546
60.009497869018190385759 76.12067989640959809 60.009497869018190385759 12.67252619762085963
62.009497869018190385759 76.38412043621735847 62.009497869018190385759 12.57867579110866352
64.009497869018190385759 76.63284602541558854 64.009497869018190385759 12.48742296765145099
66.009497869018218807469 76.86806359967893343 66.009497869018218807469 12.40026671678829295
68.009497869018218807469 77.08480360747007865 68.009497869018218807469 12.27884280997386135
70.009497869018218807469 77.28961905473148875 70.009497869018218807469 12.19918602456377421
72.009497869018218807469 77.48531110091643370 72.009497869018218807469 12.13887097750815869
74.009497869018190385759 77.67364090230644535 74.009497869018190385759 12.05874935579027962
76.009497869018190385759 77.85385325506875631 76.009497869018190385759 11.98016066610904140
78.009497869018190385759 78.02567083927277736 78.009497869018190385759 11.96094802419274572
80.009497869018190385759 78.19087191593072816 80.009497869018190385759 11.90325333380773820
82.009497869018190385759 78.35363740335922955 82.009497869018190385759 11.85201321234985983
84.009497869018190385759 78.51101360201400325 84.009497869018190385759 11.84400506935867625
86.009497869018190385759 78.66347183238376317 86.009497869018190385759 11.83685166914505515
88.009497869018218807469 78.81071975654271000 88.009497869018218807469 11.82034855848956312
91.009497869018190385759 79.02222441410087583 91.009497869018190385759 11.77325550032972856
94.009497869018218807469 79.22263917783411102 94.009497869018218807469 11.69775999924874377
97.009497869018190385759 79.41255515497942952 97.009497869018190385759 11.46519829500712717
99.504748934509109403734 79.55868713588685637 99.504748934509109403734 11.87150833499391744
nan nan nan nan

