Time Pressure difference Time.1 Pressure.1 difference.1
(hr) (psi) (hr) (psi)
0.000200000000006639311 0.57054816831554900 0.000200000000006639311 0.45860594315742398
0.000399999999999067768 1.13255027706764966 0.000399999999999067768 1.16299404639177073
0.000600000000005707079 1.68763492336752430 0.000600000000005707079 1.68436172121858219
0.000799999999998135536 2.23655844403683224 0.000799999999998135536 2.20529283777457730
0.001007140329434719206 2.79911174828359277 0.001007140329434719206 2.74203309185671751
0.001267914553963578328 3.49929819756272487 0.001267914553963578328 3.40886902159073957
0.001596209851982166583 4.36893336968717794 0.001596209851982166583 4.22794980977438772
0.002009509145224797066 5.44630891815071116 0.002009509145224797066 5.22937599206152726
0.002529822128138903281 6.77710001180577848 0.002529822128138903281 6.44702367519645136
0.003184857364431081805 8.41519546882203606 0.003184857364431081805 7.91794705534351451
0.004009497869020606231 10.42332950137272007 0.004009497869020606231 9.68113239228306099
0.005047658755842121536 12.87333726437053727 0.005047658755842121536 11.77531481464947483
0.006354625877790454069 15.84578014194696038 0.006354625877790454069 14.23560810573463264
0.008000000000009777068 19.42864783943725016 0.008000000000009777068 17.08876117751310986
0.010071403294347192059 23.71479737933852405 0.010071403294347192059 20.34684372108784700
0.012679145539706837553 28.79774512740013748 0.012679145539706837553 23.99963287168838022
0.015962098519750611558 34.76559724528291184 0.015962098519750611558 28.00647272367617191
0.020095091452091651263 41.69309041311835529 0.020095091452091651263 32.28909821875666353
0.025298221281360611101 49.63221553967951394 0.025298221281360611101 36.72721207662005583
0.031848573644296607199 58.60222068529200357 0.031848573644296607199 41.16161041410792620
0.040094978690177640601 68.58167467349424840 0.040094978690177640601 45.40426256099859614
0.050476587558421215363 79.50311447405050558 0.050476587558421215363 49.26128986800546983
0.063546258777961384112 91.25569346357004008 0.063546258777961384112 52.56202191344865327
0.079999999999998294697 103.69321125152843877 0.079999999999998294697 55.18993410786799814
0.100714032943542974863 116.65100472052807845 0.100714032943542974863 57.10962245032284557
0.126791455396897845276 129.96638557448360984 0.126791455396897845276 58.37166596130242624
0.159620985197506115583 143.49774562566727809 0.159620985197506115583 59.10181810846899708
0.200950914520760193227 157.13997804969650929 0.200950914520760193227 59.47232662449899721
0.252982212813478213320 170.83032912739244580 0.252982212813478213320 59.66358934915980683
0.318485736442795541734 184.54611298191622382 0.318485736442795541734 59.83304402266038124
0.400949786901833249431 198.29618660707933486 0.400949786901833249431 60.09595478089769216
0.504765875584155310207 212.10976455677598551 0.504765875584155310207 60.51720433298388713
0.635462587779443310865 226.02406443059743424 0.635462587779443310865 61.12729335485502702
0.799999999999997157829 240.08038719681877637 0.799999999999997157829 61.92508731923599186
1.007140329435344483500 254.31296280237546625 1.007140329435344483500 62.89252365269663159
1.267914553968893187630 268.75164110145419727 1.267914553968893187630 64.01666105777785276
1.596209851975103788391 283.42067770183882658 1.596209851975103788391 65.28421768666092362
2.009509145207672986544 298.33869418061590295 2.009509145207672986544 66.68929886060051615
2.529822128134711078928 313.52068173833691844 2.529822128134711078928 68.23461311923007599
3.184857364427998049905 328.97812421890711221 3.184857364427998049905 69.92697231240970268
4.009497869018190385759 344.71848018655356327 4.009497869018190385759 71.76217776227851175
5.009497869018204596614 360.20613902658658390 5.009497869018204596614 73.63992467123880203
6.009497869018204596614 373.04548778814063326 6.009497869018204596614 75.24761656007254373
7.009497869018204596614 384.02179761406932812 7.009497869018204596614 76.64896895436952207
8.009497869018204596614 393.60621382961596737 8.009497869018204596614 77.88814638546803337
9.009497869018204596614 402.11195885634828073 9.009497869018204596614 78.98983465172398155
10.009497869018190385759 409.75193709127194097 10.009497869018190385759 79.96528427943417228
11.009497869018190385759 416.67997818190326598 11.009497869018190385759 80.86227596203045209
12.009497869018190385759 423.01438583317462871 12.009497869018190385759 81.63970514619101948
13.009497869018190385759 428.84942873979110800 13.009497869018190385759 82.38049075659479570
14.009497869018190385759 434.24060409890063283 14.009497869018190385759 83.10487943383068909
15.009497869018190385759 439.26329726262792974 15.009497869018190385759 83.70579712702044617
16.009497869018204596614 443.96100387248196739 16.009497869018204596614 84.24324534387943686
17.009497869018204596614 448.35578942264987745 17.009497869018204596614 84.83969743647695338
18.009497869018204596614 452.48042237632540719 18.009497869018204596614 85.26952030523536052
19.009497869018204596614 456.38617718153398073 19.009497869018204596614 85.68619841339956622
20.009497869018204596614 460.08162171450373990 20.009497869018204596614 86.08543069984490614
21.009497869018204596614 463.57754859507667788 21.009497869018204596614 86.56949143316035133
22.009497869018190385759 466.88121453955102425 22.009497869018190385759 87.00712321379158709
23.009497869018190385759 470.03722937124501868 23.009497869018190385759 87.28595464867976261
24.009497869018190385759 473.06085089521002374 24.009497869018190385759 87.57321963623023464
25.009497869018190385759 475.94970010747420019 25.009497869018190385759 87.96155387272804660
26.009497869018190385759 478.70871603055746846 26.009497869018190385759 88.20667627495903673
27.009497869018204596614 481.33775288591829167 27.009497869018204596614 88.50920589532780980
28.009497869018190385759 483.85203547490021947 28.009497869018190385759 88.71930013331757436
29.009497869018190385759 486.27416399207010045 29.009497869018190385759 88.63632487451450004
30.009497869018190385759 488.60931457058535443 30.009497869018190385759 88.62322504165861403
31.009497869018190385759 490.85414352828604478 31.009497869018190385759 88.66138309296448483
32.009497869018190385759 493.00995782943414270 32.009497869018190385759 88.76145756990283076
33.009497869018218807469 495.06691825404664087 33.009497869018218807469 88.71634067089404141
34.009497869018190385759 497.03550200598539277 34.009497869018190385759 88.79016792348502918
35.009497869018218807469 498.93049458492799886 35.009497869018218807469 88.81585381592275041
36.009497869018190385759 500.76425461762346458 36.009497869018190385759 88.75884614978045306
37.009497869018218807469 502.54852468768569906 37.009497869018218807469 88.69464494490196671
38.009497869018190385759 504.27677844714605726 38.009497869018190385759 88.74465062299587714
39.009497869018190385759 505.94917283886286441 39.009497869018190385759 88.94002895039922407
40.009497869018190385759 507.56645508093953367 40.009497869018190385759 89.16912535397801776
41.009497869018190385759 509.13159475935799492 41.009497869018190385759 89.33766028751509225
42.009497869018190385759 510.64476286358484458 42.009497869018190385759 89.55713781585792788
43.009497869018190385759 512.11004930254932788 43.009497869018190385759 89.68661657712208068
44.009497869018218807469 513.53916612117689056 44.009497869018218807469 89.75852535418594869
46.009497869018218807469 516.29546316841026510 46.009497869018218807469 89.94641483588665665
48.009497869018218807469 518.92420468331647498 48.009497869018218807469 90.09689607955593260
50.009497869018218807469 521.41213502340553987 50.009497869018218807469 90.42461979116686166
52.009497869018190385759 523.76487510816218673 52.009497869018190385759 90.52661434381971617
54.009497869018190385759 525.98485341458956555 54.009497869018190385759 90.49830183026784880
56.009497869018190385759 528.10294918584054358 56.009497869018190385759 90.24190979629067044
58.009497869018190385759 530.13373554388158482 58.009497869018190385759 89.25193267930714569
60.009497869018190385759 532.07586351833776916 60.009497869018190385759 88.57967806821852719
62.009497869018190385759 533.91728628143857804 62.009497869018190385759 87.92367320653734453
64.009497869018190385759 535.65585302613726526 64.009497869018190385759 87.28582518802834045
66.009497869018218807469 537.30000011088714018 66.009497869018218807469 86.67661179815655714
68.009497869018218807469 538.81499087241707002 68.009497869018218807469 85.82787095456477289
70.009497869018218807469 540.24663016034537577 70.009497869018218807469 85.27107807068820478
72.009497869018218807469 541.61449779630481771 72.009497869018218807469 84.84948198419844800
74.009497869018190385759 542.93090408480873066 74.009497869018190385759 84.28943994148357888
76.009497869018190385759 544.19057022734932616 76.009497869018190385759 83.74011293886320573
78.009497869018190385759 545.39155778562383148 78.009497869018190385759 83.60581851253918728
80.009497869018190385759 546.54629662448553518 80.009497869018190385759 83.20253845449448704
82.009497869018190385759 547.68401094065234247 82.009497869018190385759 82.84437518127376165
84.009497869018190385759 548.78405467266350115 84.009497869018190385759 82.78839907066873138
86.009497869018190385759 549.84972230312689589 86.009497869018190385759 82.73839752574120610
88.009497869018218807469 550.87897041947019261 88.009497869018218807469 82.62304244924017382
91.009497869018190385759 552.35736661169516992 91.009497869018190385759 82.29386672957750193
94.009497869018218807469 553.75824556627469519 94.009497869018218807469 81.76616080282958876
97.009497869018190385759 555.08573906308856749 97.009497869018190385759 80.14057798126192722
99.504748934509109403734 556.10718684882533580 99.504748934509109403734 82.98064411935141038
nan nan nan nan

