Time Pressure difference Time.1 Pressure.1 difference.1
(hr) (psi) (hr) (psi)
0.000200000000006639311 0.55900528629760438 0.000200000000006639311 0.44932778823805414
0.000399999999999067768 1.10963741019055839 0.000399999999999067768 1.13946526510638813
0.000600000000005707079 1.65349202029361475 0.000600000000005707079 1.65028503899739709
0.000799999999998135536 2.19131015181643418 0.000799999999998135536 2.16067708672133429
0.001007140329434719206 2.74248231985010937 0.001007140329434719206 2.68655843392898008
0.001267914553963578328 3.42850314732301653 0.001267914553963578328 3.33990346335046429
0.001596209851982166583 4.28054454428888231 0.001596209851982166583 4.14241325292924056
0.002009509145224797066 5.33612347761008987 0.002009509145224797066 5.12357936794467594
0.002529822128138903281 6.63999105202936057 0.002529822128138903281 6.31659256038033856
0.003184857364431081805 8.24494584951060716 0.003184857364431081805 7.75775737503309504
0.004009497869020606231 10.21245289296344438 0.004009497869020606231 9.48527133232357755
0.005047658755842121536 12.61289402491795641 0.005047658755842121536 11.53708590221437191
0.006354625877790454069 15.52520077491335293 0.006354625877790454069 13.94760447353768917
0.008000000000009777068 19.03558270973764976 0.008000000000009777068 16.74303479530908945
0.010071403294347192059 23.23501824160624452 0.010071403294347192059 19.93520237412942464
0.012679145539706837553 28.21513178667238719 0.012679145539706837553 23.51409116619179329
0.015962098519750611558 34.06224701199683835 0.015962098519750611558 27.43986778417983530
0.020095091452091651263 40.84958858395122405 0.020095091452091651263 31.63585056693210973
0.025298221281360611101 48.62809557211374312 0.025298221281360611101 35.98417599414508317
0.031848573644296607199 57.41662662518494642 0.031848573644296607199 40.32886107046989821
0.040094978690177640601 67.19418414541777906 0.040094978690177640601 44.48567921438879580
0.050476587558421215363 77.89466996156971845 0.050476587558421215363 48.26467417703426577
0.063546258777961384112 89.40948001199492978 0.063546258777961384112 51.49862840652917129
0.079999999999998294697 101.59537171753797224 0.079999999999998294697 54.07337474730419302
0.100714032943542974863 114.29101329554630695 0.100714032943542974863 55.95422546433365341
0.126791455396897845276 127.33700783164725578 0.126791455396897845276 57.19073630312578160
0.159620985197506115583 140.59461204364509967 0.159620985197506115583 57.90611658604333201
0.200950914520760193227 153.96084554580090753 0.200950914520760193227 58.26912926504381574
0.252982212813478213320 167.37422420284983104 0.252982212813478213320 58.45652251261611099
0.318485736442795541734 180.81252110077920747 0.318485736442795541734 58.62254891237535048
0.400949786901833249431 194.28441404566444817 0.400949786901833249431 58.88014066683329162
0.504765875584155310207 207.81852654551173032 0.504765875584155310207 59.29286782913738563
0.635462587779443310865 221.45132324269516744 0.635462587779443310865 59.89061400952558500
0.799999999999997157829 235.22326953676756034 0.799999999999997157829 60.67226763358672059
1.007140329435344483500 249.16790286128698995 1.007140329435344483500 61.62013155567674971
1.267914553968893187630 263.31446917165601462 1.267914553968893187630 62.72152629649332312
1.596209851975103788391 277.68673335526983692 1.596209851975103788391 63.96343871612153720
2.009509145207672986544 292.30294025210633890 2.009509145207672986544 65.34009339232247271
2.529822128134711078928 307.17777777253240856 2.529822128134711078928 66.85414406768497031
3.184857364427998049905 322.32249742835119832 3.184857364427998049905 68.51226478007771448
4.009497869018190385759 337.74440688798165411 4.009497869018190385759 70.31034179598964329
5.009497869018204596614 352.91873158963255719 5.009497869018204596614 72.15009960563570246
6.009497869018204596614 365.49832474040374564 6.009497869018204596614 73.72526593602482592
7.009497869018204596614 376.25257049470957327 7.009497869018204596614 75.09826727032158544
8.009497869018204596614 385.64308233595323827 8.009497869018204596614 76.31237463778515462
9.009497869018204596614 393.97674581590189291 9.009497869018204596614 77.39177441310528138
10.009497869018190385759 401.46215801717102067 10.009497869018190385759 78.34748951077509105
11.009497869018190385759 408.25003642677808102 11.009497869018190385759 79.22633396279861984
12.009497869018190385759 414.45629132209887757 12.009497869018190385759 79.98803481086345357
13.009497869018190385759 420.17328422771436180 13.009497869018190385759 80.71383342914923276
14.009497869018190385759 425.45538956510790740 14.009497869018190385759 81.42356684412892776
15.009497869018190385759 430.37646754922212722 15.009497869018190385759 82.01232724294779075
16.009497869018204596614 434.97913385194038938 16.009497869018204596614 82.53890222998592208
17.009497869018204596614 439.28500755571764103 17.009497869018204596614 83.12328737273320201
18.009497869018204596614 443.32619417796041716 18.009497869018204596614 83.54441440310633027
19.009497869018204596614 447.15293082237002409 19.009497869018204596614 83.95266260734813102
20.009497869018204596614 450.77361202663809081 20.009497869018204596614 84.34381794002145227
21.009497869018204596614 454.19881206280632568 21.009497869018204596614 84.81808553711374543
22.009497869018190385759 457.43564083499364870 22.009497869018190385759 85.24686349559347320
23.009497869018190385759 460.52780565564177095 23.009497869018190385759 85.52005383208796729
24.009497869018190385759 463.49025564588498582 24.009497869018190385759 85.80150710023713145
25.009497869018190385759 466.32065993188945185 25.009497869018190385759 86.18198486374221545
26.009497869018190385759 469.02385761375427364 26.009497869018190385759 86.42214814222865016
27.009497869018204596614 471.59970586221470512 27.009497869018204596614 86.71855722114489140
28.009497869018190385759 474.06312146240225047 28.009497869018190385759 86.92440099767242145
29.009497869018190385759 476.43624737951370207 29.009497869018190385759 86.84310442907633387
30.009497869018190385759 478.72415502724982161 30.009497869018190385759 86.83026962174065488
31.009497869018190385759 480.92356837019929117 31.009497869018190385759 86.86765568934958992
32.009497869018190385759 483.03576793115075816 32.009497869018190385759 86.96570553814179050
33.009497869018218807469 485.05111354948490998 33.009497869018218807469 86.92150140876613307
34.009497869018190385759 486.97987046251171250 34.009497869018190385759 86.99383504642030118
35.009497869018218807469 488.83652504130225225 35.009497869018218807469 87.01900128207459773
36.009497869018190385759 490.63318588258482578 36.009497869018190385759 86.96314695021841601
37.009497869018218807469 492.38135800325272839 37.009497869018218807469 86.90024461364671993
38.009497869018190385759 494.07464709127896185 38.009497869018190385759 86.94923861617225214
39.009497869018190385759 495.71320691437728101 39.009497869018190385759 87.14066420284780179
40.009497869018190385759 497.29776957352169120 40.009497869018190385759 87.36512570808828571
41.009497869018190385759 498.83124457636517946 41.009497869018190385759 87.53025097533993915
42.009497869018190385759 500.31379945304985313 42.009497869018190385759 87.74528820686657582
43.009497869018190385759 501.74944136868265332 43.009497869018190385759 87.87214745561959717
44.009497869018218807469 503.14964541930328323 44.009497869018218807469 87.94260143083536718
46.009497869018218807469 505.85017923147705687 46.009497869018218807469 88.12668968024733829
48.009497869018218807469 508.42573811457884858 48.009497869018218807469 88.27412650569209518
50.009497869018218807469 510.86333460385685612 50.009497869018218807469 88.59521996880221195
52.009497869018190385759 513.16847590077156838 52.009497869018190385759 88.69515104784647974
54.009497869018190385759 515.34354135128864982 54.009497869018190385759 88.66741133081154658
56.009497869018190385759 517.41878547398823684 56.009497869018190385759 88.41620641890908416
58.009497869018190385759 519.40848655888987651 58.009497869018190385759 87.44625774070844670
60.009497869018190385759 521.31132292692632291 60.009497869018190385759 86.78760365643375962
62.009497869018190385759 523.11549147227651702 62.009497869018190385759 86.14487056941085541
64.009497869018190385759 524.81888490133098912 64.009497869018190385759 85.51992699058266112
66.009497869018218807469 526.42976889477085933 66.009497869018218807469 84.92303872709558732
68.009497869018218807469 527.91410955418893991 68.009497869018218807469 84.09146894103311354
70.009497869018218807469 529.31678504149442688 70.009497869018218807469 83.54594065307313144
72.009497869018218807469 530.65697905476099550 72.009497869018218807469 83.13287396717707622
74.009497869018190385759 531.94675284609866139 74.009497869018190385759 82.58416225480615935
76.009497869018190385759 533.18093441350129069 76.009497869018190385759 82.04594880426192560
78.009497869018190385759 534.35762453562563223 78.009497869018190385759 81.91437131719879972
80.009497869018190385759 535.48900160607104226 80.009497869018190385759 81.51925010425904361
82.009497869018190385759 536.60369858058129466 82.009497869018190385759 81.16833290882026120
84.009497869018190385759 537.68148709258082363 84.009497869018190385759 81.11348926288063410
86.009497869018190385759 538.72559497329473288 86.009497869018190385759 81.06449930990250152
88.009497869018218807469 539.73402015086833217 88.009497869018218807469 80.95147800662549287
91.009497869018190385759 541.18250659353941501 91.009497869018190385759 80.62896191134905166
94.009497869018218807469 542.55504406637908232 94.009497869018218807469 80.11193211606715181
97.009497869018190385759 543.85568075834407864 97.009497869018190385759 78.51923680823061602
99.504748934509109403734 544.85646341546760141 99.504748934509109403734 81.30184496086742740
nan nan nan nan

