Time Pressure difference Time.1 Pressure.1 difference.1
(hr) (psi) (hr) (psi)
0.000200000000006639311 0.76100572161163549 0.000200000000006639311 0.61169549932702649
0.000399999999999067768 1.51061258053965419 0.000399999999999067768 1.55121893760058449
0.000600000000005707079 2.25099282408703028 0.000600000000005707079 2.24662697786813803
0.000799999999998135536 2.98315526567340550 0.000799999999998135536 2.94145273015308462
0.001007140329434719206 3.73349731743606350 0.001007140329434719206 3.65736494766437836
0.001267914553963578328 4.66741652651791128 0.001267914553963578328 4.54680073255527795
0.001596209851982166583 5.82734898875905394 0.001596209851982166583 5.63930299771930610
0.002009509145224797066 7.26436868707096295 0.002009509145224797066 6.97502028998958057
0.002529822128138903281 9.03939784811666591 0.002529822128138903281 8.59913706966231928
0.003184857364431081805 11.22431418746060494 0.003184857364431081805 10.56107678046540954
0.004009497869020606231 13.90279354012575119 0.004009497869020606231 12.91283988161454488
0.005047658755842121536 17.17065071533816223 0.005047658755842121536 15.70609186982870931
0.006354625877790454069 21.13533969800150913 0.006354625877790454069 18.98766803698419636
0.008000000000009777068 25.91422247948061042 0.008000000000009777068 22.79324648387948216
0.010071403294347192059 31.63115315192118615 0.010071403294347192059 27.13892594590185681
0.012679145539706837553 38.41086524940798341 0.012679145539706837553 32.01107101238204677
0.015962098519750611558 46.37087609450307468 0.015962098519750611558 37.35545422536576865
0.020095091452091651263 55.61087059437607394 0.020095091452091651263 43.06768447386185272
0.025298221281360611101 66.20019500451472538 0.025298221281360611101 48.98730743745709049
0.031848573644296607199 78.16452267705855661 0.031848573644296607199 54.90197458413528153
0.040094978690177640601 91.47526838675605632 0.040094978690177640601 60.56088778006026274
0.050476587558421215363 106.04244892998356420 0.050476587558421215363 65.70544876903042564
0.063546258777961384112 121.71821541455946658 0.063546258777961384112 70.10801477762009881
0.079999999999998294697 138.30756356237102978 0.079999999999998294697 73.61316355717075055
0.100714032943542974863 155.59086323272748587 0.100714032943542974863 76.17367271914449134
0.126791455396897845276 173.35111833128379999 0.126791455396897845276 77.85700532121695971
0.159620985197506115583 191.39944972903307985 0.159620985197506115583 78.83089322849261293
0.200950914520760193227 209.59566436397381040 0.200950914520760193227 79.32508305550949501
0.252982212813478213320 227.85606038234573134 0.252982212813478213320 79.58019215213077757
0.318485736442795541734 246.15037902067729192 0.318485736442795541734 79.80621334236349185
0.400949786901833249431 264.49043387042519271 0.400949786901833249431 80.15688766296037215
0.504765875584155310207 282.91519174263618197 0.504765875584155310207 80.71875664645104109
0.635462587779443310865 301.47429403098476541 0.635462587779443310865 81.53250255279073144
0.799999999999997157829 320.22282858766436675 0.799999999999997157829 82.59661213244918088
1.007140329435344483500 339.20645183033610692 1.007140329435344483500 83.88699325352455105
1.267914553968893187630 358.46497794312466567 1.267914553968893187630 85.38638461897248533
1.596209851975103788391 378.03075942022724121 1.596209851975103788391 87.07707070056073917
2.009509145207672986544 397.92863400102379501 2.009509145207672986544 88.95118908718826845
2.529822128134711078928 418.17859717411124620 2.529822128134711078928 91.01235246972451876
3.184857364427998049905 438.79596626307983342 3.184857364427998049905 93.26964659588750806
4.009497869018190385759 459.79068961298980867 4.009497869018190385759 95.71747120604489112
5.009497869018204596614 480.44836173632870668 5.009497869018204596614 98.22203825368990238
6.009497869018204596614 497.57367807580038743 6.009497869018204596614 100.36640185685976689
7.009497869018204596614 512.21404508350576634 7.009497869018204596614 102.23554674116050478
8.009497869018204596614 524.99788347505136699 8.009497869018204596614 103.88838022223553992
9.009497869018204596614 536.34297402371305452 9.009497869018204596614 105.35782858893240643
10.009497869018190385759 546.53329181393633007 10.009497869018190385759 106.65889796230885622
11.009497869018190385759 555.77401714146924405 11.009497869018190385759 107.85531894935564878
12.009497869018190385759 564.22294526592509101 12.009497869018190385759 108.89226567909581433
13.009497869018190385759 572.00581318905653916 13.009497869018190385759 109.88033665944652739
14.009497869018190385759 579.19664390648165408 14.009497869018190385759 110.84653716391001410
15.009497869018190385759 585.89598753382301766 15.009497869018190385759 111.64805021421946662
16.009497869018204596614 592.16185921141732251 16.009497869018204596614 112.36490672312241657
17.009497869018204596614 598.02369022703146584 17.009497869018204596614 113.16046348824887957
18.009497869018204596614 603.52518764934734463 18.009497869018204596614 113.73376769036451606
19.009497869018204596614 608.73474210773974846 19.009497869018204596614 114.28953921324826126
20.009497869018204596614 613.66378156428754664 20.009497869018204596614 114.82204123693186659
21.009497869018204596614 618.32670137753723338 21.009497869018204596614 115.46768871792919242
22.009497869018190385759 622.73318066474791976 22.009497869018190385759 116.05140856406015359
23.009497869018190385759 626.94272067869815146 23.009497869018190385759 116.42331812244424327
24.009497869018190385759 630.97567250907343350 24.009497869018190385759 116.80647648011634487
25.009497869018190385759 634.82886300462234885 25.009497869018190385759 117.32444252099418236
26.009497869018190385759 638.50887990781006920 26.009497869018190385759 117.65139046501037967
27.009497869018204596614 642.01552877702692967 27.009497869018204596614 118.05490901934621206
28.009497869018190385759 645.36911668111690688 28.009497869018190385759 118.33513587146259738
29.009497869018190385759 648.59978809924950838 29.009497869018190385759 118.22446222424403572
30.009497869018190385759 651.71444703562178802 30.009497869018190385759 118.20698947030476234
31.009497869018190385759 654.70863363671674051 31.009497869018190385759 118.25788525261015138
32.009497869018190385759 657.58409115110930543 32.009497869018190385759 118.39136609395998789
33.009497869018218807469 660.32769587931352362 33.009497869018218807469 118.33118849600462852
34.009497869018190385759 662.95342247330131613 34.009497869018190385759 118.42966039505300557
35.009497869018218807469 665.48099205475227791 35.009497869018218807469 118.46392062441719872
36.009497869018190385759 667.92688874576083435 36.009497869018190385759 118.38788294255397204
37.009497869018218807469 670.30677498082934562 37.009497869018218807469 118.30225041061346758
38.009497869018190385759 672.61194581895347255 38.009497869018190385759 118.36894873558553343
39.009497869018190385759 674.84261059287644002 39.009497869018190385759 118.62954728499779833
40.009497869018190385759 676.99976595333419027 40.009497869018190385759 118.93511951115853265
41.009497869018190385759 679.08737277873910898 41.009497869018190385759 119.15991393840525348
42.009497869018190385759 681.10565913741152144 42.009497869018190385759 119.45265636421510180
43.009497869018190385759 683.06008021134834962 43.009497869018190385759 119.62535708191282424
44.009497869018218807469 684.96625770208993345 44.009497869018218807469 119.72127008947056481
46.009497869018218807469 688.64264812780731972 46.009497869018218807469 119.97187990393553036
48.009497869018218807469 692.14890306748702642 48.009497869018218807469 120.17259404830943481
50.009497869018218807469 695.46734194595853751 50.009497869018218807469 120.60971686018353921
52.009497869018190385759 698.60546203010653699 52.009497869018190385759 120.74575872737803195
54.009497869018190385759 701.56650245905518659 54.009497869018190385759 120.70799507129656547
56.009497869018190385759 704.39165043140292255 56.009497869018190385759 120.36601552308712826
58.009497869018190385759 707.10034379624687517 58.009497869018190385759 119.04556916618568607
60.009497869018190385759 709.69078327662691663 60.009497869018190385759 118.14890586266719197
62.009497869018190385759 712.14690063261241448 62.009497869018190385759 117.27391671912421600
64.009497869018190385759 714.46582708544030993 64.009497869018190385759 116.42314544588171543
66.009497869018218807469 716.65881517680452362 66.009497869018218807469 115.61056747066257344
68.009497869018218807469 718.67953262318064844 68.009497869018218807469 114.47850417783710952
70.009497869018218807469 720.58907462138552091 70.009497869018218807469 113.73584546133700712
72.009497869018218807469 722.41355703177634950 72.009497869018218807469 113.17351426505081236
74.009497869018190385759 724.16939952352367982 74.009497869018190385759 112.42652177166088734
76.009497869018190385759 725.84956115584316194 76.009497869018190385759 111.69382115978429226
78.009497869018190385759 727.45145641059366426 78.009497869018190385759 111.51469723565560344
80.009497869018190385759 728.99166442832381563 80.009497869018190385759 110.97679623337920418
82.009497869018190385759 730.50916488182383546 82.009497869018190385759 110.49907267675676792
84.009497869018190385759 731.97641974402949927 84.009497869018190385759 110.42441089917230101
86.009497869018190385759 733.39782324535565294 86.009497869018190385759 110.35771808707966102
88.009497869018218807469 734.77064985140316367 88.009497869018218807469 110.20385575238249487
91.009497869018190385759 736.74255691126381862 91.009497869018190385759 109.76479623034686028
94.009497869018218807469 738.61107031455435390 94.009497869018218807469 109.06093413441000450
97.009497869018190385759 740.38170109137399777 97.009497869018190385759 106.89270733627856202
99.504748934509109403734 741.74412349922806698 99.504748934509109403734 110.68083023433723611
nan nan nan nan

