Time Pressure difference Time.1 Pressure.1 difference.1
(hr) (psi) (hr) (psi)
0.000200000000006639311 0.49964189306246048 0.000200000000006639311 0.40161156293843775
0.000399999999999067768 0.99179980910837540 0.000399999999999067768 1.01846010421013444
0.000600000000005707079 1.47789994734208063 0.000600000000005707079 1.47503353043130159
0.000799999999998135536 1.95860464896867126 0.000799999999998135536 1.93122465273322796
0.001007140329434719206 2.45124525933505355 0.001007140329434719206 2.40126019315776107
0.001267914553963578328 3.06441431751880211 0.001267914553963578328 2.98522344954333496
0.001596209851982166583 3.82597344224050495 0.001596209851982166583 3.70251096058277263
0.002009509145224797066 4.76945549768689414 0.002009509145224797066 4.57948244391515225
0.002529822128138903281 5.93485925889349897 0.002529822128138903281 5.64580396989746980
0.003184857364431081805 7.36937637876611795 0.003184857364431081805 6.93392473343666005
0.004009497869020606231 9.12794462114431759 0.004009497869020606231 8.47798588110337370
0.005047658755842121536 11.27347165059038581 0.005047658755842121536 10.31190863826240189
0.006354625877790454069 13.87650688731193327 0.006354625877790454069 12.46644293652483704
0.008000000000009777068 17.01410489985400787 0.008000000000009777068 14.96501340111697331
0.010071403294347192059 20.76758267612593301 0.010071403294347192059 17.81818973262895156
0.012679145539706837553 25.21883460578682445 0.012679145539706837553 21.01701953792363753
0.015962098519750611558 30.44501724081133176 0.015962098519750611558 24.52589952391295114
0.020095091452091651263 36.51157917680595943 0.020095091452091651263 28.27629121469152906
0.025298221281360611101 43.46405002463264111 0.025298221281360611101 32.16284756998808092
0.031848573644296607199 51.31928574463432824 0.031848573644296607199 36.04615016033149999
0.040094978690177640601 60.05851857245305325 0.040094978690177640601 39.76153628896697967
0.050476587558421215363 69.62266961166851331 0.050476587558421215363 43.13922205203947868
0.063546258777961384112 79.91466797532289945 0.063546258777961384112 46.02974751380040885
0.079999999999998294697 90.80648268558704217 0.079999999999998294697 48.33106946440463503
0.100714032943542974863 102.15391453849713344 0.100714032943542974863 50.01218382210353752
0.126791455396897845276 113.81449372563162115 0.126791455396897845276 51.11738377536021005
0.159620985197506115583 125.66421076467393902 0.159620985197506115583 51.75679447071129147
0.200950914520760193227 137.61102124005213909 0.200950914520760193227 52.08125713070288043
0.252982212813478213320 149.59997030520207772 0.252982212813478213320 52.24875021039139256
0.318485736442795541734 161.61119142636016477 0.318485736442795541734 52.39714548805230265
0.400949786901833249431 173.65244087267350892 0.400949786901833249431 52.62738236593064300
0.504765875584155310207 185.74930248758130347 0.504765875584155310207 52.99628009506970727
0.635462587779443310865 197.93436856205497065 0.635462587779443310865 53.53054880497419532
0.799999999999997157829 210.24380728507540539 0.799999999999997157829 54.22919496453326360
1.007140329435344483500 222.70759459283172532 1.007140329435344483500 55.07640077100311515
1.267914553968893187630 235.35187067555094131 1.267914553968893187630 56.06083323845863475
1.596209851975103788391 248.19787671577213928 1.596209851975103788391 57.17086115334757324
2.009509145207672986544 261.26192004834280169 2.009509145207672986544 58.40132241260680956
2.529822128134711078928 274.55712880553778632 2.529822128134711078928 59.75458894545293020
3.184857364427998049905 288.09355964834929864 3.184857364427998049905 61.23662604237034657
4.009497869018190385759 301.87774420961193300 4.009497869018190385759 62.84375682650400563
5.009497869018204596614 315.44063619958308209 5.009497869018204596614 64.48814212539120660
6.009497869018204596614 326.68434335204227636 6.009497869018204596614 65.89603415520802798
7.009497869018204596614 336.29654530943065538 7.009497869018204596614 67.12323003807503596
8.009497869018204596614 344.68983465425907298 8.009497869018204596614 68.20840564970177411
9.009497869018204596614 352.13850732217781569 9.009497869018204596614 69.17317890020915172
10.009497869018190385759 358.82900849322368231 10.009497869018190385759 70.02740212909985473
11.009497869018190385759 364.89605025756270607 11.009497869018190385759 70.81291796674921102
12.009497869018190385759 370.44323383656626447 12.009497869018190385759 71.49373022917883702
13.009497869018190385759 375.55311245131991882 13.009497869018190385759 72.14245288800064770
14.009497869018190385759 380.27428624845924787 14.009497869018190385759 72.77681638280549237
15.009497869018190385759 384.67277188027816237 15.009497869018190385759 73.30305355343119800
16.009497869018204596614 388.78665946058390546 16.009497869018204596614 73.77370907281927259
17.009497869018204596614 392.63527224006617189 17.009497869018204596614 74.29603561633675213
18.009497869018204596614 396.24730630065494097 18.009497869018204596614 74.67244119215698106
19.009497869018204596614 399.66766383238382332 19.009497869018204596614 75.03733560479788878
20.009497869018204596614 402.90384791761454153 20.009497869018204596614 75.38695231807227515
21.009497869018204596614 405.96530989684464430 21.009497869018204596614 75.81085521458840049
22.009497869018190385759 408.85840464012704842 22.009497869018190385759 76.19409923057470735
23.009497869018190385759 411.62219797539665933 23.009497869018190385759 76.43827820390164618
24.009497869018190385759 414.27005150649898724 24.009497869018190385759 76.68984262941549446
25.009497869018190385759 416.79988188602510490 25.009497869018190385759 77.02991567467223888
26.009497869018190385759 419.21601432733791626 26.009497869018190385759 77.24457488818667628
27.009497869018204596614 421.51832116888215296 27.009497869018204596614 77.50950689677550542
28.009497869018190385759 423.72013511241260630 28.009497869018190385759 77.69349115721163912
29.009497869018190385759 425.84124765779546351 29.009497869018190385759 77.62082785253724637
30.009497869018190385759 427.88619166152420803 30.009497869018190385759 77.60935603359121160
31.009497869018190385759 429.85203898575338144 31.009497869018190385759 77.64277189933017098
32.009497869018190385759 431.73993416855074656 32.009497869018190385759 77.73040937479929369
33.009497869018218807469 433.54126078316795656 33.009497869018218807469 77.69089948925115152
34.009497869018190385759 435.26519395321838601 34.009497869018190385759 77.75555167865886119
35.009497869018218807469 436.92468167408435420 35.009497869018218807469 77.77804539371270209
36.009497869018190385759 438.53054667381479703 36.009497869018190385759 77.72812249532796613
37.009497869018218807469 440.09307219759756435 37.009497869018218807469 77.67190005290548527
38.009497869018190385759 441.60654297539088020 38.009497869018190385759 77.71569115250794368
39.009497869018190385759 443.07109644559380968 39.009497869018190385759 77.88678835829759350
40.009497869018190385759 444.48738696394417502 40.009497869018190385759 78.08741324351254320
41.009497869018190385759 445.85801506383080550 41.009497869018190385759 78.23500308415339077
42.009497869018190385759 447.18313048458441017 42.009497869018190385759 78.42720450348249983
43.009497869018190385759 448.46631485165443110 43.009497869018190385759 78.54059197360690803
44.009497869018218807469 449.71782466681088408 44.009497869018218807469 78.60356411074666028
46.009497869018218807469 452.13157612724944556 46.009497869018218807469 78.76810316553080327
48.009497869018218807469 454.43362433249967580 48.009497869018218807469 78.89988298296373159
50.009497869018218807469 456.61236101760658812 50.009497869018218807469 79.18687802521259300
52.009497869018190385759 458.67270854847731698 52.009497869018190385759 79.27619695426986368
54.009497869018190385759 460.61679359716947602 54.009497869018190385759 79.25140304789351831
56.009497869018190385759 462.47165781303374388 56.009497869018190385759 79.02687476380367571
58.009497869018190385759 464.25006320750327404 58.009497869018190385759 78.15992948505800086
60.009497869018190385759 465.95082845681025674 60.009497869018190385759 77.57122096725494487
62.009497869018190385759 467.56340388230023564 62.009497869018190385759 76.99674272133182740
64.009497869018190385759 469.08590597375604148 64.009497869018190385759 76.43816483229069547
66.009497869018218807469 470.52572264045892325 66.009497869018218807469 75.90466293306772627
68.009497869018218807469 471.85243420330164099 68.009497869018218807469 75.16140144287030012
70.009497869018218807469 473.10615300168973363 70.009497869018218807469 74.67380536248128919
72.009497869018218807469 474.30402552682176065 72.009497869018218807469 74.30460416535296986
74.009497869018190385759 475.45683218987579721 74.009497869018190385759 73.81416272332232609
76.009497869018190385759 476.55995022799663730 76.009497869018190385759 73.33310468345534616
78.009497869018190385759 477.61168210706364334 78.009497869018190385759 73.21550002687679637
80.009497869018190385759 478.62291293993962427 80.009497869018190385759 72.86233858876251190
82.009497869018190385759 479.61923501450189633 82.009497869018190385759 72.54868693620217357
84.009497869018190385759 480.58256810929788116 84.009497869018190385759 72.49966739425613582
86.009497869018190385759 481.51579727701573574 86.009497869018190385759 72.45587991416064710
88.009497869018218807469 482.41713305520079302 88.009497869018218807469 72.35486087317853787
91.009497869018190385759 483.71179792873874703 91.009497869018190385759 72.06659427474562563
94.009497869018218807469 484.93857920977245612 94.009497869018218807469 71.60447029843170696
97.009497869018190385759 486.10109519108618770 97.009497869018190385759 70.18091077549816248
99.504748934509109403734 486.99560004391349821 99.504748934509109403734 72.66802071723549261
nan nan nan nan

