Time Pressure difference Time.1 Pressure.1 difference.1
(hr) (psi) (hr) (psi)
0.000200000000006639311 0.17314323026916950 0.000200000000006639311 0.13917232379054773
0.000399999999999067768 0.34369300315636769 0.000399999999999067768 0.35293171928073969
0.000600000000005707079 0.51214354610864177 0.000600000000005707079 0.51115023331777776
0.000799999999998135536 0.67872438330597518 0.000799999999998135536 0.66923626579864337
0.001007140329434719206 0.84944142650224630 0.001007140329434719206 0.83211986891605572
0.001267914553963578328 1.06192575359562458 0.001267914553963578328 1.03448337360412612
0.001596209851982166583 1.32583238097443257 0.001596209851982166583 1.28304835267719852
0.002009509145224797066 1.65278160810931984 0.002009509145224797066 1.58694936175277546
0.002529822128138903281 2.05663439664626235 0.002529822128138903281 1.95646672224169782
0.003184857364431081805 2.55374428967142730 0.003184857364431081805 2.40284520465626894
0.004009497869020606231 3.16314912613912025 0.004009497869020606231 2.93791589939225783
0.005047658755842121536 3.90664859178874746 0.005047658755842121536 3.57343368652657478
0.006354625877790454069 4.80869050550413579 0.006354625877790454069 4.32005448295415118
0.008000000000009777068 5.89597694549396323 0.008000000000009777068 5.18589573306033724
0.010071403294347192059 7.19668706598423480 0.010071403294347192059 6.17462020437637005
0.012679145539706837553 8.73920011091622584 0.012679145539706837553 7.28312558244878616
0.015962098519750611558 10.55025349929105616 0.015962098519750611558 8.49907409244508294
0.020095091452091651263 12.65252743750701470 0.020095091452091651263 9.79871477736835139
0.025298221281360611101 15.06179951348655699 0.025298221281360611101 11.14554123712458278
0.031848573644296607199 17.78391090160595311 0.031848573644296607199 12.49124015457032399
0.040094978690177640601 20.81235792114710037 0.040094978690177640601 13.77875019914697319
0.050476587558421215363 24.12666768721186017 0.050476587558421215363 14.94923536456813551
0.063546258777961384112 27.69320177362674684 0.063546258777961384112 15.95090260379222080
0.079999999999998294697 31.46759300985689833 0.079999999999998294697 16.74839040845705185
0.100714032943542974863 35.39987137472672885 0.100714032943542974863 17.33095478983786109
0.126791455396897845276 39.44066614254560932 0.126791455396897845276 17.71394487264957718
0.159620985197506115583 43.54700373033255545 0.159620985197506115583 17.93552283638510048
0.200950914520760193227 47.68698755843391268 0.200950914520760193227 18.04796039182772915
0.252982212813478213320 51.84157386813933499 0.252982212813478213320 18.10600254815543408
0.318485736442795541734 56.00387821705550095 0.318485736442795541734 18.15742665427555025
0.400949786901833249431 60.17658842122349938 0.400949786901833249431 18.23721171096606142
0.504765875584155310207 64.36857016896381367 0.504765875584155310207 18.36504755769741948
0.635462587779443310865 68.59111781853390255 0.635462587779443310865 18.55019017994155206
0.799999999999997157829 72.85676490076870948 0.799999999999997157829 18.79229528473924660
1.007140329435344483500 77.17589911632782673 1.007140329435344483500 19.08588145529811086
1.267914553968893187630 81.55757894697310917 1.267914553968893187630 19.42702141926784520
1.596209851975103788391 86.00916519853490172 1.596209851975103788391 19.81168455809074302
2.009509145207672986544 90.53630892764354599 2.009509145207672986544 20.23808202417067648
2.529822128134711078928 95.14355948706756294 2.529822128134711078928 20.70703577317675936
3.184857364427998049905 99.83440185833886460 3.184857364427998049905 21.22061298497982307
4.009497869018190385759 104.61109947857839586 4.009497869018190385759 21.77753949433307312
5.009497869018204596614 109.31111155431096904 5.009497869018204596614 22.34737598404645809
6.009497869018204596614 113.20744571605425222 6.009497869018204596614 22.83525936071565354
7.009497869018204596614 116.53840679039674910 7.009497869018204596614 23.26052526071907423
8.009497869018204596614 119.44697240494126333 8.009497869018204596614 23.63657621524319197
9.009497869018204596614 122.02819560669527732 9.009497869018204596614 23.97090357928039595
10.009497869018190385759 124.34668611151315076 10.009497869018190385759 24.26692152988609052
11.009497869018190385759 126.44912632687817222 11.009497869018190385759 24.53912998847744831
12.009497869018190385759 128.37141766613680716 12.009497869018190385759 24.77505502991346020
13.009497869018190385759 130.14216768115048239 13.009497869018190385759 24.99985991168338728
14.009497869018190385759 131.77821800689181941 14.009497869018190385759 25.21968884552665813
15.009497869018190385759 133.30244570108649782 15.009497869018190385759 25.40204826109002312
16.009497869018204596614 134.72805030812313021 16.009497869018204596614 25.56514670840271819
17.009497869018204596614 136.06172800398334743 17.009497869018204596614 25.74615095615629912
18.009497869018204596614 137.31342297547448084 18.009497869018204596614 25.87658853193558883
19.009497869018204596614 138.49869538745974751 19.009497869018204596614 26.00303709077154579
20.009497869018204596614 139.62014531798524786 20.009497869018204596614 26.12419139735178319
21.009497869018204596614 140.68104798405508404 21.009497869018204596614 26.27108844069895000
22.009497869018190385759 141.68360556836086062 22.009497869018190385759 26.40389577297143475
23.009497869018190385759 142.64135573404834645 23.009497869018190385759 26.48851224887680544
24.009497869018190385759 143.55892873987588132 24.009497869018190385759 26.57568803989645900
25.009497869018190385759 144.43560263377105457 25.009497869018190385759 26.69353513478741036
26.009497869018190385759 145.27287625204780852 26.009497869018190385759 26.76792199095577729
27.009497869018204596614 146.07070535555325819 27.009497869018204596614 26.85973011274398914
28.009497869018190385759 146.83371018746970549 28.009497869018190385759 26.92348703467729720
29.009497869018190385759 147.56874918834495247 29.009497869018190385759 26.89830668157231486
30.009497869018190385759 148.27739315003313436 30.009497869018190385759 26.89433129876923090
31.009497869018190385759 148.95862737130067899 31.009497869018190385759 26.90591105422332774
32.009497869018190385759 149.61284847425025646 32.009497869018190385759 26.93628047641560030
33.009497869018218807469 150.23707056842454222 33.009497869018218807469 26.92258893191871394
34.009497869018190385759 150.83447315210537454 34.009497869018190385759 26.94499315597089151
35.009497869018218807469 151.40954315438568756 35.009497869018218807469 26.95278800772222283
36.009497869018190385759 151.96603102557938314 36.009497869018190385759 26.93548799343048117
37.009497869018218807469 152.50750026649421898 37.009497869018218807469 26.91600496882863425
38.009497869018190385759 153.03197033800674376 38.009497869018190385759 26.93118010235423654
39.009497869018190385759 153.53948886728500156 39.009497869018190385759 26.99047121327144083
40.009497869018190385759 154.03028261126777920 40.009497869018190385759 27.05999468834593102
41.009497869018190385759 154.50525274489186245 41.009497869018190385759 27.11113968262741380
42.009497869018190385759 154.96445115802430337 42.009497869018190385759 27.17774413487017782
43.009497869018190385759 155.40911900799906675 43.009497869018190385759 27.21703682253704315
44.009497869018218807469 155.84281052810277401 44.009497869018218807469 27.23885885025874032
46.009497869018218807469 156.67925905399732756 46.009497869018218807469 27.29587733458988197
48.009497869018218807469 157.47699853106422552 48.009497869018218807469 27.34154360795772831
50.009497869018218807469 158.23200629323000044 50.009497869018218807469 27.44099733546971009
52.009497869018190385759 158.94598811085847956 52.009497869018190385759 27.47194943959847180
54.009497869018190385759 159.61968094951416219 54.009497869018190385759 27.46335749184428821
56.009497869018190385759 160.26245567778397572 56.009497869018190385759 27.38555066072404998
58.009497869018190385759 160.87873477487738683 58.009497869018190385759 27.08512407898049190
60.009497869018190385759 161.46810887117186439 60.009497869018190385759 26.88111617677152054
62.009497869018190385759 162.02692213743077332 62.009497869018190385759 26.68203955689716622
64.009497869018190385759 162.55452187209368731 64.009497869018190385759 26.48847296168489862
66.009497869018218807469 163.05346824174318954 66.009497869018218807469 26.30359606591456156
68.009497869018218807469 163.51321977342138325 68.009497869018218807469 26.04603020297486182
70.009497869018218807469 163.94767678276375023 70.009497869018218807469 25.87706126422618880
72.009497869018218807469 164.36278112315605426 72.009497869018218807469 25.74912025532033510
74.009497869018190385759 164.76226858065001579 74.009497869018190385759 25.57916530016119694
76.009497869018190385759 165.14453720772164047 76.009497869018190385759 25.41246201901917701
78.009497869018190385759 165.50899874997256234 78.009497869018190385759 25.37170793010582415
80.009497869018190385759 165.85942527621668319 80.009497869018190385759 25.24932525353156620
82.009497869018190385759 166.20468540106503497 82.009497869018190385759 25.14063408680273071
84.009497869018190385759 166.53851370124183973 84.009497869018190385759 25.12364711682143437
86.009497869018190385759 166.86190994748068306 86.009497869018190385759 25.10847323758041938
88.009497869018218807469 167.17425402903000986 88.009497869018218807469 25.07346663922028540
91.009497869018190385759 167.62290027233521528 91.009497869018190385759 24.97357227342669717
94.009497869018218807469 168.04802249843598361 94.009497869018218807469 24.81343030143672834
97.009497869018190385759 168.45087457116849805 97.009497869018190385759 24.32011759546966090
99.504748934509109403734 168.76085150036607274 99.504748934509109403734 25.18198737725982284
nan nan nan nan

