Time Pressure difference Time.1 Pressure.1 difference.1
(hr) (psi) (hr) (psi)
0.000200000000006639311 0.00906940729981364 0.000200000000006639311 0.00728997886521917
0.000399999999999067768 0.01800296683200021 0.000399999999999067768 0.01848689958137208
0.000600000000005707079 0.02682656670092886 0.000600000000005707079 0.02677453603093122
0.000799999999998135536 0.03555222960174156 0.000799999999998135536 0.03505523297040513
0.001007140329434719206 0.04449455091202243 0.001007140329434719206 0.04358723122893626
0.001267914553963578328 0.05562468233119938 0.001267914553963578328 0.05418722433164470
0.001596209851982166583 0.06944836281294647 0.001596209851982166583 0.06720729466404372
0.002009509145224797066 0.08657427471048819 0.002009509145224797066 0.08312591894895492
0.002529822128138903281 0.10772846839575659 0.002529822128138903281 0.10248159021266035
0.003184857364431081805 0.13376755803040810 0.003184857364431081805 0.12586332024389976
0.004009497869020606231 0.16568876375014438 0.004009497869020606231 0.15389083282530874
0.005047658755842121536 0.20463397385560106 0.005047658755842121536 0.18717985977043966
0.006354625877790454069 0.25188378838354997 0.006354625877790454069 0.22628856815474127
0.008000000000009777068 0.30883688762111239 0.008000000000009777068 0.27164215744601766
0.010071403294347192059 0.37696932250393611 0.010071403294347192059 0.32343248689590509
0.012679145539706837553 0.45776762485751660 0.012679145539706837553 0.38149705431874592
0.015962098519750611558 0.55263232615334101 0.015962098519750611558 0.44518959531855190
0.020095091452091651263 0.66275143720274854 0.020095091452091651263 0.51326601214786605
0.025298221281360611101 0.78895140308739109 0.025298221281360611101 0.58381406480176390
0.031848573644296607199 0.93153819008412153 0.031848573644296607199 0.65430305571558833
0.040094978690177640601 1.09017112920294323 0.040094978690177640601 0.72174405805055575
0.050476587558421215363 1.26377783123490683 0.050476587558421215363 0.78305518576309274
0.063546258777961384112 1.45059628338044866 0.063546258777961384112 0.83552346972244962
0.079999999999998294697 1.64830249099250414 0.079999999999998294697 0.87729664044298838
0.100714032943542974863 1.85427897677140030 0.100714032943542974863 0.90781191756293544
0.126791455396897845276 2.06593965508572230 0.126791455396897845276 0.92787330285307323
0.159620985197506115583 2.28103352873170540 0.159620985197506115583 0.93947976762017193
0.200950914520760193227 2.49788982448939523 0.200950914520760193227 0.94536935385764309
0.252982212813478213320 2.71551101214063140 0.252982212813478213320 0.94840965728433213
0.318485736442795541734 2.93353647803624051 0.318485736442795541734 0.95110330093824313
0.400949786901833249431 3.15210701254027859 0.400949786901833249431 0.95528251819346033
0.504765875584155310207 3.37168700885048533 0.504765875584155310207 0.96197868159367439
0.635462587779443310865 3.59286807620891890 0.635462587779443310865 0.97167662847312897
0.799999999999997157829 3.81630673289740852 0.799999999999997157829 0.98435832443872251
1.007140329435344483500 4.04254709656955225 1.007140329435344483500 0.99973664765847248
1.267914553968893187630 4.27206365912716191 1.267914553968893187630 1.01760588386641082
1.596209851975103788391 4.50524198658992336 1.596209851975103788391 1.03775490542380089
2.009509145207672986544 4.74237808668609073 2.009509145207672986544 1.06009001078989251
2.529822128134711078928 4.98371025884639618 2.529822128134711078928 1.08465425478544919
3.184857364427998049905 5.22942104972251176 3.184857364427998049905 1.11155591826084787
4.009497869018190385759 5.47962902030648813 4.009497869018190385759 1.14072825922697052
5.009497869018204596614 5.72582012903533677 5.009497869018204596614 1.17057683725957618
6.009497869018204596614 5.92991382322188887 6.009497869018204596614 1.19613263318034391
7.009497869018204596614 6.10439273663982984 7.009497869018204596614 1.21840846603766573
8.009497869018204596614 6.25674617359216256 8.009497869018204596614 1.23810637317940531
9.009497869018204596614 6.39195310320784849 9.009497869018204596614 1.25561875891468744
10.009497869018190385759 6.51339784393640375 10.009497869018190385759 1.27112446108927135
11.009497869018190385759 6.62352566474123705 11.009497869018190385759 1.28538299939643785
12.009497869018190385759 6.72421711584526083 12.009497869018190385759 1.29774097775737163
13.009497869018190385759 6.81697068806026341 13.009497869018190385759 1.30951647156436790
14.009497869018190385759 6.90266856226576131 14.009497869018190385759 1.32103132047996774
15.009497869018190385759 6.98250906053310239 15.009497869018190385759 1.33058348034281049
16.009497869018204596614 7.05718358756835418 16.009497869018204596614 1.33912673234490431
17.009497869018204596614 7.12704289544674641 17.009497869018204596614 1.34860790722723478
18.009497869018204596614 7.19260787014390068 18.009497869018204596614 1.35544035167281640
19.009497869018204596614 7.25469356791455766 19.009497869018204596614 1.36206384761184274
20.009497869018204596614 7.31343618332303613 20.009497869018204596614 1.36841002557556934
21.009497869018204596614 7.36900727535526467 21.009497869018204596614 1.37610463260804039
22.009497869018190385759 7.42152219643794986 22.009497869018190385759 1.38306120715564651
23.009497869018190385759 7.47169006225967447 23.009497869018190385759 1.38749349875068995
24.009497869018190385759 7.51975341018397447 24.009497869018190385759 1.39205984970886210
25.009497869018190385759 7.56567442367372234 25.009497869018190385759 1.39823279277457857
26.009497869018190385759 7.60953161320250260 26.009497869018190385759 1.40212924714530263
27.009497869018204596614 7.65132266148135987 27.009497869018204596614 1.40693824400087575
28.009497869018190385759 7.69128958124841411 28.009497869018190385759 1.41027789229262046
29.009497869018190385759 7.72979162415140308 29.009497869018190385759 1.40895892141569279
30.009497869018190385759 7.76691106976364054 30.009497869018190385759 1.40875068707838835
31.009497869018190385759 7.80259476706813082 31.009497869018190385759 1.40935724569741239
32.009497869018190385759 7.83686349150834616 32.009497869018190385759 1.41094802495510274
33.009497869018218807469 7.86956083929842798 33.009497869018218807469 1.41023084881478966
34.009497869018190385759 7.90085335558647195 34.009497869018190385759 1.41140440340799911
35.009497869018218807469 7.93097606999162963 35.009497869018218807469 1.41181270516640223
36.009497869018190385759 7.96012543467320555 36.009497869018190385759 1.41090651394159661
37.009497869018218807469 7.98848810919731545 37.009497869018218807469 1.40988597455769016
38.009497869018190385759 8.01596035103844784 38.009497869018190385759 1.41068086250426949
39.009497869018190385759 8.04254465495302284 39.009497869018190385759 1.41378658736183738
40.009497869018190385759 8.06825289868545603 40.009497869018190385759 1.41742829319907249
41.009497869018190385759 8.09313228663719286 41.009497869018190385759 1.42010731670905499
42.009497869018190385759 8.11718553684889166 42.009497869018190385759 1.42359612135034275
43.009497869018190385759 8.14047766232376091 43.009497869018190385759 1.42565430975194052
44.009497869018218807469 8.16319483718633698 44.009497869018218807469 1.42679736834688642
46.009497869018218807469 8.20700880759033602 46.009497869018218807469 1.42978405085946991
48.009497869018218807469 8.24879516115098355 48.009497869018218807469 1.43217609375016663
50.009497869018218807469 8.28834318678823934 50.009497869018218807469 1.43738557471508011
52.009497869018190385759 8.32574223437830163 52.009497869018190385759 1.43900687540753891
54.009497869018190385759 8.36103090687931427 54.009497869018190385759 1.43855682100136750
56.009497869018190385759 8.39470005931249474 56.009497869018190385759 1.43448122508554543
58.009497869018190385759 8.42698134535071830 58.009497869018190385759 1.41874459461326397
60.009497869018190385759 8.45785332182328808 60.009497869018190385759 1.40805846640231769
62.009497869018190385759 8.48712449291303983 62.009497869018190385759 1.39763064345651822
64.009497869018190385759 8.51476066949062194 64.009497869018190385759 1.38749144085016130
66.009497869018218807469 8.54089595551988090 66.009497869018218807469 1.37780741297647702
68.009497869018218807469 8.56497817860778632 68.009497869018218807469 1.36431586777487368
70.009497869018218807469 8.58773545052572196 70.009497869018218807469 1.35546511384041946
72.009497869018218807469 8.60947901121293668 72.009497869018218807469 1.34876344194535092
74.009497869018190385759 8.63040454470071516 74.009497869018190385759 1.33986103953225344
76.009497869018190385759 8.65042813945208522 76.009497869018190385759 1.33112896290100458
78.009497869018190385759 8.66951898214141892 78.009497869018190385759 1.32899422491030506
80.009497869018190385759 8.68787465732563646 80.009497869018190385759 1.32258370375641521
82.009497869018190385759 8.70595971148435943 82.009497869018190385759 1.31689035692776235
84.009497869018190385759 8.72344595577933468 84.009497869018190385759 1.31600056326207526
86.009497869018190385759 8.74038575915374949 86.009497869018190385759 1.31520574101611731
88.009497869018218807469 8.75674663961585686 88.009497869018218807469 1.31337206205439583
91.009497869018190385759 8.78024715712232151 91.009497869018190385759 1.30813950003663648
94.009497869018218807469 8.80251546420379150 94.009497869018218807469 1.29975111102763807
97.009497869018190385759 8.82361723944215903 97.009497869018190385759 1.27391092166745845
99.504748934509109403734 8.83985412620965150 99.504748934509109403734 1.31905648166599065
nan nan nan nan

