Time Pressure difference Time.1 Pressure.1 difference.1
(hr) (psi) (hr) (psi)
0.000200000000006639311 0.25311891282207161 0.000200000000006639311 0.20345668287475313
0.000399999999999067768 0.50244643794764232 0.000399999999999067768 0.51595256104374798
0.000600000000005707079 0.74870508883501441 0.000600000000005707079 0.74725296013598952
0.000799999999998135536 0.99223040797587791 0.000799999999998135536 0.97835968381039751
0.001007140329434719206 1.24180246636280778 0.001007140329434719206 1.21647999884394808
0.001267914553963578328 1.55243431597074633 0.001267914553963578328 1.51231616998317486
0.001596209851982166583 1.93824067123405142 0.001596209851982166583 1.87569449653285680
0.002009509145224797066 2.41620930328362471 0.002009509145224797066 2.31996882884810551
0.002529822128138903281 3.00660361795429720 0.002529822128138903281 2.86016801775333862
0.003184857364431081805 3.73333093775775327 0.003184857364431081805 3.51273084680702086
0.004009497869020606231 4.62422277011766614 0.004009497869020606231 4.29495324339725393
0.005047658755842121536 5.71114817942450248 0.005047658755842121536 5.22401972268408876
0.006354625877790454069 7.02984754852271188 0.006354625877790454069 6.31550822031868808
0.008000000000009777068 8.61935677269831757 0.008000000000009777068 7.58128566690249261
0.010071403294347192059 10.52087109170076218 0.010071403294347192059 9.02670667973116991
0.012679145539706837553 12.77587825738705440 0.012679145539706837553 10.64723597053227344
0.015962098519750611558 15.42346582991597259 0.015962098519750611558 12.42483688752685822
0.020095091452091651263 18.49679011102216108 0.020095091452091651263 14.32478779358135412
0.025298221281360611101 22.01891643162082346 0.025298221281360611101 16.29371980855831836
0.031848573644296607199 25.99838403234775441 0.031848573644296607199 18.26100346406233044
0.040094978690177640601 30.42568515139123164 0.040094978690177640601 20.14322052922914708
0.050476587558421215363 35.27089038082876726 0.050476587558421215363 21.85435836629722672
0.063546258777961384112 40.48482354525434346 0.063546258777961384112 23.31870047316291306
0.079999999999998294697 46.00262406679079419 0.079999999999998294697 24.48455169236340367
0.100714032943542974863 51.75124053352907794 0.100714032943542974863 25.33620533562010735
0.126791455396897845276 57.65849764648334030 0.126791455396897845276 25.89610036144485861
0.159620985197506115583 63.66157212005759902 0.159620985197506115583 26.22002624176298013
0.200950914520760193227 69.71383419256767411 0.200950914520760193227 26.38439923948149257
0.252982212813478213320 75.78744370247035533 0.252982212813478213320 26.46925134420817827
0.318485736442795541734 81.87233625064780540 0.318485736442795541734 26.54442848982187542
0.400949786901833249431 87.97244116816959547 0.400949786901833249431 26.66106664412657778
0.504765875584155310207 94.10071924700901036 0.504765875584155310207 26.84795047720527705
0.635462587779443310865 100.27368176328529614 0.635462587779443310865 27.11861135829551017
0.799999999999997157829 106.50965154540949698 0.799999999999997157829 27.47254596388071235
1.007140329435344483500 112.82381442244114567 1.007140329435344483500 27.90174098465009678
1.267914553968893187630 119.22941303200353502 1.267914553968893187630 28.40045512245346870
1.596209851975103788391 125.73720817119149729 1.596209851975103788391 28.96279599682789652
2.009509145207672986544 132.35546114660272110 2.009509145207672986544 29.58614848295427535
2.529822128134711078928 139.09082267871303884 2.529822128134711078928 30.27171420173935701
3.184857364427998049905 145.94838747861919614 3.184857364427998049905 31.02251517328002350
4.009497869018190385759 152.93146447582651604 4.009497869018190385759 31.83668868933454377
5.009497869018204596614 159.80243451034985469 5.009497869018204596614 32.66973536715362769
6.009497869018204596614 165.49850397537454683 6.009497869018204596614 33.38297439876050277
7.009497869018204596614 170.36805183167524547 7.009497869018204596614 34.00467264305121518
8.009497869018204596614 174.62009775389034871 8.009497869018204596614 34.55442332418885343
9.009497869018204596614 178.39360024407358196 9.009497869018204596614 35.04317808970991877
10.009497869018190385759 181.78301255349779808 10.009497869018190385759 35.47592814130965877
11.009497869018190385759 184.85657991595999761 11.009497869018190385759 35.87387098315512901
12.009497869018190385759 187.66678677859047752 12.009497869018190385759 36.21877092468300674
13.009497869018190385759 190.25545465768186659 13.009497869018190385759 36.54741425184190717
14.009497869018190385759 192.64720441959897812 14.009497869018190385759 36.86878321703182593
15.009497869018190385759 194.87548014396932672 15.009497869018190385759 37.13537531502208111
16.009497869018204596614 196.95957830758950990 16.009497869018204596614 37.37380971180778033
17.009497869018204596614 198.90928808201374522 17.009497869018204596614 37.63842068352373360
18.009497869018204596614 200.73914692128886372 18.009497869018204596614 37.82910799668679402
19.009497869018204596614 202.47190230452449100 19.009497869018204596614 38.01396374698506975
20.009497869018204596614 204.11135529819745216 20.009497869018204596614 38.19107980469998154
21.009497869018204596614 205.66229395764239030 21.009497869018204596614 38.40582929187894479
22.009497869018190385759 207.12793766422277031 22.009497869018190385759 38.59998096334395257
23.009497869018190385759 208.52807719215635984 23.009497869018190385759 38.72368219240561160
24.009497869018190385759 209.86948153877091272 24.009497869018190385759 38.85112489642006040
25.009497869018190385759 211.15109527889390506 25.009497869018190385759 39.02340612561778244
26.009497869018190385759 212.37510956846983845 26.009497869018190385759 39.13215262487344859
27.009497869018204596614 213.54145973407065640 27.009497869018204596614 39.26636735529717015
28.009497869018190385759 214.65690013120573099 28.009497869018190385759 39.35957390307586223
29.009497869018190385759 215.73145714677099249 29.009497869018190385759 39.32276262496524311
30.009497869018190385759 216.76742712885794617 30.009497869018190385759 39.31695099391502168
31.009497869018190385759 217.76332668090145717 31.009497869018190385759 39.33387949355505953
32.009497869018190385759 218.71973562664200585 32.009497869018190385759 39.37827669647423079
33.009497869018218807469 219.63228887860157101 33.009497869018218807469 39.35826096237639860
34.009497869018190385759 220.50563456045881594 34.009497869018190385759 39.39101380420506615
35.009497869018218807469 221.34633213522096185 35.009497869018218807469 39.40240913509867937
36.009497869018190385759 222.15986440406126690 36.009497869018190385759 39.37711816182456204
37.009497869018218807469 222.95144086577963094 37.009497869018218807469 39.34863583538280807
38.009497869018190385759 223.71816616080033668 38.009497869018190385759 39.37082043534643105
39.009497869018190385759 224.46010991550713243 39.009497869018190385759 39.45749839273491943
40.009497869018190385759 225.17760362694863829 40.009497869018190385759 39.55913509201047873
41.009497869018190385759 225.87196472705622341 41.009497869018190385759 39.63390420269816872
42.009497869018190385759 226.54326907387363121 42.009497869018190385759 39.73127356859593107
43.009497869018190385759 227.19333112121768181 43.009497869018190385759 39.78871573580416054
44.009497869018218807469 227.82734681965501977 44.009497869018218807469 39.82061746204492181
46.009497869018218807469 229.05015490274848844 46.009497869018218807469 39.90397305580520992
48.009497869018218807469 230.21637404303197627 48.009497869018218807469 39.97073279830010506
50.009497869018218807469 231.32012348581719152 50.009497869018218807469 40.11612467613905864
52.009497869018190385759 232.36389690492168825 52.009497869018190385759 40.16137370455585653
54.009497869018190385759 233.34877167381355889 54.009497869018190385759 40.14881309521998531
56.009497869018190385759 234.28844710990324529 56.009497869018190385759 40.03506691829658592
58.009497869018190385759 235.18938845660647985 58.009497869018190385759 39.59587186784290935
60.009497869018190385759 236.05099725452268444 60.009497869018190385759 39.29763174413741211
62.009497869018190385759 236.86792902948212713 62.009497869018190385759 39.00660068555919224
64.009497869018190385759 237.63922959396552415 64.009497869018190385759 38.72362475827268469
66.009497869018218807469 238.36864166769123585 66.009497869018218807469 38.45335234397985857
68.009497869018218807469 239.04075462114457196 68.009497869018218807469 38.07681558244420472
70.009497869018218807469 239.67588939194510544 70.009497869018218807469 37.82979908627352472
72.009497869018218807469 240.28273240385195209 72.009497869018218807469 37.64276151611115750
74.009497869018190385759 240.86674502028361644 74.009497869018190385759 37.39430355785470539
76.009497869018190385759 241.42558534652638969 76.009497869018190385759 37.15059923732803782
78.009497869018190385759 241.95839341067417649 78.009497869018190385759 37.09102064067850790
80.009497869018190385759 242.47068361808823056 80.009497869018190385759 36.91210882301994900
82.009497869018190385759 242.97542103869980679 82.009497869018190385759 36.75321268880209402
84.009497869018190385759 243.46344622038688499 84.009497869018190385759 36.72837935649609875
86.009497869018190385759 243.93622073274556783 86.009497869018190385759 36.70619659017709324
88.009497869018218807469 244.39283803291527875 88.009497869018218807469 36.65502027733632673
91.009497869018190385759 245.04871611241387086 91.009497869018190385759 36.50898422829522616
94.009497869018218807469 245.67020431914215806 94.009497869018218807469 36.27487191686226708
97.009497869018190385759 246.25913568261302089 97.009497869018190385759 35.55369572290088342
99.504748934509109403734 246.71229243148755472 99.504748934509109403734 36.81366726104174347
nan nan nan nan

