Time Pressure difference Time.1 Pressure.1 difference.1
(hr) (psi) (hr) (psi)
0.000200000000006639311 0.75358529745724245 0.000200000000006639311 0.60573097116457442
0.000399999999999067768 1.49588288040438133 0.000399999999999067768 1.53609329248855286
0.000600000000005707079 2.22904381496808845 0.000600000000005707079 2.22472053929737568
0.000799999999998135536 2.95406707781743494 0.000799999999998135536 2.91277117590457157
0.001007140329434719206 3.69709268487168163 0.001007140329434719206 3.62170266756797599
0.001267914553963578328 4.62190542279238503 0.001267914553963578328 4.50246573082938717
0.001596209851982166583 5.77052760100300599 0.001596209851982166583 5.58431521117599772
0.002009509145224797066 7.19353518958056348 0.002009509145224797066 6.90700817448588911
0.002529822128138903281 8.95125637397468310 0.002529822128138903281 8.51528849585196035
0.003184857364431081805 11.11486800361754490 0.003184857364431081805 10.45809770026585461
0.004009497869020606231 13.76723000614835968 0.004009497869020606231 12.78692920021202006
0.005047658755842121536 17.00322291854721257 0.005047658755842121536 15.55294471183471217
0.006354625877790454069 20.92925296205133279 0.006354625877790454069 18.80252284485759162
0.008000000000009777068 25.66153775324515252 0.008000000000009777068 22.57099380960546853
0.010071403294347192059 31.32272370623614322 0.010071403294347192059 26.87429936571429678
0.012679145539706837553 38.03632810179728807 0.012679145539706837553 31.69893705884852508
0.015962098519750611558 45.91872237310489169 0.015962098519750611558 36.99120819283240280
0.020095091452091651263 55.06861941848291764 0.020095091452091651263 42.64773955483178014
0.025298221281360611101 65.55468931107958497 0.025298221281360611101 48.50964138443747231
0.031848573644296607199 77.40235506698974177 0.031848573644296607199 54.36663572036798087
0.040094978690177640601 90.58331019013546381 0.040094978690177640601 59.97036991438253750
0.050476587558421215363 105.00844888624590112 0.050476587558421215363 65.06476725340607459
0.063546258777961384112 120.53136390997545391 0.063546258777961384112 69.42440466602900528
0.079999999999998294697 136.95895243337716352 0.079999999999998294697 72.89537539680830491
0.100714032943542974863 154.07372588809633385 0.100714032943542974863 75.43091751386572241
0.126791455396897845276 171.66080406803183678 0.126791455396897845276 77.09783625524626416
0.159620985197506115583 189.53314956916167944 0.159620985197506115583 78.06222796407610076
0.200950914520760193227 207.55193632575520724 0.200950914520760193227 78.55159903871688698
0.252982212813478213320 225.63427864513974441 0.252982212813478213320 78.80422061435268688
0.318485736442795541734 243.75021281137489382 0.318485736442795541734 79.02803791432310732
0.400949786901833249431 261.91143722380132886 0.400949786901833249431 79.37529287534754019
0.504765875584155310207 280.15653873539486085 0.504765875584155310207 79.93168317969258396
0.635462587779443310865 298.53467469590469818 0.635462587779443310865 80.73749440222181306
0.799999999999997157829 317.10039580620286870 0.799999999999997157829 81.79122804881748721
1.007140329435344483500 335.89891329677919884 1.007140329435344483500 83.06902690544033874
1.267914553968893187630 354.96965313111149953 1.267914553968893187630 84.55379798671815195
1.596209851975103788391 374.34465234028999703 1.596209851975103788391 86.22799850521400344
2.009509145207672986544 394.04850647555332444 2.009509145207672986544 88.08384271472380078
2.529822128134711078928 414.10101605323689000 2.529822128134711078928 90.12490807944550397
3.184857364427998049905 434.51734904057963149 3.184857364427998049905 92.36019175367408707
4.009497869018190385759 455.30735677819359353 4.009497869018190385759 94.78414808485919707
5.009497869018204596614 475.76359981257246545 5.009497869018204596614 97.26429356865934039
6.009497869018204596614 492.72193040225516825 6.009497869018204596614 99.38774788425766360
7.009497869018204596614 507.21954193534588740 7.009497869018204596614 101.23866708712968432
8.009497869018204596614 519.87872751483962475 8.009497869018204596614 102.87538409872512091
9.009497869018204596614 531.11319421199755197 9.009497869018204596614 104.33050414982039911
10.009497869018190385759 541.20414812344301936 10.009497869018190385759 105.61888703959945701
11.009497869018190385759 550.35476887031734350 11.009497869018190385759 106.80364194984947801
12.009497869018190385759 558.72131308023358542 12.009497869018190385759 107.83047760638524437
13.009497869018190385759 566.42829171700725510 13.009497869018190385759 108.80891409180294715
14.009497869018190385759 573.54900599190057164 14.009497869018190385759 109.76569335624459711
15.009497869018190385759 580.18302557520496521 15.009497869018190385759 110.55939100302990141
16.009497869018204596614 586.38779991249782597 16.009497869018204596614 111.26925757847659781
17.009497869018204596614 592.19247331257508904 17.009497869018204596614 112.05705701869932511
18.009497869018204596614 597.64032666468415300 18.009497869018204596614 112.62477103899584563
19.009497869018204596614 602.79908373399143784 19.009497869018204596614 113.17512333792949164
20.009497869018204596614 607.68006105065956035 20.009497869018204596614 113.70243303418821768
21.009497869018204596614 612.29751360679199479 21.009497869018204596614 114.34178492761351720
22.009497869018190385759 616.66102614038959473 22.009497869018190385759 114.91981303093281497
23.009497869018190385759 620.82951971866748409 23.009497869018190385759 115.28809616892095846
24.009497869018190385759 624.82314699165033289 24.009497869018190385759 115.66751842126363670
25.009497869018190385759 628.63876574888934101 25.009497869018190385759 116.18043387236043884
26.009497869018190385759 632.28289949700797479 26.009497869018190385759 116.50419380825513826
27.009497869018204596614 635.75535569036026118 27.009497869018204596614 116.90377772880003704
28.009497869018190385759 639.07624338736820846 28.009497869018190385759 117.18127214140500314
29.009497869018190385759 642.27541313403469303 29.009497869018190385759 117.07167765217664623
30.009497869018190385759 645.35970161490604369 30.009497869018190385759 117.05437527178608548
31.009497869018190385759 648.32469246366099469 31.009497869018190385759 117.10477477885771691
32.009497869018190385759 651.17211193078435372 32.009497869018190385759 117.23695407354217934
33.009497869018218807469 653.88896428352393286 33.009497869018218807469 117.17736325606524872
34.009497869018190385759 656.48908790963969295 34.009497869018190385759 117.27487497408283446
35.009497869018218807469 658.99201163385009750 35.009497869018218807469 117.30880113837196177
36.009497869018190385759 661.41405884466450971 36.009497869018190385759 117.23350488569266759
37.009497869018218807469 663.77073925512240749 37.009497869018218807469 117.14870734052080081
38.009497869018190385759 666.05343280446743393 38.009497869018190385759 117.21475530262749487
39.009497869018190385759 668.26234678427852032 39.009497869018190385759 117.47281280442902585
40.009497869018190385759 670.39846812713687996 40.009497869018190385759 117.77540545308656306
41.009497869018190385759 672.46571908967223408 41.009497869018190385759 117.99800795200692960
42.009497869018190385759 674.46432551635336949 42.009497869018190385759 118.28789590129210296
43.009497869018190385759 676.39968939671973658 43.009497869018190385759 118.45891264666124698
44.009497869018218807469 678.28728010802831250 44.009497869018218807469 118.55389042445948178
46.009497869018218807469 681.92782273977877594 46.009497869018218807469 118.80205658959596349
48.009497869018218807469 685.39988884472711561 48.009497869018218807469 119.00081360796839647
50.009497869018218807469 688.68597024767723269 50.009497869018218807469 119.43367411723484395
52.009497869018190385759 691.79349111106967030 52.009497869018190385759 119.56838946568095139
54.009497869018190385759 694.72565898979030408 54.009497869018190385759 119.53099403593179773
56.009497869018190385759 697.52325947378358251 56.009497869018190385759 119.19234906619895753
58.009497869018190385759 700.20554087732341486 58.009497869018190385759 117.88477813422937857
60.009497869018190385759 702.77072146786235862 60.009497869018190385759 116.99685802651984545
62.009497869018190385759 705.20288968386535089 62.009497869018190385759 116.13040073811433217
64.009497869018190385759 707.49920471949349121 64.009497869018190385759 115.28792517609521440
66.009497869018218807469 709.67080939501556713 66.009497869018218807469 114.48327049640909081
68.009497869018218807469 711.67182320431970766 68.009497869018218807469 113.36224574056676317
70.009497869018218807469 713.56274561640998400 70.009497869018218807469 112.62682855001303039
72.009497869018218807469 715.36943784078403041 72.009497869018218807469 112.06998053982279373
74.009497869018190385759 717.10815944149578627 74.009497869018190385759 111.33027183022541351
76.009497869018190385759 718.77193813265512290 76.009497869018190385759 110.60471564468348049
78.009497869018190385759 720.35821360702334459 78.009497869018190385759 110.42733832436535124
80.009497869018190385759 721.88340334505744522 80.009497869018190385759 109.89468229394215371
82.009497869018190385759 723.38610693606392488 82.009497869018190385759 109.42161693017951052
84.009497869018190385759 724.83905487111917409 84.009497869018190385759 109.34768316559423340
86.009497869018190385759 726.24659853332070725 86.009497869018190385759 109.28164066261193454
88.009497869018218807469 727.60603896444479233 88.009497869018218807469 109.12927861070161839
91.009497869018190385759 729.55871832816364986 91.009497869018190385759 108.69450027577144624
94.009497869018218807469 731.40901220747855405 94.009497869018218807469 107.99750140720557567
97.009497869018190385759 733.16237789546664771 97.009497869018190385759 105.85041658218700888
99.504748934509109403734 734.51151557778382539 99.504748934509109403734 109.60160220388323182
nan nan nan nan

