Time Pressure difference Time.1 Pressure.1 difference.1
(hr) (psi) (hr) (psi)
0.000200000000006639311 0.37431917401049025 0.000200000000006639311 0.30087730952813652
0.000399999999999067768 0.74303154015709971 0.000399999999999067768 0.76300476454026578
0.000600000000005707079 1.10720557111106355 0.000600000000005707079 1.10505812345843402
0.000799999999998135536 1.46733747629006062 0.000799999999998135536 1.44682506986944803
0.001007140329434719206 1.83641146491438012 0.001007140329434719206 1.79896390708518727
0.001267914553963578328 2.29578234348768362 0.001267914553963578328 2.23645453150606333
0.001596209851982166583 2.86632333791615457 0.001596209851982166583 2.77382834340689577
0.002009509145224797066 3.57315642896014873 0.002009509145224797066 3.43083338207504829
0.002529822128138903281 4.44624769560668121 0.002529822128138903281 4.22969472332252749
0.003184857364431081805 5.52095194052775184 0.003184857364431081805 5.19472249006640929
0.004009497869020606231 6.83842715841505022 0.004009497869020606231 6.35149437297183450
0.005047658755842121536 8.44580219367662544 0.005047658755842121536 7.72542330325269067
0.006354625877790454069 10.39593090237560702 0.006354625877790454069 9.33954635838659364
0.008000000000009777068 12.74654063454409147 0.008000000000009777068 11.21141268004472913
0.010071403294347192059 15.55855203788972396 0.010071403294347192059 13.34894082279462779
0.012679145539706837553 18.89331833502841462 0.012679145539706837553 15.74542387824642198
0.015962098519750611558 22.80864327941971581 0.015962098519750611558 18.37418875223841397
0.020095091452091651263 27.35355931727707102 0.020095091452091651263 21.18388813773919566
0.025298221281360611101 32.56217609106140998 0.025298221281360611101 24.09559867454552773
0.031848573644296607199 38.44712166347192550 0.031848573644296607199 27.00487157226155688
0.040094978690177640601 44.99433569619419870 0.040094978690177640601 29.78834566863202227
0.050476587558421215363 52.15955776187706761 0.050476587558421215363 32.31882312149492265
0.063546258777961384112 59.87006478679305843 0.063546258777961384112 34.48433229581746673
0.079999999999998294697 68.02993917369062160 0.079999999999998294697 36.20842497828333961
0.100714032943542974863 76.53115049583779239 0.100714032943542974863 37.46787368850660727
0.126791455396897845276 85.26696394626526398 0.126791455396897845276 38.29586177229956689
0.159620985197506115583 94.14447473129037292 0.159620985197506115583 38.77489222723255580
0.200950914520760193227 103.09472548347142151 0.200950914520760193227 39.01797151376090511
0.252982212813478213320 112.07654541016788130 0.252982212813478213320 39.14345312791698461
0.318485736442795541734 121.07505100258666175 0.318485736442795541734 39.25462714781476592
0.400949786901833249431 130.09605306302606209 0.400949786901833249431 39.42711484180282611
0.504765875584155310207 139.15871836528367567 0.504765875584155310207 39.70348376759347531
0.635462587779443310865 148.28746423625901230 0.635462587779443310865 40.10374448425459804
0.799999999999997157829 157.50938697594759219 0.799999999999997157829 40.62715266319818141
1.007140329435344483500 166.84694380387063006 1.007140329435344483500 41.26185800335877474
1.267914553968893187630 176.31971829488472281 1.267914553968893187630 41.99937011594095537
1.596209851975103788391 185.94362381016591712 1.596209851975103788391 42.83097518749141841
2.009509145207672986544 195.73087739595320045 2.009509145207672986544 43.75280589987374924
2.529822128134711078928 205.69131431966033574 2.529822128134711078928 44.76663924296308750
3.184857364427998049905 215.83246877945640563 3.184857364427998049905 45.87694426276590320
4.009497869018190385759 226.15923411083139172 4.009497869018190385759 47.08096633536769815
5.009497869018204596614 236.32021259836750460 5.009497869018204596614 48.31289855598614480
6.009497869018204596614 244.74371597661252054 6.009497869018204596614 49.36765595126146167
7.009497869018204596614 251.94493658495295563 7.009497869018204596614 50.28704032555457104
8.009497869018204596614 258.23297843734923163 8.009497869018204596614 51.10002667485908745
9.009497869018204596614 263.81333716876025619 9.009497869018204596614 51.82281059520619237
10.009497869018190385759 268.82569283155697804 10.009497869018190385759 52.46277321222992640
11.009497869018190385759 273.37096834477466700 11.009497869018190385759 53.05126197508934638
12.009497869018190385759 277.52677914488629085 12.009497869018190385759 53.56130944562242746
13.009497869018190385759 281.35497203448721848 13.009497869018190385759 54.04731619002028253
14.009497869018190385759 284.89195702442327729 14.009497869018190385759 54.52256540890048342
15.009497869018190385759 288.18719213472985530 15.009497869018190385759 54.91680909778509090
16.009497869018204596614 291.26921352327570958 16.009497869018204596614 55.26941240768968555
17.009497869018204596614 294.15249768480208559 17.009497869018204596614 55.66072635283314440
18.009497869018204596614 296.85854300412097473 18.009497869018204596614 55.94271996904169697
19.009497869018204596614 299.42098907574631994 19.009497869018204596614 56.21608971052515358
20.009497869018204596614 301.84545702078713703 20.009497869018204596614 56.47801378284623297
21.009497869018204596614 304.13902754648091786 21.009497869018204596614 56.79559120036820730
22.009497869018190385759 306.30646156207535569 22.009497869018190385759 57.08270800442395654
23.009497869018190385759 308.37702620599020520 23.009497869018190385759 57.26564076661938429
24.009497869018190385759 310.36073165668403817 24.009497869018190385759 57.45410652434757992
25.009497869018190385759 312.25601712253359210 25.009497869018190385759 57.70888071996896684
26.009497869018190385759 314.06612294490332715 26.009497869018190385759 57.86969801854248630
27.009497869018204596614 315.79095348295794565 27.009497869018204596614 58.06817843421796255
28.009497869018190385759 317.44049726243451914 28.009497869018190385759 58.20601482734996779
29.009497869018190385759 319.02958157861240807 29.009497869018190385759 58.15157730206586706
30.009497869018190385759 320.56160233388118286 30.009497869018190385759 58.14298290305348615
31.009497869018190385759 322.03436584081191540 31.009497869018190385759 58.16801723151138503
32.009497869018190385759 323.44872955861717401 32.009497869018190385759 58.23367302996515349
33.009497869018218807469 324.79823827649875057 33.009497869018218807469 58.20407321471950013
34.009497869018190385759 326.08976576693260085 34.009497869018190385759 58.25250901338468879
35.009497869018218807469 327.33301234329093177 35.009497869018218807469 58.26936074050423997
36.009497869018190385759 328.53608612196683225 36.009497869018190385759 58.23195975722589424
37.009497869018218807469 329.70669105232553875 37.009497869018218807469 58.18983931356284955
38.009497869018190385759 330.84054539740509426 38.009497869018190385759 58.22264650699440125
39.009497869018190385759 331.93775212260663920 39.009497869018190385759 58.35082824202492446
40.009497869018190385759 332.99880145483604110 40.009497869018190385759 58.50113137385262974
41.009497869018190385759 334.02564164848052997 41.009497869018190385759 58.61170198053736158
42.009497869018190385759 335.01838488449061515 42.009497869018190385759 58.75569446300504950
43.009497869018190385759 335.97971442681705412 43.009497869018190385759 58.84064151158008826
44.009497869018218807469 336.91731418932698716 44.009497869018218807469 58.88781865722604181
46.009497869018218807469 338.72563624054657794 46.009497869018218807469 59.01108719001813085
48.009497869018218807469 340.45027301477699666 48.009497869018218807469 59.10981332387051168
50.009497869018218807469 342.08252789107820035 50.009497869018218807469 59.32482281096785215
52.009497869018190385759 343.62608858252258415 52.009497869018190385759 59.39173831227478928
54.009497869018190385759 345.08254833847348664 54.009497869018190385759 59.37316333951098812
56.009497869018190385759 346.47216608435206808 56.009497869018190385759 59.20495238080342659
58.009497869018190385759 347.80450279902061084 58.009497869018190385759 58.55545872312924871
60.009497869018190385759 349.07867346434301226 60.009497869018190385759 58.11441306787747152
62.009497869018190385759 350.28677452568365425 62.009497869018190385759 57.68402837538720718
64.009497869018190385759 351.42739490443108252 64.009497869018190385759 57.26555583145211159
66.009497869018218807469 352.50606943691144579 66.009497869018218807469 56.86586959012005593
68.009497869018218807469 353.50000846253954023 68.009497869018218807469 56.30903672452659947
70.009497869018218807469 354.43926313987975618 70.009497869018218807469 55.94374197123185866
72.009497869018218807469 355.33667919006114744 72.009497869018218807469 55.66714569483539066
74.009497869018190385759 356.20033302673863318 74.009497869018190385759 55.29971926796754644
76.009497869018190385759 357.02676139193147264 76.009497869018190385759 54.93932265064145781
78.009497869018190385759 357.81469253565495592 78.009497869018190385759 54.85121619175259156
80.009497869018190385759 358.57228131143995142 80.009497869018190385759 54.58663650049204819
82.009497869018190385759 359.31870081944532558 82.009497869018190385759 54.35165654956400516
84.009497869018190385759 360.04040581125610743 84.009497869018190385759 54.31493233827109890
86.009497869018190385759 360.73955769598205734 86.009497869018190385759 54.28212785648339178
88.009497869018218807469 361.41481585323623449 88.009497869018218807469 54.20644692479052651
91.009497869018190385759 362.38474630304853008 91.009497869018190385759 53.99048481969391133
94.009497869018218807469 363.30382006804728690 94.009497869018218807469 53.64427312786797586
97.009497869018190385759 364.17474788243094963 97.009497869018190385759 52.57777803972964392
99.504748934509109403734 364.84488848174379427 99.504748934509109403734 54.44105842512362159
nan nan nan nan

