Time Pressure difference Time.1 Pressure.1 difference.1
(hr) (psi) (hr) (psi)
0.000200000000006639311 0.85169979460977185 0.000200000000006639311 0.68459528797921809
0.000399999999999067768 1.69064224885965642 0.000399999999999067768 1.73608793341430534
0.000600000000005707079 2.51925849109631894 0.000600000000005707079 2.51437233817744987
0.000799999999998135536 3.33867756169082064 0.000799999999998135536 3.29200505985713621
0.001007140329434719206 4.17844282655628785 0.001007140329434719206 4.09323725995374144
0.001267914553963578328 5.22366334982990566 0.001267914553963578328 5.08867297587172462
0.001596209851982166583 6.52183261688851879 0.001596209851982166583 6.31137594435974325
0.002009509145224797066 8.13011143417584492 0.002009509145224797066 7.80627947947912926
0.002529822128138903281 10.11668253207423263 0.002529822128138903281 9.62395297178892228
0.003184857364431081805 12.56198976776468790 0.003184857364431081805 11.81970998290440633
0.004009497869020606231 15.55968117762719594 0.004009497869020606231 14.45174820986763109
0.005047658755842121536 19.21699045389417293 0.005047658755842121536 17.57789046753310558
0.006354625877790454069 23.65417758183701125 0.006354625877790454069 21.25055371853161290
0.008000000000009777068 29.00259135569173097 0.008000000000009777068 25.50966805833965978
0.010071403294347192059 35.40084637696054415 0.010071403294347192059 30.37325081486090994
0.012679145539706837553 42.98854149798314950 0.012679145539706837553 35.82604155556950332
0.015962098519750611558 51.89719935603648082 0.015962098519750611558 41.80735017855128177
0.020095091452091651263 62.23838496640355800 0.020095091452091651263 48.20034459534051052
0.025298221281360611101 74.08970903538863695 0.025298221281360611101 54.82544808547473991
0.031848573644296607199 87.47990457789977370 0.031848573644296607199 61.44500514129116198
0.040094978690177640601 102.37697967878547445 0.040094978690177640601 67.77832836056582266
0.050476587558421215363 118.68022724233262011 0.050476587558421215363 73.53600062666134818
0.063546258777961384112 136.22417824836392697 0.063546258777961384112 78.46324947484458789
0.079999999999998294697 154.79058847229606499 0.079999999999998294697 82.38612996160064483
0.100714032943542974863 174.13365300044148398 0.100714032943542974863 85.25179189477384512
0.126791455396897845276 194.01051488214102392 0.126791455396897845276 87.13573834974769738
0.159620985197506115583 214.20978501635013913 0.159620985197506115583 88.22569090469434627
0.200950914520760193227 234.57456260886777955 0.200950914520760193227 88.77877659408594013
0.252982212813478213320 255.01117050375205508 0.252982212813478213320 89.06428872497410509
0.318485736442795541734 275.48574380103968906 0.318485736442795541734 89.31724635174592208
0.400949786901833249431 296.01150399582797945 0.400949786901833249431 89.70971284489496611
0.504765875584155310207 316.63206183114107262 0.504765875584155310207 90.33854346238778987
0.635462587779443310865 337.40297479307389494 0.635462587779443310865 91.24926883752202400
0.799999999999997157829 358.38589591663844658 0.799999999999997157829 92.44019537683639953
1.007140329435344483500 379.63192279603163115 1.007140329435344483500 93.88435973010928137
1.267914553968893187630 401.18561453439627940 1.267914553968893187630 95.56244345763658998
1.596209851975103788391 423.08317928612643755 1.596209851975103788391 97.45461975479874184
2.009509145207672986544 445.35241486788470411 2.009509145207672986544 99.55208919508719134
2.529822128134711078928 468.01569976257513872 2.529822128134711078928 101.85889501757900177
3.184857364427998049905 491.09017676030492794 3.184857364427998049905 104.38520577849598681
4.009497869018190385759 514.58697981605473615 4.009497869018190385759 107.12475379831460032
5.009497869018204596614 537.70656302668203352 5.009497869018204596614 109.92780662628567256
6.009497869018204596614 556.87281630801930987 6.009497869018204596614 112.32772818866320108
7.009497869018204596614 573.25797244990405943 7.009497869018204596614 114.41963140153715983
8.009497869018204596614 587.56534521097296420 8.009497869018204596614 116.26944395402959742
9.009497869018204596614 600.26250505579150740 9.009497869018204596614 117.91401617807929370
10.009497869018190385759 611.66727025330044398 10.009497869018190385759 119.37014257320157640
11.009497869018190385759 622.00927378888161456 11.009497869018190385759 120.70914894332003087
12.009497869018190385759 631.46511642437769751 12.009497869018190385759 121.86967545666954038
13.009497869018190385759 640.17552006965911460 13.009497869018190385759 122.97550137509018953
14.009497869018190385759 648.22332952913927784 14.009497869018190385759 124.05685036870970350
15.009497869018190385759 655.72107813915408769 15.009497869018190385759 124.95388501764757905
16.009497869018204596614 662.73369508710095488 16.009497869018204596614 125.75617404657147347
17.009497869018204596614 669.29411918149901339 17.009497869018204596614 126.64654256052122605
18.009497869018204596614 675.45126635078634081 18.009497869018204596614 127.28817120709268806
19.009497869018204596614 681.28167778688532508 19.009497869018204596614 127.91017768936670507
20.009497869018204596614 686.79814339751783336 20.009497869018204596614 128.50614149268758979
21.009497869018204596614 692.01677413108996006 21.009497869018204596614 129.22873504400959632
22.009497869018190385759 696.94840262912737217 22.009497869018190385759 129.88202063561661248
23.009497869018190385759 701.65962130129491925 23.009497869018190385759 130.29825310995116183
24.009497869018190385759 706.17320661091332568 24.009497869018190385759 130.72707497720494985
25.009497869018190385759 710.48560724135961664 25.009497869018190385759 131.30677044873999648
26.009497869018190385759 714.60419603983507386 26.009497869018190385759 131.67268293646341704
27.009497869018204596614 718.52875539184049103 27.009497869018204596614 132.12429145935493580
28.009497869018190385759 722.28201249360108704 28.009497869018190385759 132.43791479438880287
29.009497869018190385759 725.89770434076353922 29.009497869018190385759 132.31405143840095207
30.009497869018190385759 729.38355773325815790 30.009497869018190385759 132.29449634108863165
31.009497869018190385759 732.73458130739811622 31.009497869018190385759 132.35145770958428102
32.009497869018190385759 735.95272606619278122 32.009497869018190385759 132.50084634351102864
33.009497869018218807469 739.02330427229787801 33.009497869018218807469 132.43349698415252647
34.009497869018190385759 741.96195602916600365 34.009497869018190385759 132.54370442913298689
35.009497869018218807469 744.79075275466846051 35.009497869018218807469 132.58204767608120278
36.009497869018190385759 747.52814309249288272 36.009497869018190385759 132.49694808196994700
37.009497869018218807469 750.19165607280240238 37.009497869018218807469 132.40111015619035584
38.009497869018190385759 752.77154932933797227 38.009497869018190385759 132.47575736062822216
39.009497869018190385759 755.26805714240663292 39.009497869018190385759 132.76741315861619341
40.009497869018190385759 757.68229494018862624 40.009497869018190385759 133.10940244314926417
41.009497869018190385759 760.01869564511093813 41.009497869018190385759 133.36098710549580915
42.009497869018190385759 762.27751450590051263 42.009497869018190385759 133.68861757771853149
43.009497869018190385759 764.46485683458593030 43.009497869018190385759 133.88190017943222188
44.009497869018218807469 766.59820607395317893 44.009497869018218807469 133.98924377293943166
46.009497869018218807469 770.71273620371061952 46.009497869018218807469 134.26972041253023349
48.009497869018218807469 774.63685467899688319 48.009497869018218807469 134.49435498581109982
50.009497869018218807469 778.35077381384087403 50.009497869018218807469 134.98357260733433804
52.009497869018190385759 781.86288437388952843 52.009497869018190385759 135.13582748145341839
54.009497869018190385759 785.17681152784825827 54.009497869018190385759 135.09356328131022451
56.009497869018190385759 788.33865102452784868 56.009497869018190385759 134.71082777394258301
58.009497869018190385759 791.37015724975401554 58.009497869018190385759 133.23301511231832706
60.009497869018190385759 794.26931649485970865 60.009497869018190385759 132.22949052669036973
62.009497869018190385759 797.01814556174281279 62.009497869018190385759 131.25022315368940440
64.009497869018190385759 799.61343378034655416 64.009497869018190385759 130.29805985438335370
66.009497869018218807469 802.06777473200338591 66.009497869018218807469 129.38864160042734852
68.009497869018218807469 804.32931440925847255 68.009497869018218807469 128.12166285558583922
70.009497869018218807469 806.46642912664276537 70.009497869018218807469 127.29049659974121766
72.009497869018218807469 808.50834714390578029 72.009497869018218807469 126.66114868450431175
74.009497869018190385759 810.47344497053086343 74.009497869018190385759 125.82513216698342262
76.009497869018190385759 812.35384255036387913 76.009497869018190385759 125.00511078879434024
78.009497869018190385759 814.14664623200792448 78.009497869018190385759 124.80463948475865266
80.009497869018190385759 815.87041100158023710 80.009497869018190385759 124.20263327094335182
82.009497869018190385759 817.56876199666749017 82.009497869018190385759 123.66797624603439942
84.009497869018190385759 819.21087930182284254 84.009497869018190385759 123.58441653179306741
86.009497869018190385759 820.80168083689318337 86.009497869018190385759 123.50977549724082394
88.009497869018218807469 822.33811624756174297 88.009497869018218807469 123.33757637292644915
91.009497869018190385759 824.54502848248705504 91.009497869018190385759 122.84619123071323088
94.009497869018218807469 826.63622495659228662 94.009497869018218807469 122.05844524468638213
97.009497869018190385759 828.61787348579559875 97.009497869018190385759 119.63181655295313988
99.504748934509109403734 830.14266476132456773 99.504748934509109403734 123.87139505099713688
nan nan nan nan

