Time Pressure difference Time.1 Pressure.1 difference.1
(hr) (psi) (hr) (psi)
0.000200000000006639311 0.03545313762654423 0.000200000000006639311 0.02849719010949311
0.000399999999999067768 0.07037523397963720 0.000399999999999067768 0.07226697109081812
0.000600000000005707079 0.10486748801272189 0.000600000000005707079 0.10466409539364022
0.000799999999998135536 0.13897689753408063 0.000799999999998135536 0.13703409252067458
0.001007140329434719206 0.17393324447426947 0.001007140329434719206 0.17038644934947808
0.001267914553963578328 0.21744194002196121 0.001267914553963578328 0.21182278602370200
0.001596209851982166583 0.27147996372333622 0.001596209851982166583 0.26271942459580733
0.002009509145224797066 0.33842671023190835 0.002009509145224797066 0.32494677407318739
0.002529822128138903281 0.42112037645613937 0.002529822128138903281 0.40060985264949051
0.003184857364431081805 0.52290954502795883 0.003184857364431081805 0.49201116095342645
0.004009497869020606231 0.64769244011420080 0.004009497869020606231 0.60157325558984331
0.005047658755842121536 0.79993280689007673 0.005047658755842121536 0.73170308819353680
0.006354625877790454069 0.98463662731751356 0.006354625877790454069 0.88458258460489769
0.008000000000009777068 1.20727146979162114 0.008000000000009777068 1.06187388819806894
0.010071403294347192059 1.47360735160629575 0.010071403294347192059 1.26432699422944728
0.012679145539706837553 1.78945526080665585 0.012679145539706837553 1.49130666688237046
0.015962098519750611558 2.16029000223578782 0.015962098519750611558 1.74028659988161194
0.020095091452091651263 2.59075561815619837 0.020095091452091651263 2.00640350203256723
0.025298221281360611101 3.08408275752343775 0.025298221281360611101 2.28218225331598612
0.031848573644296607199 3.64146747032883855 0.031848573644296607199 2.55773012688820911
0.040094978690177640601 4.26157805052059580 0.040094978690177640601 2.82136313601580868
0.050476587558421215363 4.94022243119099969 0.050476587558421215363 3.06103390798299912
0.063546258777961384112 5.67051274412357209 0.063546258777961384112 3.26613719982412132
0.079999999999998294697 6.44336428297069741 0.079999999999998294697 3.42943232173168200
0.100714032943542974863 7.24854509101547340 0.100714032943542974863 3.54871931410965669
0.126791455396897845276 8.07594592442600501 0.126791455396897845276 3.62714109297110454
0.159620985197506115583 8.91676743049666598 0.159620985197506115583 3.67251181887885414
0.200950914520760193227 9.76447840482218155 0.200950914520760193227 3.69553474689805928
0.252982212813478213320 10.61517941109519647 0.252982212813478213320 3.70741956938420802
0.318485736442795541734 11.46746077777803308 0.318485736442795541734 3.71794926730404107
0.400949786901833249431 12.32187286720290764 0.400949786901833249431 3.73428620748352724
0.504765875584155310207 13.18023103459735346 0.504765875584155310207 3.76046211895709082
0.635462587779443310865 14.04484793427122824 0.635462587779443310865 3.79837227494041318
0.799999999999997157829 14.91828995587168905 0.799999999999997157829 3.84794617735136990
1.007140329435344483500 15.80268410477188823 1.007140329435344483500 3.90806144084675644
1.267914553968893187630 16.69988521295163508 1.267914553968893187630 3.97791390965960634
1.596209851975103788391 17.61140049303333655 1.596209851975103788391 4.05667826665667608
2.009509145207672986544 18.53838706613653642 2.009509145207672986544 4.14398822399685329
2.529822128134711078928 19.48177646639954830 2.529822128134711078928 4.24001208688857467
3.184857364427998049905 20.44228228527891034 3.184857364427998049905 4.34517313501967806
4.009497869018190385759 21.42036798847081158 4.009497869018190385759 4.45921046788724862
5.009497869018204596614 22.38275141350176867 5.009497869018204596614 4.57589127292379771
6.009497869018204596614 23.18057221804920331 6.009497869018204596614 4.67579120243225344
7.009497869018204596614 23.86262615231933637 7.009497869018204596614 4.76286945814723861
8.009497869018204596614 24.45818958767845075 8.009497869018204596614 4.83987036788312963
9.009497869018204596614 24.98672576708522186 9.009497869018204596614 4.90832787575741403
10.009497869018190385759 25.46146429902412223 10.009497869018190385759 4.96894107516715167
11.009497869018190385759 25.89196396217029417 11.009497869018190385759 5.02467899764062143
12.009497869018190385759 26.28557599830420344 12.009497869018190385759 5.07298745850608945
13.009497869018190385759 26.64815814423557327 13.009497869018190385759 5.11901893429707489
14.009497869018190385759 26.98315892522070314 14.009497869018190385759 5.16403152551260103
15.009497869018190385759 27.29526269117485171 15.009497869018190385759 5.20137178679462320
16.009497869018204596614 27.58717220594902031 16.009497869018204596614 5.23476813553008125
17.009497869018204596614 27.86025859129182791 17.009497869018204596614 5.27183091007009974
18.009497869018204596614 28.11655803783524732 18.009497869018204596614 5.29853955653919240
19.009497869018204596614 28.35925667457508936 19.009497869018204596614 5.32443140430084050
20.009497869018204596614 28.58888689844459563 20.009497869018204596614 5.34923919088631727
21.009497869018204596614 28.80611934911603811 21.009497869018204596614 5.37931810928597542
22.009497869018190385759 29.01140494971198436 22.009497869018190385759 5.40651199160843632
23.009497869018190385759 29.20751569792417968 23.009497869018190385759 5.42383822238905999
24.009497869018190385759 29.39539969435553957 24.009497869018190385759 5.44168850340737009
25.009497869018190385759 29.57490911072455120 25.009497869018190385759 5.46581909902789764
26.009497869018190385759 29.74635085160978321 26.009497869018190385759 5.48105069338618289
27.009497869018204596614 29.90971585851804448 27.009497869018204596614 5.49984949927615041
28.009497869018190385759 30.06595018124379948 28.009497869018190385759 5.51290448805297117
29.009497869018190385759 30.21645816713730071 29.009497869018190385759 5.50774851098861706
30.009497869018190385759 30.36156145453059452 30.009497869018190385759 5.50693450403370033
31.009497869018190385759 30.50105227126632812 31.009497869018190385759 5.50930559681715781
32.009497869018190385759 30.63501183044171938 32.009497869018190385759 5.51552409755176587
33.009497869018218807469 30.76282873543931018 33.009497869018218807469 5.51272059082145116
34.009497869018190385759 30.88515402638348561 34.009497869018190385759 5.51730812241308755
35.009497869018218807469 31.00290645542182588 35.009497869018218807469 5.51890421110502682
36.009497869018190385759 31.11685397190435154 36.009497869018190385759 5.51536182722624169
37.009497869018218807469 31.22772624504405314 37.009497869018218807469 5.51137244599824339
38.009497869018190385759 31.33511773587757077 38.009497869018190385759 5.51447973524396318
39.009497869018190385759 31.43903819663454513 39.009497869018190385759 5.52662029605081884
40.009497869018190385759 31.53953405849768998 40.009497869018190385759 5.54085605523273816
41.009497869018190385759 31.63678984776356984 41.009497869018190385759 5.55132860168085163
42.009497869018190385759 31.73081618950021010 42.009497869018190385759 5.56496665618770248
43.009497869018190385759 31.82186722544742707 43.009497869018190385759 5.57301230175758544
44.009497869018218807469 31.91067072718295350 44.009497869018218807469 5.57748062171964687
46.009497869018218807469 32.08194352058040977 46.009497869018218807469 5.58915583517792847
48.009497869018218807469 32.24529017540839249 48.009497869018218807469 5.59850654829610583
50.009497869018218807469 32.39988700289947587 50.009497869018218807469 5.61887088297713078
52.009497869018190385759 32.54608327984244909 52.009497869018190385759 5.62520869477492536
54.009497869018190385759 32.68402990871004477 54.009497869018190385759 5.62344939118716347
56.009497869018190385759 32.81564568640338564 56.009497869018190385759 5.60751751624349559
58.009497869018190385759 32.94183616818917670 58.009497869018190385759 5.54600159712457685
60.009497869018190385759 33.06251753076376332 60.009497869018190385759 5.50422855048178761
62.009497869018190385759 33.17694119956916410 62.009497869018190385759 5.46346524260275324
64.009497869018190385759 33.28497352619061189 64.009497869018190385759 5.42383017786881272
66.009497869018218807469 33.38713873521408004 66.009497869018218807469 5.38597443254441011
68.009497869018218807469 33.48127833455771452 68.009497869018218807469 5.33323475584723283
70.009497869018218807469 33.57023857932782107 70.009497869018218807469 5.29863635410345868
72.009497869018218807469 33.65523613474147879 72.009497869018218807469 5.27243890942273552
74.009497869018190385759 33.73703594746643120 74.009497869018190385759 5.23763860908062640
76.009497869018190385759 33.81530999967633022 76.009497869018190385759 5.20350412770392712
78.009497869018190385759 33.88993783928009407 78.009497869018190385759 5.19515924283119279
80.009497869018190385759 33.96169184227294124 80.009497869018190385759 5.17009993286598668
82.009497869018190385759 34.03238796307522307 82.009497869018190385759 5.14784412253579760
84.009497869018190385759 34.10074328168285263 84.009497869018190385759 5.14436583820629334
86.009497869018190385759 34.16696251305557297 86.009497869018190385759 5.14125880579027683
88.009497869018218807469 34.23091868213471400 88.009497869018218807469 5.13409078803082064
91.009497869018190385759 34.32278434147816171 91.009497869018190385759 5.11363622741594259
94.009497869018218807469 34.40983317825117638 94.009497869018218807469 5.08084525219894889
97.009497869018190385759 34.49232193600116858 97.009497869018190385759 4.97983360288188326
99.504748934509109403734 34.55579340245591169 99.504748934509109403734 5.15631170105796421
nan nan nan nan

