Time Pressure difference Time.1 Pressure.1 difference.1
(hr) (psi) (hr) (psi)
0.000200000000006639311 0.12532271905197032 0.000200000000006639311 0.10073425341030122
0.000399999999999067768 0.24876826895127568 0.000399999999999067768 0.25545533966986872
0.000600000000005707079 0.37069437623101692 0.000600000000005707079 0.36997540697286774
0.000799999999998135536 0.49126717267861064 0.000799999999998135536 0.48439958286377988
0.001007140329434719206 0.61483379442067354 0.001007140329434719206 0.60229628607257368
0.001267914553963578328 0.76863197403111871 0.001267914553963578328 0.74876891803727219
0.001596209851982166583 0.95965010432435127 0.001596209851982166583 0.92868261717587708
0.002009509145224797066 1.19629906872674585 0.002009509145224797066 1.14864906184010418
0.002529822128138903281 1.48861156328681843 0.002529822128138903281 1.41610924657494319
0.003184857364431081805 1.84842443823836633 0.003184857364431081805 1.73920224337025142
0.004009497869020606231 2.28951746272926782 0.004009497869020606231 2.12649150813153920
0.005047658755842121536 2.82766945691375993 0.005047658755842121536 2.58648533500971167
0.006354625877790454069 3.48057598493632669 0.006354625877790454069 3.12689657813824295
0.008000000000009777068 4.26756426530991639 0.008000000000009777068 3.75360072107224418
0.010071403294347192059 5.20903063823620815 0.010071403294347192059 4.46924890983432466
0.012679145539706837553 6.32551627075841072 0.012679145539706837553 5.27159565967721644
0.015962098519750611558 7.63637396139162128 0.015962098519750611558 6.15171077167453539
0.020095091452091651263 9.15801985952888842 0.020095091452091651263 7.09240307695233074
0.025298221281360611101 10.90187393357122225 0.025298221281360611101 8.06724889544255497
0.031848573644296607199 12.87216408116240629 0.031848573644296607199 9.04127858806995022
0.040094978690177640601 15.06418287625885100 0.040094978690177640601 9.97319062033495030
0.050476587558421215363 17.46311184979143860 0.050476587558421215363 10.82039893054455426
0.063546258777961384112 20.04460318852983747 0.063546258777961384112 11.54541521798294212
0.079999999999998294697 22.77654351189642057 0.079999999999998294697 12.12264448612129542
0.100714032943542974863 25.62276404265934815 0.100714032943542974863 12.54431013359692493
0.126791455396897845276 28.54752977936634650 0.126791455396897845276 12.82152200306064849
0.159620985197506115583 31.51973603338355900 0.159620985197506115583 12.98190224347874100
0.200950914520760193227 34.51629575658073890 0.200950914520760193227 13.06328561694197710
0.252982212813478213320 37.52342489503418221 0.252982212813478213320 13.10529708247440794
0.318485736442795541734 40.53614042377351012 0.318485736442795541734 13.14251834023754206
0.400949786901833249431 43.55638780964748236 0.400949786901833249431 13.20026752412781690
0.504765875584155310207 46.59058412229762070 0.504765875584155310207 13.29279632747622841
0.635462587779443310865 49.64690432579597257 0.635462587779443310865 13.42680432071959906
0.799999999999997157829 52.73442030912782741 0.799999999999997157829 13.60204230133507508
1.007140329435344483500 55.86065078896108815 1.007140329435344483500 13.81454276764434574
1.267914553968893187630 59.03215238066623982 1.267914553968893187630 14.06146312251767760
1.596209851975103788391 62.25425290560621505 1.596209851975103788391 14.33988596585615838
2.009509145207672986544 65.53104265238961545 2.009509145207672986544 14.64851651273306210
2.529822128134711078928 68.86581448587747900 2.529822128134711078928 14.98794970248984271
3.184857364427998049905 72.26109086889287880 3.184857364427998049905 15.35968177960444514
4.009497869018190385759 75.71851009878055550 4.009497869018190385759 15.76279049113631814
5.009497869018204596614 79.12042360121556328 5.009497869018204596614 16.17524356940505470
6.009497869018204596614 81.94062737542974162 6.009497869018204596614 16.52837820394656987
7.009497869018204596614 84.35160872447765712 7.009497869018204596614 16.83618971252047203
8.009497869018204596614 86.45685621690986977 8.009497869018204596614 17.10837897484269021
9.009497869018204596614 88.32517015341753108 9.009497869018204596614 17.35036830500295224
10.009497869018190385759 90.00331566166666164 10.009497869018190385759 17.56462891686993189
11.009497869018190385759 91.52508191278801064 11.009497869018190385759 17.76165599165986819
12.009497869018190385759 92.91645469167997362 12.009497869018190385759 17.93242078355640956
13.009497869018190385759 94.19814041683271455 13.009497869018190385759 18.09513669798035806
14.009497869018190385759 95.38232922403598479 14.009497869018190385759 18.25425097390500895
15.009497869018190385759 96.48557974554832128 15.009497869018190385759 18.38624445564611065
16.009497869018204596614 97.51744593730818167 16.009497869018204596614 18.50429666512958704
17.009497869018204596614 98.48277455526412894 17.009497869018204596614 18.63530926350360772
18.009497869018204596614 99.38876329653390940 18.009497869018204596614 18.72972122311528409
19.009497869018204596614 100.24667475663753180 19.009497869018204596614 18.82124589427273875
20.009497869018204596614 101.05839089682741871 20.009497869018204596614 18.90893853522605284
21.009497869018204596614 101.82628235036366959 21.009497869018204596614 19.01526401422019319
22.009497869018190385759 102.55194307805166432 22.009497869018190385759 19.11139122615075081
23.009497869018190385759 103.24517176940641150 23.009497869018190385759 19.17263743728225833
24.009497869018190385759 103.90931984981492064 24.009497869018190385759 19.23573610506791098
25.009497869018190385759 104.54386476349142754 25.009497869018190385759 19.32103495470326848
26.009497869018190385759 105.14989138243458910 26.009497869018190385759 19.37487686964417932
27.009497869018204596614 105.72736768592423573 27.009497869018204596614 19.44132846255755354
28.009497869018190385759 106.27963784997808716 28.009497869018190385759 19.48747632986166067
29.009497869018190385759 106.81166607918301281 29.009497869018190385759 19.46925055047138997
30.009497869018190385759 107.32458932764302517 30.009497869018190385759 19.46637313053773255
31.009497869018190385759 107.81767314494143761 31.009497869018190385759 19.47475466781878950
32.009497869018190385759 108.29120460993350150 32.009497869018190385759 19.49673634483415086
33.009497869018218807469 108.74302250666919178 33.009497869018218807469 19.48682627453163718
34.009497869018190385759 109.17542818628579937 34.009497869018190385759 19.50304266527416885
35.009497869018218807469 109.59166933079343664 35.009497869018218807469 19.50868465320846568
36.009497869018190385759 109.99446055184793636 36.009497869018190385759 19.49616273810206124
37.009497869018218807469 110.38638114527199718 37.009497869018218807469 19.48206073934262861
38.009497869018190385759 110.76599757798584278 38.009497869018190385759 19.49304464551354243
39.009497869018190385759 111.13334432298724153 39.009497869018190385759 19.53596011627266193
40.009497869018190385759 111.48858550910811971 40.009497869018190385759 19.58628186965990992
41.009497869018190385759 111.83237341535030396 41.009497869018190385759 19.62330110361603275
42.009497869018190385759 112.16474560009378081 42.009497869018190385759 19.67151004047746099
43.009497869018190385759 112.48660042483741961 43.009497869018190385759 19.69995046202681621
44.009497869018218807469 112.80051047748392534 44.009497869018218807469 19.71574545352061492
46.009497869018218807469 113.40593988670282499 46.009497869018218807469 19.75701597551267952
48.009497869018218807469 113.98335131772269335 48.009497869018218807469 19.79006965909321281
50.009497869018218807469 114.52983312652838777 50.009497869018218807469 19.86205521424474441
52.009497869018190385759 115.04661996595470441 52.009497869018190385759 19.88445864199508151
54.009497869018190385759 115.53424525869597517 54.009497869018190385759 19.87823970838253018
56.009497869018190385759 115.99949172868174685 56.009497869018190385759 19.82192238300026332
58.009497869018190385759 116.44556040848266321 58.009497869018190385759 19.60447076192873439
60.009497869018190385759 116.87215499246725869 60.009497869018190385759 19.45680789937747690
62.009497869018190385759 117.27662935661656718 62.009497869018190385759 19.31271434594461667
64.009497869018190385759 117.65851106932494474 64.009497869018190385759 19.17260900083859099
66.009497869018218807469 118.01965320354744904 66.009497869018218807469 19.03879334294768100
68.009497869018218807469 118.35242574076214339 68.009497869018218807469 18.85236471834370775
70.009497869018218807469 118.66688986180996324 70.009497869018218807469 18.73006339124943054
72.009497869018218807469 118.96734633676057058 72.009497869018218807469 18.63745847051757565
74.009497869018190385759 119.25649916313717824 74.009497869018190385759 18.51444345535477254
76.009497869018190385759 119.53318883606517886 76.009497869018190385759 18.39378203281388124
78.009497869018190385759 119.79698957140871585 78.009497869018190385759 18.36428383512421547
80.009497869018190385759 120.05063162849971548 80.009497869018190385759 18.27570208827046727
82.009497869018190385759 120.30053419505658496 82.009497869018190385759 18.19703038663816841
84.009497869018190385759 120.54216229804170268 84.009497869018190385759 18.18473505598503692
86.009497869018190385759 120.77623958103363577 86.009497869018190385759 18.17375205767725888
88.009497869018218807469 121.00231720196455854 88.009497869018218807469 18.14841394838801492
91.009497869018190385759 121.32705162569025958 91.009497869018190385759 18.07610945505170363
94.009497869018218807469 121.63475914172509817 94.009497869018218807469 17.96019717056372755
97.009497869018190385759 121.92634730865528070 97.009497869018190385759 17.60313273576851500
99.504748934509109403734 122.15071156216971815 99.504748934509109403734 18.22696229211187102
nan nan nan nan

