Time Pressure difference Time.1 Pressure.1 difference.1
(hr) (psi) (hr) (psi)
0.000200000000006639311 0.80635275811070373 0.000200000000006639311 0.64814539365312229
0.000399999999999067768 1.60062741469965530 0.000399999999999067768 1.64365343550744480
0.000600000000005707079 2.38512565759167439 0.000600000000005707079 2.38049965802279351
0.000799999999998135536 3.16091641368211285 0.000799999999998135536 3.11672889500511019
0.001007140329434719206 3.95597007199617634 0.001007140329434719206 3.87530110380905946
0.001267914553963578328 4.94553993817390847 0.001267914553963578328 4.81773685421350173
0.001596209851982166583 6.17459080282378636 0.001596209851982166583 5.97533947103952379
0.002009509145224797066 7.69724006062340393 0.002009509145224797066 7.39064988473435402
0.002529822128138903281 9.57804019009545016 0.002529822128138903281 9.11154502072562167
0.003184857364431081805 11.89315197761264642 0.003184857364431081805 11.19039338168490794
0.004009497869020606231 14.73123735887647356 0.004009497869020606231 13.68229404574108798
0.005047658755842121536 18.19382058461616580 0.005047658755842121536 16.64199116868090655
0.006354625877790454069 22.39475863991926019 0.006354625877790454069 20.11911087775790463
0.008000000000009777068 27.45840691758617069 0.008000000000009777068 24.15145727110957097
0.010071403294347192059 33.51599976444086337 0.010071403294347192059 28.75608838038138160
0.012679145539706837553 40.69970337369556290 0.012679145539706837553 33.91855628397576794
0.015962098519750611558 49.13403772526977775 0.015962098519750611558 39.58140220195851811
0.020095091452091651263 58.92462778038981952 0.020095091452091651263 45.63401453460117807
0.025298221281360611101 70.14495201995167406 0.025298221281360611101 51.90637776146591875
0.031848573644296607199 82.82221362747917226 0.031848573644296607199 58.17348986271322531
0.040094978690177640601 96.92612403277077249 0.040094978690177640601 64.16960807031304626
0.050476587558421215363 112.36133808615808505 0.050476587558421215363 69.62072469784588691
0.063546258777961384112 128.97119683146169677 0.063546258777961384112 74.28563212623234335
0.079999999999998294697 146.54907601733353317 0.079999999999998294697 77.99964675938569769
0.100714032943542974863 164.86225811658448492 0.100714032943542974863 80.71273230695916823
0.126791455396897845276 183.68081660671239774 0.126791455396897845276 82.49637183548232144
0.159620985197506115583 202.80461737269160949 0.159620985197506115583 83.52829206659346539
0.200950914520760193227 222.08511348642079497 0.200950914520760193227 84.05192982479772468
0.252982212813478213320 241.43361544304889321 0.252982212813478213320 84.32224043855244133
0.318485736442795541734 260.81806141085843365 0.318485736442795541734 84.56172984705470697
0.400949786901833249431 280.25096893312661450 0.400949786901833249431 84.93330025392766913
0.504765875584155310207 299.77362678688865572 0.504765875584155310207 85.52865005441941548
0.635462587779443310865 319.43863441202933018 0.635462587779443310865 86.39088569515638483
0.799999999999997157829 339.30436225215140666 0.799999999999997157829 87.51840375464277599
1.007140329435344483500 359.41918731318384062 1.007140329435344483500 88.88567649181690911
1.267914553968893187630 379.82529623876047253 1.267914553968893187630 90.47441403830453055
1.596209851975103788391 400.55696935317683938 1.596209851975103788391 92.26584522767974761
2.009509145207672986544 421.64052443445427798 2.009509145207672986544 94.25163914113771568
2.529822128134711078928 443.09714846834322088 2.529822128134711078928 96.43562374365176026
3.184857364427998049905 464.94307151169243753 3.184857364427998049905 98.82742618719174743
4.009497869018190385759 487.18883471452227241 4.009497869018190385759 101.42111250217973861
5.009497869018204596614 509.07746238150531326 5.009497869018204596614 104.07492243998778747
6.009497869018204596614 527.22324719190976339 6.009497869018204596614 106.34706502276148399
7.009497869018204596614 542.73600876670491289 7.009497869018204596614 108.32758907134883941
8.009497869018204596614 556.28161434301216559 8.009497869018204596614 110.07891208813258288
9.009497869018204596614 568.30273953975222412 9.009497869018204596614 111.63592238350585717
10.009497869018190385759 579.10028103361833018 10.009497869018190385759 113.01452026775521631
11.009497869018190385759 588.89164546517542931 11.009497869018190385759 114.28223394633785404
12.009497869018190385759 597.84403084515145110 12.009497869018190385759 115.38097056788268446
13.009497869018190385759 606.09066662935788372 13.009497869018190385759 116.42791901726835135
14.009497869018190385759 613.70998671781046596 14.009497869018190385759 117.45169376630984459
15.009497869018190385759 620.80853283648855268 15.009497869018190385759 118.30096761593352994
16.009497869018204596614 627.44777714925919554 16.009497869018204596614 119.06054038484695923
17.009497869018204596614 633.65890470426529646 17.009497869018204596614 119.90350302438504571
18.009497869018204596614 639.48822700006678588 18.009497869018204596614 120.51096944872858785
19.009497869018204596614 645.00820994731259361 19.009497869018204596614 121.09985845130748316
20.009497869018204596614 650.23096248090269000 20.009497869018204596614 121.66409136480972109
21.009497869018204596614 655.17173775431353988 21.009497869018204596614 122.34821188096940148
22.009497869018190385759 659.84079164693764596 22.009497869018190385759 122.96671459983839725
23.009497869018190385759 664.30117098999653535 23.009497869018190385759 123.36078561619770255
24.009497869018190385759 668.57443955999349328 24.009497869018190385759 123.76677572866063315
25.009497869018190385759 672.65723512299098275 25.009497869018190385759 124.31560648486707521
26.009497869018190385759 676.55653797382251469 26.009497869018190385759 124.66203670073691967
27.009497869018204596614 680.27214208443365351 27.009497869018204596614 125.08960023935058814
28.009497869018190385759 683.82556458735894012 28.009497869018190385759 125.38652533292571434
29.009497869018190385759 687.24874622000652380 29.009497869018190385759 125.26925683132250811
30.009497869018190385759 690.54900238443997296 30.009497869018190385759 125.25074290569671120
31.009497869018190385759 693.72160747205737152 31.009497869018190385759 125.30467148109720199
32.009497869018190385759 696.76840860865104332 32.009497869018190385759 125.44610621873550826
33.009497869018218807469 699.67550007580575766 33.009497869018218807469 125.38234274007857039
34.009497869018190385759 702.45768925123365989 34.009497869018190385759 125.48668241209301755
35.009497869018218807469 705.13587240471042605 35.009497869018218807469 125.52298415024922917
36.009497869018190385759 707.72751591912674485 36.009497869018190385759 125.44241551226195952
37.009497869018218807469 710.24921552681587400 37.009497869018218807469 125.35168028340191881
38.009497869018190385759 712.69174757414566557 38.009497869018190385759 125.42235304810687069
39.009497869018190385759 715.05533386764147963 39.009497869018190385759 125.69848022180700298
40.009497869018190385759 717.34103044676146510 40.009497869018190385759 126.02226097715390551
41.009497869018190385759 719.55303421192502356 41.009497869018190385759 126.26045052195051710
42.009497869018190385759 721.69158682165596019 42.009497869018190385759 126.57063697096681665
43.009497869018190385759 723.76246852296708312 43.009497869018190385759 126.75362863067253727
44.009497869018218807469 725.78223188802155619 44.009497869018218807469 126.85525693120499113
46.009497869018218807469 729.67769216575902647 46.009497869018218807469 127.12080015823286772
48.009497869018218807469 733.39287887324201165 48.009497869018218807469 127.33347451706026732
50.009497869018218807469 736.90905787989970577 50.009497869018218807469 127.79664473375892442
52.009497869018190385759 740.23417320199803271 52.009497869018190385759 127.94079310441571806
54.009497869018190385759 743.37165699345166558 54.009497869018190385759 127.90077917630338789
56.009497869018190385759 746.36515072796544246 56.009497869018190385759 127.53842164851486984
58.009497869018190385759 749.23525052300044536 58.009497869018190385759 126.13929213925199235
60.009497869018190385759 751.98004988574325580 60.009497869018190385759 125.18919819467879506
62.009497869018190385759 754.58252309717761364 62.009497869018190385759 124.26206993640681731
64.009497869018190385759 757.03963043289343204 64.009497869018190385759 123.36060265013253456
66.009497869018218807469 759.36329495440395476 66.009497869018218807469 122.49960453554494677
68.009497869018218807469 761.50442351621950365 68.009497869018218807469 121.30008351671148148
70.009497869018218807469 763.52775187401414314 70.009497869018218807469 120.51317103053911239
72.009497869018218807469 765.46095208784106489 72.009497869018218807469 119.91733147477755494
74.009497869018190385759 767.32142224702727162 74.009497869018190385759 119.12582696932216209
76.009497869018190385759 769.10170185310357738 76.009497869018190385759 118.34946597428931625
78.009497869018190385759 770.79905132130079437 78.009497869018190385759 118.15966836020712094
80.009497869018190385759 772.43103771495202636 80.009497869018190385759 117.58971475216128511
82.009497869018190385759 774.03896343924566281 82.009497869018190385759 117.08352446139558367
84.009497869018190385759 775.59364952292628459 84.009497869018190385759 117.00441371548268421
86.009497869018190385759 777.09975204112436131 86.009497869018190385759 116.93374679216024958
88.009497869018218807469 778.55438304948256700 88.009497869018218807469 116.77071606265447201
91.009497869018190385759 780.64379269687549368 91.009497869018190385759 116.30549373053004558
94.009497869018218807469 782.62364763557332026 94.009497869018218807469 115.55968968954819331
97.009497869018190385759 784.49978728858468457 97.009497869018190385759 113.26226194461585806
99.504748934509109403734 785.94339413027626051 99.504748934509109403734 117.27611264266717228
nan nan nan nan

