Time Pressure difference Time.1 Pressure.1 difference.1
(hr) (psi) (hr) (psi)
0.000200000000006639311 0.41801722736413777 0.000200000000006639311 0.33600175315146524
0.000399999999999067768 0.82977310762037348 0.000399999999999067768 0.85207800797778588
0.000600000000005707079 1.23646084703372083 0.000600000000005707079 1.23406270615292080
0.000799999999998135536 1.63863458255299710 0.000799999999998135536 1.61572755599958184
0.001007140329434719206 2.05079430112685168 0.001007140329434719206 2.00897511209733448
0.001267914553963578328 2.56379217653800762 0.001267914553963578328 2.49753843055853286
0.001596209851982166583 3.20093817692398730 0.001596209851982166583 3.09764530860637910
0.002009509145224797066 3.99028702529250046 0.002009509145224797066 3.83134917337455816
0.002529822128138903281 4.96530304333168981 0.002529822128138903281 4.72346965798352691
0.003184857364431081805 6.16546835649244596 0.003184857364431081805 5.80115485124156294
0.004009497869020606231 7.63674574739301981 0.004009497869020606231 7.09296838567559451
0.005047658755842121536 9.43176588588997511 0.005047658755842121536 8.62728990032844578
0.006354625877790454069 11.60955279185998279 0.006354625877790454069 10.42984582313216535
0.008000000000009777068 14.23457291126399582 0.008000000000009777068 12.52023398410281452
0.010071403294347192059 17.37485877359050690 0.010071403294347192059 14.90729735056580729
0.012679145539706837553 21.09892598206917569 0.012679145539706837553 17.58354604905492380
0.015962098519750611558 25.47132630543126552 0.015962098519750611558 20.51919316604598365
0.020095091452091651263 30.54681624198122591 0.020095091452091651263 23.65689710536073775
0.025298221281360611101 36.36348739684611786 0.025298221281360611101 26.90852098677220638
0.031848573644296607199 42.93544203387723712 0.031848573644296607199 30.15742265889121043
0.040094978690177640601 50.24697840962656414 0.040094978690177640601 33.26583976651197361
0.050476587558421215363 58.24866913055434736 0.050476587558421215363 36.09172538017164555
0.063546258777961384112 66.85930142489885952 0.063546258777961384112 38.51003628629836584
0.079999999999998294697 75.97176026665449911 0.079999999999998294697 40.43539970041774012
0.100714032943542974863 85.46540374755453229 0.100714032943542974863 41.84187656403712197
0.126791455396897845276 95.22103682986011108 0.126791455396897845276 42.76652404968255894
0.159620985197506115583 105.13490900608860557 0.159620985197506115583 43.30147656212974283
0.200950914520760193227 115.13001281964758959 0.200950914520760193227 43.57293294598409261
0.252982212813478213320 125.16037119593637783 0.252982212813478213320 43.71306329483240205
0.318485736442795541734 135.20936312403401303 0.318485736442795541734 43.83721577960811544
0.400949786901833249431 145.28347775981103496 0.400949786901833249431 44.02983970218949139
0.504765875584155310207 155.40411940792691325 0.504765875584155310207 44.33847196072662911
0.635462587779443310865 165.59855587617471429 0.635462587779443310865 44.78545914871603628
0.799999999999997157829 175.89704668899872786 0.799999999999997157829 45.36997004458476113
1.007140329435344483500 186.32467072370573646 1.007140329435344483500 46.07877094207686497
1.267914553968893187630 196.90329774340648328 1.267914553968893187630 46.90238028366093914
1.596209851975103788391 207.65069883646282278 1.596209851975103788391 47.83106700453336657
2.009509145207672986544 218.58051726816799487 2.009509145207672986544 48.86051231549777896
2.529822128134711078928 229.70373647592023758 2.529822128134711078928 49.99270065238388838
3.184857364427998049905 241.02877020084667947 3.184857364427998049905 51.23262277802271569
4.009497869018190385759 252.56108302685353806 4.009497869018190385759 52.57720249346127872
5.009497869018204596614 263.90825503826505383 5.009497869018204596614 53.95295059005502480
6.009497869018204596614 273.31511894304526322 6.009497869018204596614 55.13084045658493437
7.009497869018204596614 281.35701067967215749 7.009497869018204596614 56.15755384373605352
8.009497869018204596614 288.37911909192968096 8.009497869018204596614 57.06544829108712946
9.009497869018204596614 294.61092939330717400 9.009497869018204596614 57.87261006997695745
10.009497869018190385759 300.20842789779601389 10.009497869018190385759 58.58728197929641368
11.009497869018190385759 305.28431927489157260 11.009497869018190385759 59.24447097218127567
12.009497869018190385759 309.92527979395890725 12.009497869018190385759 59.81406142936249637
13.009497869018190385759 314.20037625877756682 13.009497869018190385759 60.35680464392132194
14.009497869018190385759 318.15026918806739786 14.009497869018190385759 60.88753449848579180
15.009497869018190385759 321.83019033548026755 15.009497869018190385759 61.32780223034590961
16.009497869018204596614 325.27200717246870454 16.009497869018204596614 61.72156848171514554
17.009497869018204596614 328.49188618104545867 17.009497869018204596614 62.15856445129163177
18.009497869018204596614 331.51383546935983304 18.009497869018204596614 62.47347802710162767
19.009497869018204596614 334.37542172115280437 19.009497869018204596614 62.77876097629130214
20.009497869018204596614 337.08292226770726074 20.009497869018204596614 63.07126208789215838
21.009497869018204596614 339.64424441864724713 21.009497869018204596614 63.42591352111603697
22.009497869018190385759 342.06470487218547305 22.009497869018190385759 63.74654836617388298
23.009497869018190385759 344.37698741505954558 23.009497869018190385759 63.95083671514543511
24.009497869018190385759 346.59227081484323207 24.009497869018190385759 64.16130398203573293
25.009497869018190385759 348.70881207296156390 25.009497869018190385759 64.44582053970103175
26.009497869018190385759 350.73022980851538932 26.009497869018190385759 64.62541166387893554
27.009497869018204596614 352.65641721554999322 27.009497869018204596614 64.84706270076762280
28.009497869018190385759 354.49852888117686689 28.009497869018190385759 65.00099012657805986
29.009497869018190385759 356.27312304043283575 29.009497869018190385759 64.94019755979601882
30.009497869018190385759 357.98399203365141830 30.009497869018190385759 64.93059984988570932
31.009497869018190385759 359.62868608214017740 31.009497869018190385759 64.95855668805346284
32.009497869018190385759 361.20816274497559561 32.009497869018190385759 65.03187715020338544
33.009497869018218807469 362.71521322948211719 33.009497869018218807469 64.99882184991803058
34.009497869018190385759 364.15751375294013314 34.009497869018190385759 65.05291204798686522
35.009497869018218807469 365.54589704415968754 35.009497869018218807469 65.07173104721508139
36.009497869018190385759 366.88941776175596488 36.009497869018190385759 65.02996386985358868
37.009497869018218807469 368.19667921482169959 37.009497869018218807469 64.98292628188626452
38.009497869018190385759 369.46289981604485320 38.009497869018190385759 65.01956338996951956
39.009497869018190385759 370.68819455101663607 39.009497869018190385759 65.16270907204105356
40.009497869018190385759 371.87311087577506896 40.009497869018190385759 65.33055860472089194
41.009497869018190385759 373.01982448409609106 41.009497869018190385759 65.45403723377189920
42.009497869018190385759 374.12846065294439768 42.009497869018190385759 65.61483941132942732
43.009497869018190385759 375.20201589074059711 43.009497869018190385759 65.70970318583944447
44.009497869018218807469 376.24907113213384946 44.009497869018218807469 65.76238779562469006
46.009497869018218807469 378.26849685893637343 46.009497869018218807469 65.90004670779556761
48.009497869018218807469 380.19446788214082744 48.009497869018218807469 66.01029813921222456
50.009497869018218807469 382.01727233651246252 50.009497869018218807469 66.25040785277687405
52.009497869018190385759 383.74102843907257920 52.009497869018190385759 66.32513507560202015
54.009497869018190385759 385.36751543525565467 54.009497869018190385759 66.30439165888120101
56.009497869018190385759 386.91935727922134447 56.009497869018190385759 66.11654373803378348
58.009497869018190385759 388.40723109934685908 58.009497869018190385759 65.39122813353861829
60.009497869018190385759 389.83014856040068707 60.009497869018190385759 64.89869476963409056
62.009497869018190385759 391.17928344608287716 62.009497869018190385759 64.41806693022316210
64.009497869018190385759 392.45305994834041030 64.009497869018190385759 63.95074186463925514
66.009497869018218807469 393.65765904078000403 66.009497869018218807469 63.50439621627944575
68.009497869018218807469 394.76763059583163340 68.009497869018218807469 62.88255863289644765
70.009497869018218807469 395.81653394695825909 70.009497869018218807469 62.47461933791751676
72.009497869018218807469 396.81871442590534116 72.009497869018218807469 62.16573318784480762
74.009497869018190385759 397.78319128756936607 74.009497869018190385759 61.75541336753204291
76.009497869018190385759 398.70609697292786677 76.009497869018190385759 61.35294401734630299
78.009497869018190385759 399.58601126779086599 78.009497869018190385759 61.25455200268405775
80.009497869018190385759 400.43204102400892452 80.009497869018190385759 60.95908525495477903
82.009497869018190385759 401.26559761114270941 82.009497869018190385759 60.69667372385232085
84.009497869018190385759 402.07155450728384949 84.009497869018190385759 60.65566232489746312
86.009497869018190385759 402.85232544463201521 86.009497869018190385759 60.61902824501559195
88.009497869018218807469 403.60641329865808302 88.009497869018218807469 60.53451231468897475
91.009497869018190385759 404.68957351463785699 91.009497869018190385759 60.29333877441588641
94.009497869018218807469 405.71594003193831668 94.009497869018218807469 59.90671029918296142
97.009497869018190385759 406.68854003610675818 97.009497869018190385759 58.71571248049104241
99.504748934509109403734 407.43691290802667027 99.504748934509109403734 60.79651238224158050
nan nan nan nan

