Time Pressure difference Time.1 Pressure.1 difference.1
(hr) (psi) (hr) (psi)
0.000200000000006639311 0.64227893514134782 0.000200000000006639311 0.51626304872779372
0.000399999999999067768 1.27493737837528776 0.000399999999999067768 1.30920861580807713
0.000600000000005707079 1.89980867818396160 0.000600000000005707079 1.89612396073594724
0.000799999999998135536 2.51774425997787921 0.000799999999998135536 2.48254786217687240
0.001007140329434719206 3.15102319640595185 0.001007140329434719206 3.08676846612194034
0.001267914553963578328 3.93923886690948288 0.001267914553963578328 3.83744070494101974
0.001596209851982166583 4.91820678466230010 0.001596209851982166583 4.75949841302636933
0.002009509145224797066 6.13103272722457149 0.002009509145224797066 5.88682644193053406
0.002529822128138903281 7.62913426184494448 0.002529822128138903281 7.25755988869658264
0.003184857364431081805 9.47317524597162830 0.003184857364431081805 8.91341149727253956
0.004009497869020606231 11.73377699648749761 0.004009497869020606231 10.89826897917413895
0.005047658755842121536 14.49180596668301924 0.005047658755842121536 13.25573734192477104
0.006354625877790454069 17.83795192279867337 0.006354625877790454069 16.02534496295849564
0.008000000000009777068 21.87126685971332307 0.008000000000009777068 19.23720369549524989
0.010071403294347192059 26.69628202096056668 0.010071403294347192059 22.90490066290091420
0.012679145539706837553 32.41827088763685794 0.012679145539706837553 27.01692775584573170
0.015962098519750611558 39.13641655213206150 0.015962098519750611558 31.52751770483198968
0.020095091452091651263 46.93485178008555181 0.020095091452091651263 36.34856576938069850
0.025298221281360611101 55.87210390955251427 0.025298221281360611101 41.34465058914309310
0.031848573644296607199 65.96984091595733446 0.031848573644296607199 46.33655276385848509
0.040094978690177640601 77.20393724082661890 0.040094978690177640601 51.11260192921662338
0.050476587558421215363 89.49844823018113971 0.050476587558421215363 55.45454451904084436
0.063546258777961384112 102.72859134121542013 0.063546258777961384112 59.17025299216257395
0.079999999999998294697 116.72978549846915541 0.079999999999998294697 62.12855299137163456
0.100714032943542974863 131.31666571862916726 0.100714032943542974863 64.28958943468425957
0.126791455396897845276 146.30609011925250229 0.126791455396897845276 65.71030026568581661
0.159620985197506115583 161.53864717109075855 0.159620985197506115583 66.53224899782854607
0.200950914520760193227 176.89601575247627352 0.200950914520760193227 66.94933878682762440
0.252982212813478213320 192.30755258705016786 0.252982212813478213320 67.16464754768134071
0.318485736442795541734 207.74771967183923493 0.318485736442795541734 67.35540649371739619
0.400949786901833249431 223.22648752444337106 0.400949786901833249431 67.65137106115506072
0.504765875584155310207 238.77674362677529984 0.504765875584155310207 68.12558117831567017
0.635462587779443310865 254.44038466970437185 0.635462587779443310865 68.81237214368795208
0.799999999999997157829 270.26390408428011369 0.799999999999997157829 69.71046679434226689
1.007140329435344483500 286.28583529342563452 1.007140329435344483500 70.79953168417726772
1.267914553968893187630 302.53978095091451905 1.267914553968893187630 72.06499850290310860
1.596209851975103788391 319.05304614123190277 1.596209851975103788391 73.49191557501281125
2.009509145207672986544 335.84659359349677743 2.009509145207672986544 75.07364712775694215
2.529822128134711078928 352.93729924012205856 2.529822128134711078928 76.81324222526045276
3.184857364427998049905 370.33809070307603406 3.184857364427998049905 78.71836912047277224
4.009497869018190385759 388.05736425625036645 4.009497869018190385759 80.78430126707364423
5.009497869018204596614 405.49217095622969964 5.009497869018204596614 82.89812329320091067
6.009497869018204596614 419.94571529907739205 6.009497869018204596614 84.70793829522617102
7.009497869018204596614 432.30199471294793057 7.009497869018204596614 86.28547227666743424
8.009497869018204596614 443.09138811166309324 8.009497869018204596614 87.68044224606879311
9.009497869018204596614 452.66649703626490009 9.009497869018204596614 88.92063756314013290
10.009497869018190385759 461.26699276604165334 10.009497869018190385759 90.01872319895839780
11.009497869018190385759 469.06604480303855098 11.009497869018190385759 91.02848695725683115
12.009497869018190385759 476.19683029485986481 12.009497869018190385759 91.90365651572659544
13.009497869018190385759 482.76546963626765319 13.009497869018190385759 92.73757557714932886
14.009497869018190385759 488.83443727318439187 14.009497869018190385759 93.55303624126317175
15.009497869018190385759 494.48859619593520165 15.009497869018190385759 94.22950283518632375
16.009497869018204596614 499.77691042870435467 16.009497869018204596614 94.83452040878913181
17.009497869018204596614 504.72421959572864125 17.009497869018204596614 95.50595997545597982
18.009497869018204596614 509.36741189473627855 18.009497869018204596614 95.98982126846581764
19.009497869018204596614 513.76420812776734692 19.009497869018204596614 96.45888520814777678
20.009497869018204596614 517.92425334624044808 20.009497869018204596614 96.90830999303351234
21.009497869018204596614 521.85969704561387061 21.009497869018204596614 97.45322807287848832
22.009497869018190385759 525.57870827501471922 22.009497869018190385759 97.94588003402259346
23.009497869018190385759 529.13150531820781453 23.009497869018190385759 98.25976686607158683
24.009497869018190385759 532.53526423030143633 24.009497869018190385759 98.58314753847305667
25.009497869018190385759 535.78730691289365495 25.009497869018190385759 99.02030414285424342
26.009497869018190385759 538.89319333497724074 26.009497869018190385759 99.29624395692643191
27.009497869018204596614 541.85275939036171167 27.009497869018204596614 99.63680837060746853
28.009497869018190385759 544.68314398113761854 28.009497869018190385759 99.87331619054103271
29.009497869018190385759 547.40978865581291757 29.009497869018190385759 99.77990907116587493
30.009497869018190385759 550.03852030417056085 30.009497869018190385759 99.76516229400586155
31.009497869018190385759 552.56557486782480737 31.009497869018190385759 99.80811767257129929
32.009497869018190385759 554.99242362590928224 32.009497869018190385759 99.92077376727500848
33.009497869018218807469 557.30799034667961678 33.009497869018218807469 99.86998465697465122
34.009497869018190385759 559.52406945471477684 34.009497869018190385759 99.95309365953012559
35.009497869018218807469 561.65730532031636812 35.009497869018218807469 99.98200884769339325
36.009497869018190385759 563.72161032822066318 36.009497869018190385759 99.91783403277307229
37.009497869018218807469 565.73020336951901754 37.009497869018218807469 99.84556128913096984
38.009497869018190385759 567.67573758717742294 38.009497869018190385759 99.90185380825691652
39.009497869018190385759 569.55838965530949736 39.009497869018190385759 100.12179559589739597
40.009497869018190385759 571.37900073417915792 40.009497869018190385759 100.37969458200704764
41.009497869018190385759 573.14091375367024739 41.009497869018190385759 100.56941815603217094
42.009497869018190385759 574.84432120048063553 42.009497869018190385759 100.81648895744699246
43.009497869018190385759 576.49382717729179149 43.009497869018190385759 100.96224611788743175
44.009497869018218807469 578.10261619710513514 44.009497869018218807469 101.04319544929313679
46.009497869018218807469 581.20544191935186973 46.009497869018218807469 101.25470687450246032
48.009497869018218807469 584.16467550332868086 48.009497869018218807469 101.42410700285272185
50.009497869018218807469 586.96539477345800151 50.009497869018218807469 101.79303297300431552
52.009497869018190385759 589.61392732551780682 52.009497869018190385759 101.90785054022478562
54.009497869018190385759 592.11300695081683898 54.009497869018190385759 101.87597850546046629
56.009497869018190385759 594.49739510949393662 56.009497869018190385759 101.58735221287636818
58.009497869018190385759 596.78349709347367025 58.009497869018190385759 100.47291265488478018
60.009497869018190385759 598.96979433639467061 60.009497869018190385759 99.71614048430959087
62.009497869018190385759 601.04272545265985173 62.009497869018190385759 98.97766102296615998
64.009497869018190385759 602.99986923029030095 64.009497869018190385759 98.25962112929778414
66.009497869018218807469 604.85072266818065145 66.009497869018218807469 97.57381588260686556
68.009497869018218807469 606.55618192140605061 68.009497869018218807469 96.61836918151149689
70.009497869018218807469 608.16781054177613441 70.009497869018218807469 95.99157488015335105
72.009497869018218807469 609.70764997589787981 72.009497869018218807469 95.51697466140257120
74.009497869018190385759 611.18955821107795146 74.009497869018190385759 94.88652270869320660
76.009497869018190385759 612.60759278483396884 76.009497869018190385759 94.26813291817114759
78.009497869018190385759 613.95957155346968648 78.009497869018190385759 94.11695465501161095
80.009497869018190385759 615.25948709606109333 80.009497869018190385759 93.66297320238614077
82.009497869018190385759 616.54023774966503879 82.009497869018190385759 93.25978073152060688
84.009497869018190385759 617.77858177746372803 84.009497869018190385759 93.19676716192331867
86.009497869018190385759 618.97822785279743130 86.009497869018190385759 93.14047929559595218
88.009497869018218807469 620.13687566006831275 88.009497869018218807469 93.01062148548858488
91.009497869018190385759 621.80113958166259636 91.009497869018190385759 92.64006095713999400
94.009497869018218807469 623.37814060134110150 94.009497869018218807469 92.04601049913910060
97.009497869018190385759 624.87252995685832957 97.009497869018190385759 90.21605527081364073
99.504748934509109403734 626.02239675611986058 99.504748934509109403734 93.41318174707333810
nan nan nan nan

