Time Pressure difference Time.1 Pressure.1 difference.1
(hr) (psi) (hr) (psi)
0.000200000000006639311 0.10965737917047402 0.000200000000006639311 0.08814247173401356
0.000399999999999067768 0.21767223533236621 0.000399999999999067768 0.22352342221113514
0.000600000000005707079 0.32435757920213976 0.000600000000005707079 0.32372848110125929
0.000799999999998135536 0.42985877609378426 0.000799999999998135536 0.42384963500580747
0.001007140329434719206 0.53797957011808939 0.001007140329434719206 0.52700925031350199
0.001267914553963578328 0.67255297727722885 0.001267914553963578328 0.65517280328261318
0.001596209851982166583 0.83969384128380731 0.001596209851982166583 0.81259729002889236
0.002009509145224797066 1.04676168513590251 0.002009509145224797066 1.00506792911009124
0.002529822128138903281 1.30253511787596610 0.002529822128138903281 1.23909559075307518
0.003184857364431081805 1.61737138345857057 0.003184857364431081805 1.52180196294897008
0.004009497869020606231 2.00332777988810973 0.004009497869020606231 1.86068006961509669
0.005047658755842121536 2.47421077479953988 0.005047658755842121536 2.26317466813349766
0.006354625877790454069 3.04550398681928547 0.006354625877790454069 2.73603450587096253
0.008000000000009777068 3.73411873214617662 0.008000000000009777068 3.28440063093821388
0.010071403294347192059 4.55790180845668225 0.010071403294347192059 3.91059279610503419
0.012679145539706837553 5.53482673691360905 0.012679145539706837553 4.61264620221756427
0.015962098519750611558 6.68182721621766973 0.015962098519750611558 5.38274692521521825
0.020095091452091651263 8.01326737708777692 0.020095091452091651263 6.20585269233328951
0.025298221281360611101 9.53913969187481925 0.025298221281360611101 7.05884278351223582
0.031848573644296607199 11.26314357101710506 0.031848573644296607199 7.91111876456120466
0.040094978690177640601 13.18116001672649418 0.040094978690177640601 8.72654179279308195
0.050476587558421215363 15.28022286856750966 0.050476587558421215363 9.46784906422648653
0.063546258777961384112 17.53902778996360823 0.063546258777961384112 10.10223831573507347
0.079999999999998294697 19.92947557290936444 0.079999999999998294697 10.60731392535613260
0.100714032943542974863 22.41991853732692874 0.100714032943542974863 10.97627136689731131
0.126791455396897845276 24.97908855694555186 0.126791455396897845276 11.21883175267806720
0.159620985197506115583 27.57976902921061679 0.159620985197506115583 11.35916446304389815
0.200950914520760193227 30.20175878700814565 0.200950914520760193227 11.43037491482422929
0.252982212813478213320 32.83299678315490411 0.252982212813478213320 11.46713494716510695
0.318485736442795541734 35.46912287080181869 0.318485736442795541734 11.49970354770784731
0.400949786901833249431 38.11183933344155150 0.400949786901833249431 11.55023408361183890
0.504765875584155310207 40.76676110701041722 0.504765875584155310207 11.63119678654170031
0.635462587779443310865 43.44104128507147777 0.635462587779443310865 11.74845378062964940
0.799999999999997157829 46.14261777048685076 0.799999999999997157829 11.90178701366819070
1.007140329435344483500 48.87806944034095125 1.007140329435344483500 12.08772492168880319
1.267914553968893187630 51.65313333308296251 1.267914553968893187630 12.30378023220296946
1.596209851975103788391 54.47247129240543728 1.596209851975103788391 12.54740022012413725
2.009509145207672986544 57.33966232084091530 2.009509145207672986544 12.81745194864142867
2.529822128134711078928 60.25758767514278702 2.529822128134711078928 13.11445598967861237
3.184857364427998049905 63.22845451028127428 3.184857364427998049905 13.43972155715388794
4.009497869018190385759 66.25369633643298073 4.009497869018190385759 13.79244167974428059
5.009497869018204596614 69.23037065106360899 5.009497869018204596614 14.15333812322942286
6.009497869018204596614 71.69804895350102925 6.009497869018204596614 14.46233092845324819
7.009497869018204596614 73.80765763391794110 7.009497869018204596614 14.73166599845541391
8.009497869018204596614 75.64974918979613960 8.009497869018204596614 14.96983160298735349
9.009497869018204596614 77.28452388424034325 9.009497869018204596614 15.18157226687758588
10.009497869018190385759 78.75290120395831650 10.009497869018190385759 15.36905030226118996
11.009497869018190385759 80.08444667368951286 11.009497869018190385759 15.54144899270238511
12.009497869018190385759 81.30189785521997692 12.009497869018190385759 15.69086818561185659
13.009497869018190385759 82.42337286472863411 13.009497869018190385759 15.83324461073281242
14.009497869018190385759 83.45953807103148847 14.009497869018190385759 15.97246960216688372
15.009497869018190385759 84.42488227735478290 15.009497869018190385759 16.08796389869034371
16.009497869018204596614 85.32776519514465008 16.009497869018204596614 16.19125958198839044
17.009497869018204596614 86.17242773585611815 17.009497869018204596614 16.30589560556565587
18.009497869018204596614 86.96516788446716362 18.009497869018204596614 16.38850607022587269
19.009497869018204596614 87.71584041205784388 19.009497869018204596614 16.46859015748864508
20.009497869018204596614 88.42609203472399315 20.009497869018204596614 16.54532121832279401
21.009497869018204596614 89.09799705656820379 21.009497869018204596614 16.63835601244266726
22.009497869018190385759 89.73295019329519562 22.009497869018190385759 16.72246732288190785
23.009497869018190385759 90.33952529823061184 23.009497869018190385759 16.77605775762197737
24.009497869018190385759 90.92065486858805912 24.009497869018190385759 16.83126909193442344
25.009497869018190385759 91.47588166805500975 25.009497869018190385759 16.90590558536536037
26.009497869018190385759 92.00615495963026547 26.009497869018190385759 16.95301726093865824
27.009497869018204596614 92.51144672518371692 27.009497869018204596614 17.01116240473785979
28.009497869018190385759 92.99468311873081916 28.009497869018190385759 17.05154178862895620
29.009497869018190385759 93.46020781928514509 29.009497869018190385759 17.03559423166246845
30.009497869018190385759 93.90901566168764703 30.009497869018190385759 17.03307648922051598
31.009497869018190385759 94.34046400182376146 31.009497869018190385759 17.04041033434144126
32.009497869018190385759 94.75480403369182625 32.009497869018190385759 17.05964430172987889
33.009497869018218807469 95.15014469333553393 33.009497869018218807469 17.05097299021518253
34.009497869018190385759 95.52849966300007623 34.009497869018190385759 17.06516233211489819
35.009497869018218807469 95.89271066444426594 35.009497869018218807469 17.07009907155740791
36.009497869018190385759 96.24515298286694076 36.009497869018190385759 17.05914239583930581
37.009497869018218807469 96.58808350211299398 37.009497869018218807469 17.04680314692479826
38.009497869018190385759 96.92024788073760533 38.009497869018190385759 17.05641406482434874
39.009497869018190385759 97.24167628261382390 39.009497869018190385759 17.09396510173857919
40.009497869018190385759 97.55251232046960297 40.009497869018190385759 17.13799663595242251
41.009497869018190385759 97.85332673843150531 41.009497869018190385759 17.17038846566402910
42.009497869018190385759 98.14415240008206354 42.009497869018190385759 17.21257128541778059
43.009497869018190385759 98.42577537173274038 43.009497869018190385759 17.23745665427346552
44.009497869018218807469 98.70044666779843112 44.009497869018218807469 17.25127727183053850
46.009497869018218807469 99.23019740086496654 46.009497869018218807469 17.28738897857359191
48.009497869018218807469 99.73543240300735135 48.009497869018218807469 17.31631095170655854
50.009497869018218807469 100.21360398571233929 50.009497869018218807469 17.37929831246415091
52.009497869018190385759 100.66579247021036281 52.009497869018190385759 17.39890131174569632
54.009497869018190385759 101.09246460135896939 54.009497869018190385759 17.39345974483471480
56.009497869018190385759 101.49955526259653027 56.009497869018190385759 17.34418208512523307
58.009497869018190385759 101.88986535742233741 58.009497869018190385759 17.15391191668764392
60.009497869018190385759 102.26313561840885313 60.009497869018190385759 17.02470691195529540
62.009497869018190385759 102.61705068703949451 62.009497869018190385759 16.89862505270154003
64.009497869018190385759 102.95119718565932487 64.009497869018190385759 16.77603287573376889
66.009497869018218807469 103.26719655310401436 66.009497869018218807469 16.65894417507922398
68.009497869018218807469 103.55837252316686659 68.009497869018218807469 16.49581912855074606
70.009497869018218807469 103.83352862908371605 70.009497869018218807469 16.38880546734325350
72.009497869018218807469 104.09642804466550103 72.009497869018218807469 16.30777616170287914
74.009497869018190385759 104.34943676774501853 74.009497869018190385759 16.20013802343542508
76.009497869018190385759 104.59154023155701907 76.009497869018190385759 16.09455927871214698
78.009497869018190385759 104.82236587498262281 78.009497869018190385759 16.06874835573368898
80.009497869018190385759 105.04430267493724216 80.009497869018190385759 15.99123932723665575
82.009497869018190385759 105.26296742067451362 82.009497869018190385759 15.92240158830839647
84.009497869018190385759 105.47439201078648807 84.009497869018190385759 15.91164317398690997
86.009497869018190385759 105.67920963340444018 86.009497869018190385759 15.90203305046759930
88.009497869018218807469 105.87702755171899582 88.009497869018218807469 15.87986220483951350
91.009497869018190385759 106.16117017247896115 91.009497869018190385759 15.81659577317024201
94.009497869018218807469 106.43041424900947334 94.009497869018218807469 15.71517252424325939
97.009497869018190385759 106.68555389507338305 97.009497869018190385759 15.40274114379745107
99.504748934509109403734 106.88187261689851937 99.504748934509109403734 15.94859200559788626
nan nan nan nan

