Time Pressure difference Time.1 Pressure.1 difference.1
(hr) (psi) (hr) (psi)
0.000200000000006639311 0.56807469359741802 0.000200000000006639311 0.45661776710327323
0.000399999999999067768 1.12764037702255870 0.000399999999999067768 1.15795216468776041
0.000600000000005707079 1.68031858699454384 0.000600000000005707079 1.67705957502832814
0.000799999999998135536 2.22686238141817539 0.000799999999998135536 2.19573231969173932
0.001007140329434719206 2.78697687076213230 0.001007140329434719206 2.73014566515791612
0.001267914553963578328 3.48412782965421597 0.001267914553963578328 3.39409068768210886
0.001596209851982166583 4.34999290710182862 0.001596209851982166583 4.20962054759328463
0.002009509145224797066 5.42269775232057860 0.002009509145224797066 5.20670528689363010
0.002529822128138903281 6.74771952042511725 0.002529822128138903281 6.41907415059299780
0.003184857364431081805 8.37871340754101546 0.003184857364431081805 7.88362069527699560
0.004009497869020606231 10.37814165671358957 0.004009497869020606231 9.63916216514888546
0.005047658755842121536 12.81752799877355642 0.005047658755842121536 11.72426576198481030
0.006354625877790454069 15.77708456329690101 0.006354625877790454069 14.17389304169242870
0.008000000000009777068 19.34441959735876537 0.008000000000009777068 17.01467695275510650
0.010071403294347192059 23.61198756411017996 0.010071403294347192059 20.25863486102532818
0.012679145539706837553 28.67289941152990096 0.012679145539706837553 23.89558822051053966
0.015962098519750611558 34.61487933815018181 0.015962098519750611558 27.88505737949838803
0.020095091452091651263 41.51234002115396748 0.020095091452091651263 32.14911657907997267
0.025298221281360611101 49.41704697520113143 0.025298221281360611101 36.56799005894684029
0.031848573644296607199 58.34816481526906529 0.031848573644296607199 40.98316412618549265
0.040094978690177640601 68.28435527462072230 0.040094978690177640601 45.20742327243934966
0.050476587558421215363 79.15844779280463683 0.050476587558421215363 49.04772936279736228
0.063546258777961384112 90.86007629537537866 0.063546258777961384112 52.33415187625161735
0.079999999999998294697 103.24367420853049282 0.079999999999998294697 54.95067138774717819
0.100714032943542974863 116.14529227231770392 0.100714032943542974863 56.86203738189659163
0.126791455396897845276 129.40294748673295544 0.126791455396897845276 58.11860960597885395
0.159620985197506115583 142.87564557237681129 0.159620985197506115583 58.84559635366350250
0.200950914520760193227 156.45873537029032718 0.200950914520760193227 59.21449861890145883
0.252982212813478213320 170.08973521499046910 0.252982212813478213320 59.40493216990044090
0.318485736442795541734 183.74605757881545287 0.318485736442795541734 59.57365221331359351
0.400949786901833249431 197.43652105820473253 0.400949786901833249431 59.83542318502674817
0.504765875584155310207 211.19021355436225917 0.504765875584155310207 60.25484651073106335
0.635462587779443310865 225.04419131890409744 0.635462587779443310865 60.86229063799871142
0.799999999999997157829 239.03957626966496264 0.799999999999997157829 61.65662595802542967
1.007140329435344483500 253.21044995785655374 1.007140329435344483500 62.61986820333522985
1.267914553968893187630 267.58653283078314189 1.267914553968893187630 63.73913218035973927
1.596209851975103788391 282.19197534185974519 1.596209851975103788391 65.00119362154534031
2.009509145207672986544 297.04531833879241276 2.009509145207672986544 66.40018340311236500
2.529822128134711078928 312.16148803137878076 2.529822128134711078928 67.93879832247040440
3.184857364427998049905 327.55191847807373051 3.184857364427998049905 69.62382069833856235
4.009497869018190385759 343.22403590828815823 4.009497869018190385759 71.45107005521660426
5.009497869018204596614 358.64455171866791261 5.009497869018204596614 73.32067644289529085
6.009497869018204596614 371.42823856362565493 6.009497869018204596614 74.92139856920518071
7.009497869018204596614 382.35696323134936847 7.009497869018204596614 76.31667573635925805
8.009497869018204596614 391.89982850954544347 8.009497869018204596614 77.55048101096456037
9.009497869018204596614 400.36869891910976094 9.009497869018204596614 78.64739317201996016
10.009497869018190385759 407.97555586110740933 10.009497869018190385759 79.61861397186436307
11.009497869018190385759 414.87356209151931807 11.009497869018190385759 80.51171696219506657
12.009497869018190385759 421.18050843794412685 12.009497869018190385759 81.28577578862082476
13.009497869018190385759 426.99025491577464209 13.009497869018190385759 82.02334990071359755
14.009497869018190385759 432.35805812737356746 14.009497869018190385759 82.74459816460888817
15.009497869018190385759 437.35897660975518875 15.009497869018190385759 83.34291072329058636
16.009497869018204596614 442.03631743950876398 16.009497869018204596614 83.87802896233083061
17.009497869018204596614 446.41205045116436168 17.009497869018204596614 84.47189527996042102
18.009497869018204596614 450.51880204810436226 18.009497869018204596614 84.89985475477914179
19.009497869018204596614 454.40762439028458175 19.009497869018204596614 85.31472645495998108
20.009497869018204596614 458.08704820996109675 20.009497869018204596614 85.71222796559703738
21.009497869018204596614 461.56781933816159835 21.009497869018204596614 86.19419016972179293
22.009497869018190385759 464.85716303143152572 22.009497869018190385759 86.62992470274913615
23.009497869018190385759 467.99949571790142500 23.009497869018190385759 86.90754733083865347
24.009497869018190385759 471.01000905606895230 24.009497869018190385759 87.19356694994598911
25.009497869018190385759 473.88633435556317863 25.009497869018190385759 87.58021765651677981
26.009497869018190385759 476.63338922695675137 26.009497869018190385759 87.82427738937396100
27.009497869018204596614 479.25102852369604989 27.009497869018204596614 88.12549546514576093
28.009497869018190385759 481.75441104365069123 28.009497869018190385759 88.33467888996504769
29.009497869018190385759 484.16603900366510516 29.009497869018190385759 88.25206335049202266
30.009497869018190385759 486.49106609701345860 30.009497869018190385759 88.23902030881905034
31.009497869018190385759 488.72616313726746284 31.009497869018190385759 88.27701293504701141
32.009497869018190385759 490.87263142265913984 32.009497869018190385759 88.37665356309689457
33.009497869018218807469 492.92067438878336816 33.009497869018218807469 88.33173225758092428
34.009497869018190385759 494.88072381809814715 34.009497869018190385759 88.40523944982831495
35.009497869018218807469 496.76750111129388188 35.009497869018218807469 88.43081398724100950
36.009497869018190385759 498.59331131725804198 36.009497869018190385759 88.37405346416001350
37.009497869018218807469 500.36984611244997723 37.009497869018218807469 88.31013058820441586
38.009497869018190385759 502.09060744231737772 38.009497869018190385759 88.35991947867651675
39.009497869018190385759 503.75575156933024346 39.009497869018190385759 88.55445079020962851
40.009497869018190385759 505.36602247220719164 40.009497869018190385759 88.78255400128736596
41.009497869018190385759 506.92437686300235100 41.009497869018190385759 88.95035829204898903
42.009497869018190385759 508.43098498989871814 42.009497869018190385759 89.16888432821690458
43.009497869018190385759 509.88991903100645686 43.009497869018190385759 89.29780176537154546
44.009497869018218807469 511.31284025648966463 44.009497869018218807469 89.36939879918224960
46.009497869018218807469 514.05718803906734138 46.009497869018218807469 89.55647373110680576
48.009497869018218807469 516.67453327572980015 48.009497869018218807469 89.70630259944225315
50.009497869018218807469 519.15167779064518072 50.009497869018218807469 90.03260554351729184
52.009497869018190385759 521.49421813514993573 52.009497869018190385759 90.13415792325402265
54.009497869018190385759 523.70457225816790015 54.009497869018190385759 90.10596815181291674
56.009497869018190385759 525.81348553330076356 56.009497869018190385759 89.85068764399461827
58.009497869018190385759 527.83546790424054507 58.009497869018190385759 88.86500233532170512
60.009497869018190385759 529.76917624874954527 60.009497869018190385759 88.19566212283606887
62.009497869018190385759 531.60261596518955685 62.009497869018190385759 87.54250121286737851
64.009497869018190385759 533.33364557082165902 64.009497869018190385759 86.90741843143283063
66.009497869018218807469 534.97066485029074556 66.009497869018218807469 86.30084614007205346
68.009497869018218807469 536.47908773279675643 68.009497869018218807469 85.45578480880799077
70.009497869018218807469 537.90452049202019680 70.009497869018218807469 84.90140576691355534
72.009497869018218807469 539.26645806597389310 72.009497869018218807469 84.48163740912242758
74.009497869018190385759 540.57715739079947070 74.009497869018190385759 83.92402329433841146
76.009497869018190385759 541.83136255295335104 76.009497869018190385759 83.37707776716293040
78.009497869018190385759 543.02714351776705826 78.009497869018190385759 83.24336554210911743
80.009497869018190385759 544.17687626339670715 80.009497869018190385759 82.84183380801546548
82.009497869018190385759 545.30965829206570561 82.009497869018190385759 82.48522326574801866
84.009497869018190385759 546.40493304836013522 84.009497869018190385759 82.42948982614269937
86.009497869018190385759 547.46598073244865645 86.009497869018190385759 82.37970505091863060
88.009497869018218807469 548.49076679048414462 88.009497869018218807469 82.26485006867989114
91.009497869018190385759 549.96275375066170454 91.009497869018190385759 81.93710141138568304
94.009497869018218807469 551.35755953058287560 94.009497869018218807469 81.41168322709478389
97.009497869018190385759 552.67929799778607958 97.009497869018190385759 79.79314772989808091
99.504748934509109403734 553.69631754167733106 99.504748934509109403734 82.62090144253342316
nan nan nan nan

