Time Pressure difference Time.1 Pressure.1 difference.1
(hr) (psi) (hr) (psi)
0.000200000000006639311 0.11872678647028766 0.000200000000006639311 0.09543245059923273
0.000399999999999067768 0.23567520216436644 0.000399999999999067768 0.24201032179250720
0.000600000000005707079 0.35118414590306862 0.000600000000005707079 0.35050301713219051
0.000799999999998135536 0.46541100569552579 0.000799999999998135536 0.45890486797621255
0.001007140329434719206 0.58247412103011176 0.001007140329434719206 0.57059648154243825
0.001267914553963578328 0.72817765960842828 0.001267914553963578328 0.70936002761425787
0.001596209851982166583 0.90914220409675384 0.001596209851982166583 0.87980458469293610
0.002009509145224797066 1.13333595984639079 0.002009509145224797066 1.08819384805904606
0.002529822128138903281 1.41026358627172277 0.002529822128138903281 1.34157718096573553
0.003184857364431081805 1.75113894148897864 0.003184857364431081805 1.64766528319286976
0.004009497869020606231 2.16901654363825402 0.004009497869020606231 2.01457090244040549
0.005047658755842121536 2.67884474865514122 0.005047658755842121536 2.45035452790393737
0.006354625877790454069 3.29738777520283577 0.006354625877790454069 2.96232307402570383
0.008000000000009777068 4.04295561976728912 0.008000000000009777068 3.55604278838423093
0.010071403294347192059 4.93487113096061769 0.010071403294347192059 4.23402528300093906
0.012679145539706837553 5.99259436177112637 0.012679145539706837553 4.99414325653631064
0.015962098519750611558 7.23445954237101052 0.015962098519750611558 5.82793652053377009
0.020095091452091651263 8.67601881429052568 0.020095091452091651263 6.71911870448115511
0.025298221281360611101 10.32809109496221112 0.025298221281360611101 7.64265684831400005
0.031848573644296607199 12.19468176110122570 0.031848573644296607199 8.56542182027679289
0.040094978690177640601 14.27133114592943741 0.040094978690177640601 9.44828585084363759
0.050476587558421215363 16.54400069980241739 0.050476587558421215363 10.25090424998957950
0.063546258777961384112 18.98962407334405356 0.063546258777961384112 10.93776178545752309
0.079999999999998294697 21.57777806390187081 0.079999999999998294697 11.48461056579911954
0.100714032943542974863 24.27419751409833282 0.100714032943542974863 11.88408328446024598
0.126791455396897845276 27.04502821203127283 0.126791455396897845276 12.14670505553114133
0.159620985197506115583 29.86080255794232130 0.159620985197506115583 12.29864423066407042
0.200950914520760193227 32.69964861149754398 0.200950914520760193227 12.37574426868187238
0.252982212813478213320 35.54850779529553506 0.252982212813478213320 12.41554460444943864
0.318485736442795541734 38.40265934883805699 0.318485736442795541734 12.45080684864609211
0.400949786901833249431 41.26394634598182876 0.400949786901833249431 12.50551660180529900
0.504765875584155310207 44.13844811586090344 0.504765875584155310207 12.59317546813537447
0.635462587779443310865 47.03390936128039357 0.635462587779443310865 12.72013040910277937
0.799999999999997157829 49.95892450338426016 0.799999999999997157829 12.88614533810691398
1.007140329435344483500 52.92061653691050793 1.007140329435344483500 13.08746156934727622
1.267914553968893187630 55.92519699221012530 1.267914553968893187630 13.32138611606938028
1.596209851975103788391 58.97771327899535976 1.596209851975103788391 13.58515512554793858
2.009509145207672986544 62.08204040752700337 2.009509145207672986544 13.87754195943132096
2.529822128134711078928 65.24129793398918764 2.529822128134711078928 14.19911024446406245
3.184857364427998049905 68.45787556000379936 3.184857364427998049905 14.55127747541473582
4.009497869018190385759 71.73332535673947064 4.009497869018190385759 14.93316993897125045
5.009497869018204596614 74.95619078009895020 5.009497869018204596614 15.32391496048900059
6.009497869018204596614 77.62796277672291012 6.009497869018204596614 15.65846356163359232
7.009497869018204596614 79.91205037055777893 7.009497869018204596614 15.95007446449307942
8.009497869018204596614 81.90649536338828796 8.009497869018204596614 16.20793797616675747
9.009497869018204596614 83.67647698744818285 9.009497869018204596614 16.43719102579227354
10.009497869018190385759 85.26629904789471937 10.009497869018190385759 16.64017476335046197
11.009497869018190385759 86.70797233843074991 11.009497869018190385759 16.82683199209882474
12.009497869018190385759 88.02611497106525462 12.009497869018190385759 16.98860916336922955
13.009497869018190385759 89.24034355278890018 13.009497869018190385759 17.14276108229718076
14.009497869018190385759 90.36220663329723379 14.009497869018190385759 17.29350092264684946
15.009497869018190385759 91.40739133788788706 15.009497869018190385759 17.41854737903315709
16.009497869018204596614 92.38494878271301047 16.009497869018204596614 17.53038631433329186
17.009497869018204596614 93.29947063130286722 17.009497869018204596614 17.65450351279289265
18.009497869018204596614 94.15777575461106608 18.009497869018204596614 17.74394642189869131
19.009497869018204596614 94.97053397997238733 19.009497869018204596614 17.83065400510048804
20.009497869018204596614 95.73952821804702751 20.009497869018204596614 17.91373124389836136
21.009497869018204596614 96.46700433192346225 21.009497869018204596614 18.01446064505070765
22.009497869018190385759 97.15447238973315791 22.009497869018190385759 18.10552853003755303
23.009497869018190385759 97.81121536049029430 23.009497869018190385759 18.16355125637266710
24.009497869018190385759 98.44040827877203981 24.009497869018190385759 18.22332894164328465
25.009497869018190385759 99.04155609172873653 25.009497869018190385759 18.30413837813993894
26.009497869018190385759 99.61568657283277162 26.009497869018190385759 18.35514650808396198
27.009497869018204596614 100.16276938666507590 27.009497869018204596614 18.41810064873873642
28.009497869018190385759 100.68597269997923149 28.009497869018190385759 18.46181968092157533
29.009497869018190385759 101.18999944343654818 29.009497869018190385759 18.44455315307816079
30.009497869018190385759 101.67592673145128401 30.009497869018190385759 18.44182717629890078
31.009497869018190385759 102.14305876889189051 31.009497869018190385759 18.44976758003885564
32.009497869018190385759 102.59166752520016530 32.009497869018190385759 18.47059232668498296
33.009497869018218807469 103.01970553263396368 33.009497869018218807469 18.46120383902997730
34.009497869018190385759 103.42935301858655350 34.009497869018190385759 18.47656673552289774
35.009497869018218807469 103.82368673443588136 35.009497869018218807469 18.48191177672381258
36.009497869018190385759 104.20527841754014275 36.009497869018190385759 18.47004890978090330
37.009497869018218807469 104.57657161131031387 37.009497869018218807469 18.45668912148249063
38.009497869018190385759 104.93620823177604962 38.009497869018190385759 18.46709492732862046
39.009497869018190385759 105.28422093756684319 39.009497869018190385759 18.50775168910041657
40.009497869018190385759 105.62076521915504657 40.009497869018190385759 18.55542492915149566
41.009497869018190385759 105.94645902506870527 41.009497869018190385759 18.59049578237308609
42.009497869018190385759 106.26133793693094276 42.009497869018190385759 18.63616740676812356
43.009497869018190385759 106.56625303405650129 43.009497869018190385759 18.66311096402539960
44.009497869018218807469 106.86364150498476988 44.009497869018218807469 18.67807464017742447
46.009497869018218807469 107.43720620845530789 46.009497869018218807469 18.71717302943306294
48.009497869018218807469 107.98422756415833135 48.009497869018218807469 18.74848704545672717
50.009497869018218807469 108.50194717250056442 50.009497869018218807469 18.81668388717923079
52.009497869018190385759 108.99153470458867332 52.009497869018190385759 18.83790818715323567
54.009497869018190385759 109.45349550823827656 54.009497869018190385759 18.83201656583608496
56.009497869018190385759 109.89425532190901436 56.009497869018190385759 18.77866331021077784
58.009497869018190385759 110.31684670277306282 58.009497869018190385759 18.57265651130090944
60.009497869018190385759 110.72098894023214655 60.009497869018190385759 18.43276537835761175
62.009497869018190385759 111.10417517995253434 62.009497869018190385759 18.29625569615805958
64.009497869018190385759 111.46595785514995214 64.009497869018190385759 18.16352431658393130
66.009497869018218807469 111.80809250862390059 66.009497869018218807469 18.03675158805569723
68.009497869018218807469 112.12335070177466889 68.009497869018218807469 17.86013499632561619
70.009497869018218807469 112.42126407960944334 70.009497869018218807469 17.74427058118367384
72.009497869018218807469 112.70590705587844127 72.009497869018218807469 17.65653960364823050
74.009497869018190385759 112.97984131244572836 74.009497869018190385759 17.53999906296767719
76.009497869018190385759 113.24196837100910784 76.009497869018190385759 17.42568824161315177
78.009497869018190385759 113.49188485712403462 78.009497869018190385759 17.39774258064399248
80.009497869018190385759 113.73217733226287862 80.009497869018190385759 17.31382303099307407
82.009497869018190385759 113.96892713215886772 82.009497869018190385759 17.23929194523616104
84.009497869018190385759 114.19783796656582808 84.009497869018190385759 17.22764373724898235
86.009497869018190385759 114.41959539255819323 86.009497869018190385759 17.21723879148371950
88.009497869018218807469 114.63377419133485091 88.009497869018218807469 17.19323426689390999
91.009497869018190385759 114.94141732960127911 91.009497869018190385759 17.12473527320687694
94.009497869018218807469 115.23292971321325240 94.009497869018218807469 17.01492363527089680
97.009497869018190385759 115.50917113451554030 97.009497869018190385759 16.67665206546491419
99.504748934509109403734 115.72172674310816376 99.504748934509109403734 17.26764848726388024
nan nan nan nan

