Time Pressure difference Time.1 Pressure.1 difference.1
(hr) (psi) (hr) (psi)
0.000200000000006639311 0.17891467127814181 0.000200000000006639311 0.14381140125023267
0.000399999999999067768 0.35514943659491333 0.000399999999999067768 0.36469610992343104
0.000600000000005707079 0.52921499764559654 0.000600000000005707079 0.52818857442837042
0.000799999999998135536 0.70134852941617432 0.000799999999998135536 0.69154414132526476
0.001007140329434719206 0.87775614071898789 0.001007140329434719206 0.85985719787992432
0.001267914553963578328 1.09732327871547852 0.001267914553963578328 1.06896615272426354
0.001596209851982166583 1.37002679367358038 0.001596209851982166583 1.32581663109977166
0.002009509145224797066 1.70787432837963049 0.002009509145224797066 1.63984767381120156
0.002529822128138903281 2.12518887653447086 0.002529822128138903281 2.02168227964975422
0.003184857364431081805 2.63886909932714131 0.003184857364431081805 2.48294004481147734
0.004009497869020606231 3.26858743034375765 0.004009497869020606231 3.03584642937200000
0.005047658755842121536 4.03687021151503878 0.005047658755842121536 3.69254814274412757
0.006354625877790454069 4.96898018902094041 0.006354625877790454069 4.46405629905262291
0.008000000000009777068 6.09250951034376165 0.008000000000009777068 5.35875892416234834
0.010071403294347192059 7.43657663485037546 0.010071403294347192059 6.38044087785558300
0.012679145539706837553 9.03050678128009920 0.012679145539706837553 7.52589643519707785
0.015962098519750611558 10.90192861593409113 0.015962098519750611558 8.78237656219325125
0.020095091452091651263 13.07427835209058387 0.020095091452091651263 10.12533860328063007
0.025298221281360611101 15.56385949726944240 0.025298221281360611101 11.51705927836206911
0.031848573644296607199 18.37670793165948524 0.031848573644296607199 12.90761482638933444
0.040094978690177640601 21.50610318518533504 0.040094978690177640601 14.23804187245187158
0.050476587558421215363 24.93088994345225373 0.050476587558421215363 15.44754321005374109
0.063546258777961384112 28.61630849941430554 0.063546258777961384112 16.48259935725196001
0.079999999999998294697 32.51651277685213159 0.079999999999998294697 17.30667008873895441
0.100714032943542974863 36.57986708721762170 0.100714032943542974863 17.90865328283245361
0.126791455396897845276 40.75535501396379345 0.126791455396897845276 18.30440970173789950
0.159620985197506115583 44.99857052134363755 0.159620985197506115583 18.53337359759794012
0.200950914520760193227 49.27655381038171356 0.200950914520760193227 18.64955907155532344
0.252982212813478213320 53.56962633041064237 0.252982212813478213320 18.70953596642728201
0.318485736442795541734 57.87067415762401623 0.318485736442795541734 18.76267420941806918
0.400949786901833249431 62.18247470193095694 0.400949786901833249431 18.84511876799826524
0.504765875584155310207 66.51418917459594127 0.504765875584155310207 18.97721580962067023
0.635462587779443310865 70.87748841248503595 0.635462587779443310865 19.16852985260626951
0.799999999999997157829 75.28532373079433171 0.799999999999997157829 19.41870512756388933
1.007140329435344483500 79.74842908687207910 1.007140329435344483500 19.72207750380804825
1.267914553968893187630 84.27616491187221470 1.267914553968893187630 20.07458879991010647
1.596209851975103788391 88.87613737181939655 1.596209851975103788391 20.47207404336043624
2.009509145207672986544 93.55418589189832801 2.009509145207672986544 20.91268475830970175
2.529822128134711078928 98.31501146996981788 2.529822128134711078928 21.39727029894931576
3.184857364427998049905 103.16221525361682154 3.184857364427998049905 21.92796675114581717
4.009497869018190385759 108.09813612786435044 4.009497869018190385759 22.50345747747751091
5.009497869018204596614 112.95481527278799661 5.009497869018204596614 23.09228851684800787
6.009497869018204596614 116.98102723992272445 6.009497869018204596614 23.59643467273951245
7.009497869018204596614 120.42302035007664074 7.009497869018204596614 24.03587610274304254
8.009497869018204596614 123.42853815177265631 8.009497869018204596614 24.42446208908463134
9.009497869018204596614 126.09580212691844281 9.009497869018204596614 24.76993369858974603
10.009497869018190385759 128.49157564856358249 10.009497869018190385759 25.07581891421562403
11.009497869018190385759 130.66409720444079312 11.009497869018190385759 25.35710098809336799
12.009497869018190385759 132.65046492167471115 12.009497869018190385759 25.60089019757724316
13.009497869018190385759 134.48023993718879865 13.009497869018190385759 25.83318857540616875
14.009497869018190385759 136.17082527378821055 14.009497869018190385759 26.06034514037754590
15.009497869018190385759 137.74586055778937066 15.009497869018190385759 26.24878320312635438
16.009497869018204596614 139.21898531839391921 16.009497869018204596614 26.41731826534947558
17.009497869018204596614 140.59711893744946565 17.009497869018204596614 26.60435598802817481
18.009497869018204596614 141.89053707465694742 18.009497869018204596614 26.73914148300010751
19.009497869018204596614 143.11531856704172583 19.009497869018204596614 26.86980499379726339
20.009497869018204596614 144.27415016191807240 20.009497869018204596614 26.99499777726350658
21.009497869018204596614 145.37041625019023172 21.009497869018204596614 27.14679138872224939
22.009497869018190385759 146.40639242063954839 22.009497869018190385759 27.28402563207048104
23.009497869018190385759 147.39606759184994189 23.009497869018190385759 27.37146265717269955
24.009497869018190385759 148.34422636453840028 24.009497869018190385759 27.46154430789300349
25.009497869018190385759 149.25012272156345716 25.009497869018190385759 27.58331963928032593
26.009497869018190385759 150.11530546044937751 26.009497869018190385759 27.66018605732097058
27.009497869018204596614 150.93972886740499462 27.009497869018204596614 27.75505444983545900
28.009497869018190385759 151.72816719371868999 28.009497869018190385759 27.82093660249987366
29.009497869018190385759 152.48770749462312324 29.009497869018190385759 27.79491690429139439
30.009497869018190385759 153.21997292170090077 30.009497869018190385759 27.79080900872820692
31.009497869018190385759 153.92391495034402737 31.009497869018190385759 27.80277475603077164
32.009497869018190385759 154.59994342339192031 32.009497869018190385759 27.83415649229612043
33.009497869018218807469 155.24497292070535082 33.009497869018218807469 27.82000856298266811
34.009497869018190385759 155.86228892384224309 34.009497869018190385759 27.84315959450325551
35.009497869018218807469 156.45652792619850402 35.009497869018218807469 27.85121427464629917
36.009497869018190385759 157.03156539309870254 36.009497869018190385759 27.83333759321149614
37.009497869018218807469 157.59108360871067589 37.009497869018218807469 27.81320513445625409
38.009497869018190385759 158.13303601594029146 38.009497869018190385759 27.82888610576604904
39.009497869018190385759 158.65747182952782168 39.009497869018190385759 27.89015358704715553
40.009497869018190385759 159.16462536497670044 40.009497869018190385759 27.96199451129079350
41.009497869018190385759 159.65542783638824176 41.009497869018190385759 28.01484433871499391
42.009497869018190385759 160.12993286329177067 42.009497869018190385759 28.08366893936585029
43.009497869018190385759 160.58942297493237561 43.009497869018190385759 28.12427138328828136
44.009497869018218807469 161.03757087903954925 44.009497869018218807469 28.14682081193403462
46.009497869018218807469 161.90190102246390325 46.009497869018218807469 28.20573991240954470
48.009497869018218807469 162.72623181543303872 48.009497869018218807469 28.25292839488965413
50.009497869018218807469 163.50640650300431389 50.009497869018218807469 28.35569724665203495
52.009497869018190385759 164.24418771455376032 52.009497869018190385759 28.38768108758508646
54.009497869018190385759 164.94033698116464848 54.009497869018190385759 28.37880274157243221
56.009497869018190385759 165.60453753371012908 56.009497869018190385759 28.29840234941485377
58.009497869018190385759 166.24135926737329783 58.009497869018190385759 27.98796154827984140
60.009497869018190385759 166.85037916687758752 60.009497869018190385759 27.77715338266390077
62.009497869018190385759 167.42781954201180383 62.009497869018190385759 27.57144087546040723
64.009497869018190385759 167.97300593449679695 64.009497869018190385759 27.37142206040772763
66.009497869018218807469 168.48858384980130154 66.009497869018218807469 27.18038260144505003
68.009497869018218807469 168.96366043253541989 68.009497869018218807469 26.91423120974068794
70.009497869018218807469 169.41259934218922467 70.009497869018218807469 26.73962997303372902
72.009497869018218807469 169.84154049392790853 72.009497869018218807469 26.60742426383101034
74.009497869018190385759 170.25434420000502200 74.009497869018190385759 26.43180414349990670
76.009497869018190385759 170.64935511464568663 76.009497869018190385759 26.25954408631981707
78.009497869018190385759 171.02596537497163354 78.009497869018190385759 26.21743152777601793
80.009497869018190385759 171.38807278542392964 80.009497869018190385759 26.09096942864928437
82.009497869018190385759 171.74484158110053045 82.009497869018190385759 25.97865522302949159
84.009497869018190385759 172.08979749128323533 84.009497869018190385759 25.96110202071547945
86.009497869018190385759 172.42397361239670772 86.009497869018190385759 25.94542234549976811
88.009497869018218807469 172.74672916333099693 88.009497869018218807469 25.90924886052762943
91.009497869018190385759 173.21033028141306431 91.009497869018190385759 25.80602468254092230
94.009497869018218807469 173.64962324838387531 94.009497869018218807469 25.64054464481795037
97.009497869018190385759 174.06590372354077090 97.009497869018190385759 25.13078818198531650
99.504748934509109403734 174.38621321704493994 99.504748934509109403734 26.02138695650181788
nan nan nan nan

