Time Pressure difference Time.1 Pressure.1 difference.1
(hr) (psi) (hr) (psi)
0.000200000000006639311 0.20200043531403108 0.000200000000006639311 0.16236771108897236
0.000399999999999067768 0.40097517034909563 0.000399999999999067768 0.41175367249419631
0.000600000000005707079 0.59750080379341541 0.000600000000005707079 0.59634193887074083
0.000799999999998135536 0.79184511385697098 0.000799999999998135536 0.78077564343175054
0.001007140329434719206 0.99101499758595413 0.001007140329434719206 0.97080651373539839
0.001267914553963578328 1.23891337919489519 0.001267914553963578328 1.20689726920481366
0.001596209851982166583 1.54680444447017140 0.001596209851982166583 1.49688974479006487
0.002009509145224797066 1.92824520946087308 0.002009509145224797066 1.85144092204490485
0.002529822128138903281 2.39940679608730578 0.002529822128138903281 2.28254450928198027
0.003184857364431081805 2.97936833794999822 0.003184857364431081805 2.80331940543231362
0.004009497869020606231 3.69034064716230681 0.004009497869020606231 3.42756854929096777
0.005047658755842121536 4.55775669042020493 0.005047658755842121536 4.16900596761433739
0.006354625877790454069 5.61013892308815798 0.006354625877790454069 5.04006356344651074
0.008000000000009777068 6.87863976974295710 0.008000000000009777068 6.05021168857039360
0.010071403294347192059 8.39613491031493986 0.010071403294347192059 7.20372357177243217
0.012679145539706837553 10.19573346273559800 0.012679145539706837553 8.49697984619024993
0.015962098519750611558 12.30862908250623278 0.015962098519750611558 9.91558644118592980
0.020095091452091651263 14.76128201042485166 0.020095091452091651263 11.43183390692974477
0.025298221281360611101 17.57209943240098227 0.025298221281360611101 13.00313144331201265
0.031848573644296607199 20.74789605187361730 0.031848573644296607199 14.57311351366537799
0.040094978690177640601 24.28108424133828080 0.040094978690177640601 16.07520856567146694
0.050476587558421215363 28.14777896841383509 0.050476587558421215363 17.44077459199615987
0.063546258777961384112 32.30873540256453680 0.063546258777961384112 18.60938637109092397
0.079999999999998294697 36.71219184483304332 0.079999999999998294697 19.53978880986656108
0.100714032943542974863 41.29984993718118602 0.100714032943542974863 20.21944725481083438
0.126791455396897845276 46.01411049963654420 0.126791455396897845276 20.66626901809117456
0.159620985197506115583 50.80483768538798017 0.159620985197506115583 20.92477664244928448
0.200950914520760193227 55.63481881817289576 0.200950914520760193227 21.05595379046568638
0.252982212813478213320 60.48183617949588609 0.252982212813478213320 21.12366963951467369
0.318485736442795541734 65.33785791989808445 0.318485736442795541734 21.18366442998814492
0.400949786901833249431 70.20601982476074454 0.400949786901833249431 21.27674699612707343
0.504765875584155310207 75.09666519712445165 0.504765875584155310207 21.42588881731365902
0.635462587779443310865 80.02297078828956955 0.635462587779443310865 21.64188854326514644
0.799999999999997157829 84.99955905089683483 0.799999999999997157829 21.92434449886245673
1.007140329435344483500 90.03854896904913119 1.007140329435344483500 22.26686169784779423
1.267914553968893187630 95.15050877146862263 1.267914553968893187630 22.66485832247915155
1.596209851975103788391 100.34402606495739008 1.596209851975103788391 23.11363198443920197
2.009509145207672986544 105.62569374891748453 2.009509145207672986544 23.61109569486578863
2.529822128134711078928 111.00081940157882343 2.529822128134711078928 24.15820840203954845
3.184857364427998049905 116.47346883472867773 3.184857364427998049905 24.75738181580979358
4.009497869018190385759 122.04628272500811192 4.009497869018190385759 25.40712941005525138
5.009497869018204596614 127.52963014669612107 5.009497869018204596614 26.07193864805419992
6.009497869018204596614 132.07535333539661337 6.009497869018204596614 26.64113592083493387
7.009497869018204596614 135.96147458879622150 7.009497869018204596614 27.13727947083891934
8.009497869018204596614 139.35480113909812871 8.009497869018204596614 27.57600558445038885
9.009497869018204596614 142.36622820781116161 9.009497869018204596614 27.96605417582712860
10.009497869018190385759 145.07113379676533782 10.009497869018190385759 28.31140845153377228
11.009497869018190385759 147.52398071469119145 11.009497869018190385759 28.62898498655702539
12.009497869018190385759 149.76665394382629870 12.009497869018190385759 28.90423086823236787
13.009497869018190385759 151.83252896134220578 13.009497869018190385759 29.16650323029728753
14.009497869018190385759 153.74125434137377511 14.009497869018190385759 29.42297031978110056
15.009497869018190385759 155.51951998460091886 15.009497869018190385759 29.63572297127169364
16.009497869018204596614 157.18272535947698998 16.009497869018204596614 29.82600449313650870
17.009497869018204596614 158.73868267131391008 17.009497869018204596614 30.03717611551568112
18.009497869018204596614 160.19899347138689905 18.009497869018204596614 30.18935328725818579
19.009497869018204596614 161.58181128536969595 19.009497869018204596614 30.33687660590013380
20.009497869018204596614 162.89016953764942741 20.009497869018204596614 30.47822329691041077
21.009497869018204596614 164.12788931473090770 21.009497869018204596614 30.64960318081543988
22.009497869018190385759 165.29753982975432791 22.009497869018190385759 30.80454506846667684
23.009497869018190385759 166.41491502305638051 23.009497869018190385759 30.90326429035627598
24.009497869018190385759 167.48541686318853294 24.009497869018190385759 31.00496937987919921
25.009497869018190385759 168.50820307273292542 25.009497869018190385759 31.14245765725197401
26.009497869018190385759 169.48502229405573871 26.009497869018190385759 31.22924232278174017
27.009497869018204596614 170.41582291481211087 27.009497869018204596614 31.33635179820132066
28.009497869018190385759 171.30599521871468482 28.009497869018190385759 31.41073487379018303
29.009497869018190385759 172.16354071973577788 29.009497869018190385759 31.38135779516769830
30.009497869018190385759 172.99029200837196640 30.009497869018190385759 31.37671984856410390
31.009497869018190385759 173.78506526651744934 31.009497869018190385759 31.39022956326055080
32.009497869018190385759 174.54832321995863254 32.009497869018190385759 31.42566055581819739
33.009497869018218807469 175.27658232982861364 33.009497869018218807469 31.40968708723849545
34.009497869018190385759 175.97355201078960363 34.009497869018190385759 31.43582534863270794
35.009497869018218807469 176.64446701344994040 35.009497869018218807469 31.44491934234259389
36.009497869018190385759 177.29370286317595173 36.009497869018190385759 31.42473599233555959
37.009497869018218807469 177.92541697757656038 37.009497869018218807469 31.40200579696673344
38.009497869018190385759 178.53729872767453912 38.009497869018190385759 31.41971011941328129
39.009497869018190385759 179.12940367849915901 39.009497869018190385759 31.48888308215001430
40.009497869018190385759 179.70199637981241381 40.009497869018190385759 31.56999380307025405
41.009497869018190385759 180.25612820237384426 41.009497869018190385759 31.62966296306531788
42.009497869018190385759 180.79185968436166831 42.009497869018190385759 31.70736815734853664
43.009497869018190385759 181.31063884266558262 43.009497869018190385759 31.75320962629322352
44.009497869018218807469 181.81661228278659337 44.009497869018218807469 31.77866865863519763
46.009497869018218807469 182.79246889633020601 46.009497869018218807469 31.84519022368819563
48.009497869018218807469 183.72316495290826310 48.009497869018218807469 31.89846754261735029
50.009497869018218807469 184.60400734210168139 50.009497869018218807469 32.01449689138132726
52.009497869018190385759 185.43698612933488334 52.009497869018190385759 32.05060767953154510
54.009497869018190385759 186.22296110776653677 54.009497869018190385759 32.04058374048500468
56.009497869018190385759 186.97286495741465728 56.009497869018190385759 31.94980910417805831
58.009497869018190385759 187.69185723735694182 58.009497869018190385759 31.59931142547724292
60.009497869018190385759 188.37946034970053688 60.009497869018190385759 31.36130220623343590
62.009497869018190385759 189.03140916033589747 62.009497869018190385759 31.12904614971336059
64.009497869018190385759 189.64694218410929238 64.009497869018190385759 30.90321845529904721
66.009497869018218807469 190.22904628203372113 66.009497869018218807469 30.68752874356698612
68.009497869018218807469 190.76542306899162327 68.009497869018218807469 30.38703523680399954
70.009497869018218807469 191.27228957989106561 70.009497869018218807469 30.18990480826388989
72.009497869018218807469 191.75657797701541085 72.009497869018218807469 30.04064029787372547
74.009497869018190385759 192.22264667742504685 74.009497869018190385759 29.84235951685473154
76.009497869018190385759 192.66862674234189967 76.009497869018190385759 29.64787235552237377
78.009497869018190385759 193.09383187496797518 78.009497869018190385759 29.60032591845679306
80.009497869018190385759 193.50266282225283021 80.009497869018190385759 29.45754612912016057
82.009497869018190385759 193.90546630124254079 82.009497869018190385759 29.33073976793652093
84.009497869018190385759 194.29493265144878933 84.009497869018190385759 29.31092163629167047
86.009497869018190385759 194.67222827206080638 86.009497869018190385759 29.29321877717715950
88.009497869018218807469 195.03662970053500203 88.009497869018218807469 29.25237774575699845
91.009497869018190385759 195.56005031772440361 91.009497869018190385759 29.13583431899781218
94.009497869018218807469 196.05602624817532842 94.009497869018218807469 28.94900201834284914
97.009497869018190385759 196.52602033302989071 97.009497869018190385759 28.37347052804793890
99.504748934509109403734 196.88766008376040872 99.504748934509109403734 29.37898527346979449
nan nan nan nan

