Time Pressure difference Time.1 Pressure.1 difference.1
(hr) (psi) (hr) (psi)
0.000200000000006639311 0.07255525839850913 0.000200000000006639311 0.05831983092175334
0.000399999999999067768 0.14402373465600171 0.000399999999999067768 0.14789519665097664
0.000600000000005707079 0.21461253360743085 0.000600000000005707079 0.21419628824744977
0.000799999999998135536 0.28441783681393246 0.000799999999998135536 0.28044186376324104
0.001007140329434719206 0.35595640729617944 0.001007140329434719206 0.34869784983149005
0.001267914553963578328 0.44499745864959500 0.001267914553963578328 0.43349779465315758
0.001596209851982166583 0.55558690250357179 0.001596209851982166583 0.53765835731234979
0.002009509145224797066 0.69259419768390551 0.002009509145224797066 0.66500735159163937
0.002529822128138903281 0.86182774716605270 0.002529822128138903281 0.81985272170128276
0.003184857364431081805 1.07014046424326481 0.003184857364431081805 1.00690656195119810
0.004009497869020606231 1.32551011000115504 0.004009497869020606231 1.23112666260246995
0.005047658755842121536 1.63707179084480847 0.005047658755842121536 1.49743887816351728
0.006354625877790454069 2.01507030706839974 0.006354625877790454069 1.81030854523793017
0.008000000000009777068 2.47069510096889910 0.008000000000009777068 2.17313725956814130
0.010071403294347192059 3.01575458003148889 0.010071403294347192059 2.58745989516724073
0.012679145539706837553 3.66214099886013278 0.012679145539706837553 3.05197643454996737
0.015962098519750611558 4.42105860922672811 0.015962098519750611558 3.56151676254841520
0.020095091452091651263 5.30201149762198831 0.020095091452091651263 4.10612809718292837
0.025298221281360611101 6.31161122469912872 0.025298221281360611101 4.67051251841411119
0.031848573644296607199 7.45230552067297225 0.031848573644296607199 5.23442444572470666
0.040094978690177640601 8.72136903362354587 0.040094978690177640601 5.77395246440444598
0.050476587558421215363 10.11022264987925467 0.050476587558421215363 6.26444148610474194
0.063546258777961384112 11.60477026704358927 0.063546258777961384112 6.68418775777959695
0.079999999999998294697 13.18641992794003315 0.079999999999998294697 7.01837312354390708
0.100714032943542974863 14.83423181417120240 0.100714032943542974863 7.26249534050348355
0.126791455396897845276 16.52751724068577843 0.126791455396897845276 7.42298642282458587
0.159620985197506115583 18.24826822985364316 0.159620985197506115583 7.51583814096137548
0.200950914520760193227 19.98311859591516182 0.200950914520760193227 7.56295483086114473
0.252982212813478213320 21.72408809712505118 0.252982212813478213320 7.58727725827465704
0.318485736442795541734 23.46829182428992411 0.318485736442795541734 7.60882640750594508
0.400949786901833249431 25.21685610032222868 0.400949786901833249431 7.64226014554768263
0.504765875584155310207 26.97349607080388267 0.504765875584155310207 7.69582945274939512
0.635462587779443310865 28.74294460967135123 0.635462587779443310865 7.77341302778503174
0.799999999999997157829 30.53045386317926813 0.799999999999997157829 7.87486659550978008
1.007140329435344483500 32.34037677255641796 1.007140329435344483500 7.99789318126777982
1.267914553968893187630 34.17650927301729524 1.267914553968893187630 8.14084707093128657
1.596209851975103788391 36.04193589271938691 1.596209851975103788391 8.30203924339040711
2.009509145207672986544 37.93902469348872586 2.009509145207672986544 8.48072008631914009
2.529822128134711078928 39.86968207077116944 2.529822128134711078928 8.67723403828359352
3.184857364427998049905 41.83536839778009409 3.184857364427998049905 8.89244734608678300
4.009497869018190385759 43.83703216245190504 4.009497869018190385759 9.12582607381576416
5.009497869018204596614 45.80656103228269416 5.009497869018204596614 9.36461469807660940
6.009497869018204596614 47.43931058577511095 6.009497869018204596614 9.56906106544275126
7.009497869018204596614 48.83514189311863873 7.009497869018204596614 9.74726772830132582
8.009497869018204596614 50.05396938873730051 8.009497869018204596614 9.90485098543524245
9.009497869018204596614 51.13562482566278788 9.009497869018204596614 10.04495007131749951
10.009497869018190385759 52.10718275149123002 10.009497869018190385759 10.16899568871417081
11.009497869018190385759 52.98820531792989641 11.009497869018190385759 10.28306399517150282
12.009497869018190385759 53.79373692676208663 12.009497869018190385759 10.38192782205897302
13.009497869018190385759 54.53576550448210725 13.009497869018190385759 10.47613177251494321
14.009497869018190385759 55.22134849812609048 14.009497869018190385759 10.56825056383974193
15.009497869018190385759 55.86007248426481908 15.009497869018190385759 10.64466784274248390
16.009497869018204596614 56.45746870054683342 16.009497869018204596614 10.71301385875923451
17.009497869018204596614 57.01634316357397125 17.009497869018204596614 10.78886325781787825
18.009497869018204596614 57.54086296115120547 18.009497869018204596614 10.84352281338253121
19.009497869018204596614 58.03754854331646129 19.009497869018204596614 10.89651078089474190
20.009497869018204596614 58.50748946658428906 20.009497869018204596614 10.94728020460455475
21.009497869018204596614 58.95205820284211740 21.009497869018204596614 11.00883706086432312
22.009497869018190385759 59.37217757150359887 22.009497869018190385759 11.06448965724517208
23.009497869018190385759 59.77352049807739576 23.009497869018190385759 11.09994799000551957
24.009497869018190385759 60.15802728147179579 24.009497869018190385759 11.13647879767089677
25.009497869018190385759 60.52539538938977870 25.009497869018190385759 11.18586234219662856
26.009497869018190385759 60.87625290562002078 26.009497869018190385759 11.21703397716242101
27.009497869018204596614 61.21058129185087893 27.009497869018204596614 11.25550595200700599
28.009497869018190385759 61.53031664998731287 28.009497869018190385759 11.28222313834096369
29.009497869018190385759 61.83833299321122468 29.009497869018190385759 11.27167137132554231
30.009497869018190385759 62.13528855810912432 30.009497869018190385759 11.27000549662710682
31.009497869018190385759 62.42075813654504657 31.009497869018190385759 11.27485796557929909
32.009497869018190385759 62.69490793206676926 32.009497869018190385759 11.28758419964082194
33.009497869018218807469 62.95648671438742383 33.009497869018218807469 11.28184679051831729
34.009497869018190385759 63.20682684469177559 34.009497869018190385759 11.29123522726399287
35.009497869018218807469 63.44780855993303703 35.009497869018218807469 11.29450164133121781
36.009497869018190385759 63.68100347738564437 36.009497869018190385759 11.28725211153277286
37.009497869018218807469 63.90790487357852356 37.009497869018218807469 11.27908779646152126
38.009497869018190385759 64.12768280830758272 38.009497869018190385759 11.28544690003415596
39.009497869018190385759 64.34035723962418274 39.009497869018190385759 11.31029269889469901
40.009497869018190385759 64.54602318948364825 40.009497869018190385759 11.33942634559257989
41.009497869018190385759 64.74505829309754290 41.009497869018190385759 11.36085853367243992
42.009497869018190385759 64.93748429479113327 42.009497869018190385759 11.38876897080274198
43.009497869018190385759 65.12382129859008728 43.009497869018190385759 11.40523447801552415
44.009497869018218807469 65.30555869749069586 44.009497869018218807469 11.41437894677509135
46.009497869018218807469 65.65607046072268815 46.009497869018218807469 11.43827240687575930
48.009497869018218807469 65.99036128920786837 48.009497869018218807469 11.45740875000133308
50.009497869018218807469 66.30674549430591469 50.009497869018218807469 11.49908459772064084
52.009497869018190385759 66.60593787502641305 52.009497869018190385759 11.51205500326031128
54.009497869018190385759 66.88824725503451418 54.009497869018190385759 11.50845456801094002
56.009497869018190385759 67.15760047449995795 56.009497869018190385759 11.47584980068436344
58.009497869018190385759 67.41585076280574640 58.009497869018190385759 11.34995675690611172
60.009497869018190385759 67.66282657458630467 60.009497869018190385759 11.26446773121854150
62.009497869018190385759 67.89699594330431864 62.009497869018190385759 11.18104514765214574
64.009497869018190385759 68.11808535592497549 64.009497869018190385759 11.09993152680129036
66.009497869018218807469 68.32716764415904720 66.009497869018218807469 11.02245930381181616
68.009497869018218807469 68.51982542886229055 68.009497869018218807469 10.91452694219898945
70.009497869018218807469 68.70188360420577567 70.009497869018218807469 10.84372091072335564
72.009497869018218807469 68.87583208970349347 72.009497869018218807469 10.79010753556280733
74.009497869018190385759 69.04323635760572131 74.009497869018190385759 10.71888831625802752
76.009497869018190385759 69.20342511561668175 76.009497869018190385759 10.64903170320803660
78.009497869018190385759 69.35615185713135133 78.009497869018190385759 10.63195379928244044
80.009497869018190385759 69.50299725860509170 80.009497869018190385759 10.58066963005132166
82.009497869018190385759 69.64767769187487545 82.009497869018190385759 10.53512285542209881
84.009497869018190385759 69.78756764623467745 84.009497869018190385759 10.52800450609660210
86.009497869018190385759 69.92308607322999592 86.009497869018190385759 10.52164592812893851
88.009497869018218807469 70.05397311692685491 88.009497869018218807469 10.50697649643516662
91.009497869018190385759 70.24197725697857209 91.009497869018190385759 10.46511600029309186
94.009497869018218807469 70.42012371363033196 94.009497869018218807469 10.39800888822110458
97.009497869018190385759 70.58893791553727226 97.009497869018190385759 10.19128737333966761
99.504748934509109403734 70.71883300967721198 99.504748934509109403734 10.55245185332792524
nan nan nan nan

