Time Pressure difference Time.1 Pressure.1 difference.1
(hr) (psi) (hr) (psi)
0.000200000000006639311 0.77667106149313170 0.000200000000006639311 0.62428728100331410
0.000399999999999067768 1.54170861415856364 0.000399999999999067768 1.58315085505931807
0.000600000000005707079 2.29732962111590755 0.000600000000005707079 2.29287390373974631
0.000799999999998135536 3.04456366225823150 0.000799999999998135536 3.00200267801105714
0.001007140329434719206 3.81035154173864798 0.001007140329434719206 3.73265198342345039
0.001267914553963578328 4.76349552327180170 0.001267914553963578328 4.64039684730993685
0.001596209851982166583 5.94730525179959724 0.001596209851982166583 5.75538832486629115
0.002009509145224797066 7.41390607066180607 0.002009509145224797066 7.11860142271959351
0.002529822128138903281 9.22547429352751891 0.002529822128138903281 8.77615072548418595
0.003184857364431081805 11.45536724224040270 0.003184857364431081805 10.77847706088669177
0.004009497869020606231 14.18898322296690928 0.004009497869020606231 13.17865132013098695
0.005047658755842121536 17.52410939745238139 0.005047658755842121536 16.02940253670492510
0.006354625877790454069 21.57041169611855125 0.006354625877790454069 19.37853010925147856
0.008000000000009777068 26.44766801264434619 0.008000000000009777068 23.26244657401351290
0.010071403294347192059 32.28228198170070584 0.010071403294347192059 27.69758205963114861
0.012679145539706837553 39.20155478325278864 0.012679145539706837553 32.67002046984169539
0.015962098519750611558 47.32542283967703156 0.015962098519750611558 38.12441807182508313
0.020095091452091651263 56.75562307681718721 0.020095091452091651263 43.95423485848089484
0.025298221281360611101 67.56292924621112661 0.025298221281360611101 49.99571354938741763
0.031848573644296607199 79.77354318720387027 0.031848573644296607199 56.03213440764402264
0.040094978690177640601 93.35829124628840248 0.040094978690177640601 61.80753660760213819
0.050476587558421215363 108.22533791120747537 0.050476587558421215363 67.05799863534849692
0.063546258777961384112 124.22379081312570293 0.063546258777961384112 71.55119167986795503
0.079999999999998294697 141.15463150135809656 0.079999999999998294697 75.12849411793591514
0.100714032943542974863 158.79370873805990527 0.100714032943542974863 77.74171148584410673
0.126791455396897845276 176.91955955370457332 0.126791455396897845276 79.45969557159953922
0.159620985197506115583 195.33941673320603627 0.159620985197506115583 80.45363100892745933
0.200950914520760193227 213.91020133354641075 0.200950914520760193227 80.95799375762724992
0.252982212813478213320 232.54648849422500234 0.252982212813478213320 81.21835428744007856
0.318485736442795541734 251.21739657364895493 0.318485736442795541734 81.44902813489318305
0.400949786901833249431 269.93498234663115909 0.400949786901833249431 81.80692110347634127
0.504765875584155310207 288.73901475792342808 0.504765875584155310207 82.38035618738558696
0.635462587779443310865 307.68015707170923179 0.635462587779443310865 83.21085309288068288
0.799999999999997157829 326.81463112630535761 0.799999999999997157829 84.29686742011605816
1.007140329435344483500 346.18903317895620830 1.007140329435344483500 85.61381109948010248
1.267914553968893187630 365.84399699070792167 1.267914553968893187630 87.14406750928719703
1.596209851975103788391 385.81254103342797634 1.596209851975103788391 88.86955644629276208
2.009509145207672986544 406.12001433257250937 2.009509145207672986544 90.78225365127988766
2.529822128134711078928 426.78682398484590976 2.529822128134711078928 92.88584618253572955
3.184857364427998049905 447.82860262169145926 3.184857364427998049905 95.18960681833806348
4.009497869018190385759 469.25550337533735501 4.009497869018190385759 97.68782001743693399
5.009497869018204596614 490.33841468648063255 5.009497869018204596614 100.24394369986553954
6.009497869018204596614 507.81625649772911402 6.009497869018204596614 102.43244913235308502
7.009497869018204596614 522.75799617406539710 7.009497869018204596614 104.34007045522555757
8.009497869018204596614 535.80499050216508294 8.009497869018204596614 106.02692759409089263
9.009497869018204596614 547.38362029289021393 9.009497869018204596614 107.52662462705778523
10.009497869018190385759 557.78370627164474627 10.009497869018190385759 108.85447657691760526
11.009497869018190385759 567.21465238056782709 11.009497869018190385759 110.07552594831312831
12.009497869018190385759 575.83750210238520140 12.009497869018190385759 111.13381827704037619
13.009497869018190385759 583.78058074116074749 13.009497869018190385759 112.14222874669407304
14.009497869018190385759 591.11943505948613620 14.009497869018190385759 113.12831853564814821
15.009497869018190385759 597.95668500201657025 15.009497869018190385759 113.94633077117524067
16.009497869018204596614 604.35153995358098200 16.009497869018204596614 114.67794380626362738
17.009497869018204596614 610.33403704643956189 17.009497869018204596614 115.48987714618682787
18.009497869018204596614 615.94878306141413304 18.009497869018204596614 116.07498284325392035
19.009497869018204596614 621.26557645231935112 19.009497869018204596614 116.64219495003236204
20.009497869018204596614 626.29608042639097221 20.009497869018204596614 117.18565855383513963
21.009497869018204596614 631.05498667133269919 21.009497869018204596614 117.84459671970671479
22.009497869018190385759 635.55217354950434583 22.009497869018190385759 118.44033246732900011
23.009497869018190385759 639.84836714987397954 23.009497869018190385759 118.81989780210452068
24.009497869018190385759 643.96433749030040872 24.009497869018190385759 119.21094349324981465
25.009497869018190385759 647.89684610005883769 25.009497869018190385759 119.73957189033210113
26.009497869018190385759 651.65261633061436441 26.009497869018190385759 120.07325007371591141
27.009497869018204596614 655.23144973776743427 27.009497869018204596614 120.48507507716590226
28.009497869018190385759 658.65407141236414645 28.009497869018190385759 120.77107041269530896
29.009497869018190385759 661.95124635914748978 29.009497869018190385759 120.65811854305296436
30.009497869018190385759 665.13002070157710932 30.009497869018190385759 120.64028611162198956
31.009497869018190385759 668.18584277983438824 31.009497869018190385759 120.69222958608750673
32.009497869018190385759 671.12049172735112279 32.009497869018190385759 120.82845813706425986
33.009497869018218807469 673.92057369264716726 33.009497869018218807469 120.76704178032107961
34.009497869018190385759 676.60035099658693980 34.009497869018190385759 120.86754072821229045
35.009497869018218807469 679.17995072110147703 35.009497869018218807469 120.90250620606826715
36.009497869018190385759 681.67619631474178732 36.009497869018190385759 120.82490328481672748
37.009497869018218807469 684.10507262398834882 37.009497869018218807469 120.73750800303128017
38.009497869018190385759 686.45769551620162474 38.009497869018190385759 120.80557931627471646
39.009497869018190385759 688.73427863324991449 39.009497869018190385759 121.07154229953189883
40.009497869018190385759 690.93583914197267859 40.009497869018190385759 121.38340474486602716
41.009497869018190385759 693.06641945565786500 41.009497869018190385759 121.61282657635726423
42.009497869018190385759 695.12625233742323871 42.009497869018190385759 121.91159511927479286
43.009497869018190385759 697.12090526445297201 43.009497869018190385759 122.08785088966617138
44.009497869018218807469 699.06632151177529977 44.009497869018218807469 122.18573827116064479
46.009497869018218807469 702.81839061364519239 46.009497869018218807469 122.44150690087462863
48.009497869018218807469 706.39682198220236842 48.009497869018218807469 122.64635275569609973
50.009497869018218807469 709.78357108677460019 50.009497869018218807469 123.09247376196414336
52.009497869018190385759 712.98628952585079332 52.009497869018190385759 123.23131605762742424
54.009497869018190385759 716.00828311639213553 54.009497869018190385759 123.19277503484438796
56.009497869018190385759 718.89158689748819597 56.009497869018190385759 122.84375582096215851
58.009497869018190385759 721.65603884730705886 58.009497869018190385759 121.49612801142677654
60.009497869018190385759 724.29980265068525114 60.009497869018190385759 120.58100685008938058
62.009497869018190385759 726.80647930218947295 62.009497869018190385759 119.68800601236729619
64.009497869018190385759 729.17314096910581611 64.009497869018190385759 118.81972157098653042
66.009497869018218807469 731.41127182724801514 66.009497869018218807469 117.99041663853103046
68.009497869018218807469 733.47358584077585419 68.009497869018218807469 116.83504976763008187
70.009497869018218807469 735.42243585411165441 70.009497869018218807469 116.07710338524320548
72.009497869018218807469 737.28447532387144747 72.009497869018218807469 115.50319657386549466
74.009497869018190385759 739.07646191891581111 74.009497869018190385759 114.74082720358023835
76.009497869018190385759 740.79120976035130752 76.009497869018190385759 113.99304391388602653
78.009497869018190385759 742.42608010701974308 78.009497869018190385759 113.81023271504612637
80.009497869018190385759 743.99799338188631737 80.009497869018190385759 113.26125899441301215
82.009497869018190385759 745.54673165620602049 82.009497869018190385759 112.77370147508653986
84.009497869018190385759 747.04419003128475651 84.009497869018190385759 112.69750278117044218
86.009497869018190385759 748.49485319298491959 86.009497869018190385759 112.62943709428932948
88.009497869018218807469 749.89593950164885428 88.009497869018218807469 112.47240749593099451
91.009497869018190385759 751.90843836447515969 91.009497869018190385759 112.02430991222833256
94.009497869018218807469 753.81541520727000716 94.009497869018218807469 111.30595878073046379
97.009497869018190385759 755.62249450495585279 97.009497869018190385759 109.09309892824961707
99.504748934509109403734 757.01296244449929418 99.504748934509109403734 112.95920052085121199
nan nan nan nan

