Time Pressure difference Time.1 Pressure.1 difference.1
(hr) (psi) (hr) (psi)
0.000200000000006639311 0.85499776090061319 0.000200000000006639311 0.68724618938475246
0.000399999999999067768 1.69718878225311087 0.000399999999999067768 1.74281044235298621
0.000600000000005707079 2.52901360626029259 0.000600000000005707079 2.52410853309778860
0.000799999999998135536 3.35160564518236326 0.000799999999998135536 3.30475241730091973
0.001007140329434719206 4.19462266325156818 0.001007140329434719206 4.10908716221880965
0.001267914553963578328 5.24389050704125115 0.001267914553963578328 5.10837742108323223
0.001596209851982166583 6.54708656700231728 0.001596209851982166583 6.33581496060121285
0.002009509145224797066 8.16159298861602167 0.002009509145224797066 7.83650708636965909
0.002529822128138903281 10.15585652058178034 0.002529822128138903281 9.66121900459352467
0.003184857364431081805 12.61063251613938085 0.003184857364431081805 11.86547846299309761
0.004009497869020606231 15.61993163717270328 0.004009497869020606231 14.50770851271319728
0.005047658755842121536 19.29140280802348073 0.005047658755842121536 17.64595587108599162
0.006354625877790454069 23.74577168670375471 0.006354625877790454069 21.33284047058788246
0.008000000000009777068 29.11489567846304638 0.008000000000009777068 25.60844702468366307
0.010071403294347192059 35.53792613059833627 0.010071403294347192059 30.49086262827760052
0.012679145539706837553 43.15500245247679345 0.012679145539706837553 35.96476775713995977
0.015962098519750611558 52.09815656554678753 0.015962098519750611558 41.96923730412166975
0.020095091452091651263 62.47938548902273936 0.020095091452091651263 48.38698678157609834
0.025298221281360611101 74.37660045469314696 0.025298221281360611101 55.03774410903901071
0.031848573644296607199 87.81864573793036755 0.031848573644296607199 61.68293352518773531
0.040094978690177640601 102.77340554395019012 0.040094978690177640601 68.04078074531146569
0.050476587558421215363 119.13978281732713072 0.050476587558421215363 73.82074796693883911
0.063546258777961384112 136.75166780595685623 0.063546258777961384112 78.76707619110730718
0.079999999999998294697 155.38997119629334520 0.079999999999998294697 82.70514692176172389
0.100714032943542974863 174.80793626472200231 0.100714032943542974863 85.58190531934218370
0.126791455396897845276 194.76176566580855365 0.126791455396897845276 87.47314682351245096
0.159620985197506115583 215.03925175407076154 0.159620985197506115583 88.56731991110166291
0.200950914520760193227 235.48288618140938411 0.200950914520760193227 89.12254726821598183
0.252982212813478213320 255.99862905362135734 0.252982212813478213320 89.40916496398659774
0.318485736442795541734 276.55248433850738365 0.318485736442795541734 89.66310209754165328
0.400949786901833249431 297.15772472766082046 0.400949786901833249431 90.05708830605622950
0.504765875584155310207 317.85812983435943124 0.504765875584155310207 90.68835389205821684
0.635462587779443310865 338.70947227533173418 0.635462587779443310865 91.60260579333042585
0.799999999999997157829 359.77364381951025507 0.799999999999997157829 92.79814385845047298
1.007140329435344483500 381.10193992205688573 1.007140329435344483500 94.24790032925780281
1.267914553968893187630 402.73909222862431534 1.267914553968893187630 95.93248196086074131
1.596209851975103788391 424.72144909943182256 1.596209851975103788391 97.83198517495286239
2.009509145207672986544 447.07691599031602436 2.009509145207672986544 99.93757647173805481
2.529822128134711078928 469.82795803851934124 2.529822128134711078928 102.25331474659189723
3.184857364427998049905 492.99178441474958845 3.184857364427998049905 104.78940793059084058
4.009497869018190385759 516.57957218707520042 4.009497869018190385759 107.53956407439713416
5.009497869018204596614 539.78867943724037559 5.009497869018204596614 110.35347093074369695
6.009497869018204596614 559.02914860737257641 6.009497869018204596614 112.76268550981967564
7.009497869018204596614 575.47775162686400563 7.009497869018204596614 114.86268902555084992
8.009497869018204596614 589.84052563773377642 8.009497869018204596614 116.71966445336757090
9.009497869018204596614 602.58685163877612467 9.009497869018204596614 118.37060481768463660
10.009497869018190385759 614.03577856018625880 10.009497869018190385759 119.83236964996130780
11.009497869018190385759 624.41782857606028756 11.009497869018190385759 121.17656094310055437
12.009497869018190385759 633.91028628468507122 12.009497869018190385759 122.34158126676311440
13.009497869018190385759 642.65441850168110705 13.009497869018190385759 123.45168918293178706
14.009497869018190385759 650.73339082450854676 14.009497869018190385759 124.53722539433877614
15.009497869018190385759 658.26017234298433323 15.009497869018190385759 125.43773355595406827
16.009497869018204596614 665.29994366439859732 16.009497869018204596614 126.24312922196962461
17.009497869018204596614 671.88577114347970110 17.009497869018204596614 127.13694543587658359
18.009497869018204596614 678.06676012174773405 18.009497869018204596614 127.78105860770097024
19.009497869018204596614 683.91974817521781915 19.009497869018204596614 128.40547363395282332
20.009497869018204596614 689.45757473690798633 20.009497869018204596614 129.00374513835140533
21.009497869018204596614 694.69641314031002821 21.009497869018204596614 129.72913672859434087
22.009497869018190385759 699.64713797328670353 22.009497869018190385759 130.38495198367323269
23.009497869018190385759 704.37659950575289258 23.009497869018190385759 130.80279620040593613
24.009497869018190385759 708.90766239643471636 24.009497869018190385759 131.23327855891724880
25.009497869018190385759 713.23676157724094082 25.009497869018190385759 131.81521873702163816
26.009497869018190385759 717.37129844463595418 26.009497869018190385759 132.18254811724352749
27.009497869018204596614 721.31105454147007094 27.009497869018204596614 132.63590536626438166
28.009497869018190385759 725.07884506860045803 28.009497869018190385759 132.95074311885886686
29.009497869018190385759 728.70853765863682838 29.009497869018190385759 132.82640013709757909
30.009497869018190385759 732.20788903135405690 30.009497869018190385759 132.80676931820804043
31.009497869018190385759 735.57188849542274056 31.009497869018190385759 132.86395125347422663
32.009497869018190385759 738.80249460855952748 32.009497869018190385759 133.01391835258559126
33.009497869018218807469 741.88496275931549917 33.009497869018218807469 132.94630820190334930
34.009497869018190385759 744.83499361301562658 34.009497869018190385759 133.05694239400864376
35.009497869018218807469 747.67474405284724526 35.009497869018218807469 133.09543411432355242
36.009497869018190385759 750.42273415964677952 36.009497869018190385759 133.01000499613053307
37.009497869018218807469 753.09656083978325114 37.009497869018218807469 132.91379596512044259
38.009497869018190385759 755.68644400244284043 38.009497869018190385759 132.98873221972070269
39.009497869018190385759 758.19261883511683209 39.009497869018190385759 133.28151737220233031
40.009497869018190385759 760.61620508516523387 40.009497869018190385759 133.62483091340345709
41.009497869018190385759 762.96165284025175879 41.009497869018190385759 133.87738976611726116
42.009497869018190385759 765.22921833748193876 42.009497869018190385759 134.20628889457319133
43.009497869018190385759 767.42503052997631130 43.009497869018190385759 134.40031992843293551
44.009497869018218807469 769.56664056020281350 44.009497869018218807469 134.50807917961103044
46.009497869018218807469 773.69710304283432833 46.009497869018218807469 134.78964188557003467
48.009497869018218807469 777.63641655577907841 48.009497869018218807469 135.01514629262936751
50.009497869018218807469 781.36471679085479991 50.009497869018218807469 135.50625827086710729
52.009497869018190385759 784.89042700457252977 52.009497869018190385759 135.65910270887434308
54.009497869018190385759 788.21718640307710757 54.009497869018190385759 135.61667485258345778
56.009497869018190385759 791.39126922791422203 56.009497869018190385759 135.23245731033733819
58.009497869018190385759 794.43451410260877310 58.009497869018190385759 133.74892223763225729
60.009497869018190385759 797.34489952097737842 60.009497869018190385759 132.74151178720032362
62.009497869018190385759 800.10437265007476526 62.009497869018190385759 131.75845247858268294
64.009497869018190385759 802.70971038743402914 64.009497869018190385759 130.80260219651063380
66.009497869018218807469 805.17355507946513171 66.009497869018218807469 129.88966247787334396
68.009497869018218807469 807.44385192875222401 68.009497869018218807469 128.61777771659490099
70.009497869018218807469 809.58924201774300400 70.009497869018218807469 127.78339300477409779
72.009497869018218807469 811.63906678434682362 72.009497869018218807469 127.15160811793897722
74.009497869018190385759 813.61177389587658126 74.009497869018190385759 126.31235436317696497
76.009497869018190385759 815.49945278289192174 76.009497869018190385759 125.48915768439471208
78.009497869018190385759 817.29919858915013720 78.009497869018190385759 125.28791011199875527
80.009497869018190385759 819.02963814969871237 80.009497869018190385759 124.68357279958206618
82.009497869018190385759 820.73456552811637721 82.009497869018190385759 124.14684546673541377
84.009497869018190385759 822.38304146756081536 84.009497869018190385759 124.06296219116107693
86.009497869018190385759 823.98000293113091175 86.009497869018190385759 123.98803213033760073
88.009497869018218807469 825.52238775287662520 88.009497869018218807469 123.81516621367349273
91.009497869018190385759 827.73784563053152397 91.009497869018190385759 123.32187832163563712
94.009497869018218807469 829.83713967084827345 94.009497869018218807469 122.53108201233278862
97.009497869018190385759 831.82646157286535527 97.009497869018190385759 120.09505688810494917
99.504748934509109403734 833.35715717085531651 99.504748934509109403734 124.35105195342111983
nan nan nan nan

