Time Pressure difference Time.1 Pressure.1 difference.1
(hr) (psi) (hr) (psi)
0.000200000000006639311 0.54746240427965975 0.000200000000006639311 0.44004963331868424
0.000399999999999067768 1.08672454331346757 0.000399999999999067768 1.11593648382100552
0.000600000000005707079 1.61934911721970543 0.000600000000005707079 1.61620835677621177
0.000799999999998135536 2.14606185959603568 0.000799999999998135536 2.11606133566809129
0.001007140329434719206 2.68585289141662642 0.001007140329434719206 2.63108377600124310
0.001267914553963578328 3.35770809708330820 0.001267914553963578328 3.27093790511018945
0.001596209851982166583 4.19215571889058669 0.001596209851982166583 4.05687669608409429
0.002009509145224797066 5.22593803706946858 0.002009509145224797066 5.01778274382782374
0.002529822128138903281 6.50288209225294356 0.002529822128138903281 6.18616144556422487
0.003184857364431081805 8.07469623019917826 0.003184857364431081805 7.59756769472267823
0.004009497869020606231 10.00157628455417047 0.004009497869020606231 9.28941027236409234
0.005047658755842121536 12.35245078546537201 0.005047658755842121536 11.29885698977926722
0.006354625877790454069 15.20462140787974370 0.006354625877790454069 13.65960084134074570
0.008000000000009777068 18.64251758003805293 0.008000000000009777068 16.39730841310506548
0.010071403294347192059 22.75523910387395787 0.010071403294347192059 19.52356102717099873
0.012679145539706837553 27.63251844594464046 0.012679145539706837553 23.02854946069520636
0.015962098519750611558 33.35889677871077197 0.015962098519750611558 26.87326284468349513
0.020095091452091651263 40.00608675478408571 0.020095091452091651263 30.98260291510755238
0.025298221281360611101 47.62397560454797230 0.025298221281360611101 35.24113991167011051
0.031848573644296607199 56.23103256507788217 0.031848573644296607199 39.49611172683187732
0.040094978690177640601 65.80669361734129552 0.040094978690177640601 43.56709586777899545
0.050476587558421215363 76.28622544908893133 0.050476587558421215363 47.26805848606305460
0.063546258777961384112 87.56326656041981948 0.063546258777961384112 50.43523489960968931
0.079999999999998294697 99.49753218354751994 0.079999999999998294697 52.95681538674039501
0.100714032943542974863 111.93102187056452124 0.100714032943542974863 54.79882847834446835
0.126791455396897845276 124.70763008881088751 0.126791455396897845276 56.00980664494915118
0.159620985197506115583 137.69147846162294968 0.159620985197506115583 56.71041506361765272
0.200950914520760193227 150.78171304190533419 0.200950914520760193227 57.06593190558863427
0.252982212813478213320 163.91811927830721629 0.252982212813478213320 57.24945567607242225
0.318485736442795541734 177.07892921964216271 0.318485736442795541734 57.41205380209031262
0.400949786901833249431 190.27264148424956147 0.400949786901833249431 57.66432655276888397
0.504765875584155310207 203.52728853424747513 0.504765875584155310207 58.06853132529089123
0.635462587779443310865 216.87858205479292906 0.635462587779443310865 58.65393466419615009
0.799999999999997157829 230.36615187671628746 0.799999999999997157829 59.41944794793743512
1.007140329435344483500 244.02284292019845680 1.007140329435344483500 60.34773945865688916
1.267914553968893187630 257.87729724185777513 1.267914553968893187630 61.42639153520881479
1.596209851975103788391 271.95278900870084726 1.596209851975103788391 62.64265974558216499
2.009509145207672986544 286.26718632359677486 2.009509145207672986544 63.99088792404442927
2.529822128134711078928 300.83487380672789868 2.529822128134711078928 65.47367501613983620
3.184857364427998049905 315.66687063779528444 3.184857364427998049905 67.09755724774572627
4.009497869018190385759 330.77033358940974495 4.009497869018190385759 68.85850582970077483
5.009497869018204596614 345.63132415267847364 5.009497869018204596614 70.66027454003260289
6.009497869018204596614 357.95116169266680117 6.009497869018204596614 72.20291531197712231
7.009497869018204596614 368.48334337534970473 7.009497869018204596614 73.54756558627364882
8.009497869018204596614 377.67995084229045233 8.009497869018204596614 74.73660289010227586
9.009497869018204596614 385.84153277545556193 9.009497869018204596614 75.79371417448659543
10.009497869018190385759 393.17237894307015722 10.009497869018190385759 76.72969474211602403
11.009497869018190385759 399.82009467165283922 11.009497869018190385759 77.59039196356680179
12.009497869018190385759 405.89819681102306959 12.009497869018190385759 78.33636447553588766
13.009497869018190385759 411.49713971563767245 13.009497869018190385759 79.04717610170366981
14.009497869018190385759 416.67017503131506828 14.009497869018190385759 79.74225425442713799
15.009497869018190385759 421.48963783581638154 15.009497869018190385759 80.31885735887510691
16.009497869018204596614 425.99726383139881136 16.009497869018204596614 80.83455911609240729
17.009497869018204596614 430.21422568878546144 17.009497869018204596614 81.40687730898943641
18.009497869018204596614 434.17196597959542714 18.009497869018204596614 81.81930850097728580
19.009497869018204596614 437.91968446320606745 19.009497869018204596614 82.21912680129669582
20.009497869018204596614 441.46560233877238488 20.009497869018204596614 82.60220518019801261
21.009497869018204596614 444.82007553053597348 21.009497869018204596614 83.06667964106716795
22.009497869018190385759 447.99006713043621630 22.009497869018190385759 83.48660377739538774
23.009497869018190385759 451.01838194003852323 23.009497869018190385759 83.75415301549618619
24.009497869018190385759 453.91966039655994791 24.009497869018190385759 84.02979456424404248
25.009497869018190385759 456.69161975630470351 25.009497869018190385759 84.40241585475638431
26.009497869018190385759 459.33899919695107883 26.009497869018190385759 84.63762000949826358
27.009497869018204596614 461.86165883851117542 27.009497869018204596614 84.92790854696194458
28.009497869018190385759 464.27420744990428148 28.009497869018190385759 85.12950186202726854
29.009497869018190385759 466.59833076695741738 29.009497869018190385759 85.04988398363818192
30.009497869018190385759 468.83899548391428880 30.009497869018190385759 85.03731420182272416
31.009497869018190385759 470.99299321211259439 31.009497869018190385759 85.07392828573470922
32.009497869018190385759 473.06157803286743047 32.009497869018190385759 85.16995350638075024
33.009497869018218807469 475.03530884492329278 33.009497869018218807469 85.12666214663822473
34.009497869018190385759 476.92423891903797539 34.009497869018190385759 85.19750216935558740
35.009497869018218807469 478.74255549767656248 35.009497869018218807469 85.22214874822645925
36.009497869018190385759 480.50211714754624381 36.009497869018190385759 85.16744775065637896
37.009497869018218807469 482.21419131881975773 37.009497869018218807469 85.10584428239147314
38.009497869018190385759 483.87251573541180960 38.009497869018190385759 85.15382660934864134
39.009497869018190385759 485.47724098989158392 39.009497869018190385759 85.34129945529636529
40.009497869018190385759 487.02908406610390557 40.009497869018190385759 85.56112606219855365
41.009497869018190385759 488.53089439337242084 41.009497869018190385759 85.72284166316477183
42.009497869018190385759 489.98283604251486167 42.009497869018190385759 85.93343859787522376
43.009497869018190385759 491.38883343481609245 43.009497869018190385759 86.05767833411712786
44.009497869018218807469 492.76012471742978960 44.009497869018218807469 86.12667750748478568
46.009497869018218807469 495.40489529454390549 46.009497869018218807469 86.30696452460801993
48.009497869018218807469 497.92727154584116533 48.009497869018218807469 86.45135693182822934
50.009497869018218807469 500.31453418430822921 50.009497869018218807469 86.76582014643756224
52.009497869018190385759 502.57207669338106371 52.009497869018190385759 86.86368775187325753
54.009497869018190385759 504.70222928798767725 54.009497869018190385759 86.83652083135527278
56.009497869018190385759 506.73462176213604380 56.009497869018190385759 86.59050304152746946
58.009497869018190385759 508.68323757389799766 58.009497869018190385759 85.64058280210974772
60.009497869018190385759 510.54678233551481981 60.009497869018190385759 84.99552924464899206
62.009497869018190385759 512.31369666311445599 62.009497869018190385759 84.36606793228438050
64.009497869018190385759 513.98191677652471299 64.009497869018190385759 83.75402879313701021
66.009497869018218807469 515.55953767865457849 66.009497869018218807469 83.16946565603460328
68.009497869018218807469 517.01322823596092348 68.009497869018218807469 82.35506692750145419
70.009497869018218807469 518.38693992264359167 70.009497869018218807469 81.82080323545804390
72.009497869018218807469 519.69946031321728697 72.009497869018218807469 81.41626595015573287
74.009497869018190385759 520.96260160738870582 74.009497869018190385759 80.87888456812873983
76.009497869018190385759 522.17129859965314154 76.009497869018190385759 80.35178466966064548
78.009497869018190385759 523.32369128562754668 78.009497869018190385759 80.22292412185841215
80.009497869018190385759 524.43170658765654935 80.009497869018190385759 79.83596175402361439
82.009497869018190385759 525.52338622051036054 82.009497869018190385759 79.49229063636673231
84.009497869018190385759 526.57891951249791873 84.009497869018190385759 79.43857945509252261
86.009497869018190385759 527.60146764346279724 86.009497869018190385759 79.39060109406381116
88.009497869018218807469 528.58906988226624435 88.009497869018218807469 79.27991356401081191
91.009497869018190385759 530.00764657538377378 91.009497869018190385759 78.96405709312061560
94.009497869018218807469 531.35184256648335577 94.009497869018218807469 78.45770342930470065
97.009497869018190385759 532.62562245359936242 97.009497869018190385759 76.89789563519931903
99.504748934509109403734 533.60573998210986701 99.504748934509109403734 79.62304580238344442
nan nan nan nan

