Time Pressure difference Time.1 Pressure.1 difference.1
(hr) (psi) (hr) (psi)
0.000200000000006639311 0.27620467685796085 0.000200000000006639311 0.22201299271349281
0.000399999999999067768 0.54827217170182463 0.000399999999999067768 0.56301012361451330
0.000600000000005707079 0.81699089498283339 0.000600000000005707079 0.81540632457835982
0.000799999999998135536 1.08272699241667469 0.000799999999998135536 1.06759118591688340
0.001007140329434719206 1.35506132322977391 0.001007140329434719206 1.32742931469942249
0.001267914553963578328 1.69402441645016300 0.001267914553963578328 1.65024728646372498
0.001596209851982166583 2.11501832203064266 0.001596209851982166583 2.04676761022314979
0.002009509145224797066 2.63658018436486730 0.002009509145224797066 2.53156207708180858
0.002529822128138903281 3.28082153750713257 0.002529822128138903281 3.12103024738556512
0.003184857364431081805 4.07383017638060974 0.003184857364431081805 3.83311020742785669
0.004009497869020606231 5.04597598693621574 0.004009497869020606231 4.68667536331622081
0.005047658755842121536 6.23203465832966863 0.005047658755842121536 5.70047754755429814
0.006354625877790454069 7.67100628258993122 0.006354625877790454069 6.89151548471257414
0.008000000000009777068 9.40548703209751125 0.008000000000009777068 8.27273843131053788
0.010071403294347192059 11.48042936716532481 0.010071403294347192059 9.84998937364801819
0.012679145539706837553 13.94110493884254964 0.012679145539706837553 11.61831938152544375
0.015962098519750611558 16.83016629648811247 0.015962098519750611558 13.55804676651953500
0.020095091452091651263 20.18379376935643066 0.020095091452091651263 15.63128309723046527
0.025298221281360611101 24.02715636675236510 0.025298221281360611101 17.77979197350826368
0.031848573644296607199 28.36957215256188292 0.031848573644296607199 19.92650215133837577
0.040094978690177640601 33.20066620754418096 0.040094978690177640601 21.98038722244874066
0.050476587558421215363 38.48777940579034862 0.050476587558421215363 23.84758974823964550
0.063546258777961384112 44.17725044840457826 0.063546258777961384112 25.44548748700187701
0.079999999999998294697 50.19830313477171302 0.079999999999998294697 26.71767041349101035
0.100714032943542974863 56.47122338349264226 0.100714032943542974863 27.64699930759848812
0.126791455396897845276 62.91725313215609816 0.126791455396897845276 28.25795967779813722
0.159620985197506115583 69.46783928410192743 0.159620985197506115583 28.61142928661433160
0.200950914520760193227 76.07209920035886341 0.200950914520760193227 28.79079395839185551
0.252982212813478213320 82.69965355155558484 0.252982212813478213320 28.88338501729557350
0.318485736442795541734 89.33952001292186651 0.318485736442795541734 28.96541871039195115
0.400949786901833249431 95.99598629099938307 0.400949786901833249431 29.09269487225538597
0.504765875584155310207 102.68319526953752074 0.504765875584155310207 29.29662348489826940
0.635462587779443310865 109.41916413908980132 0.635462587779443310865 29.59197004895437999
0.799999999999997157829 116.22388686551198589 0.799999999999997157829 29.97818533517927619
1.007140329435344483500 123.11393430461819776 1.007140329435344483500 30.44652517868984276
1.267914553968893187630 130.10375689159994295 1.267914553968893187630 30.99072464502251378
1.596209851975103788391 137.20509686432947660 1.596209851975103788391 31.60435393790666581
2.009509145207672986544 144.42696900362184920 2.009509145207672986544 32.28455941951036579
2.529822128134711078928 151.77663061032205860 2.529822128134711078928 33.03265230482958970
3.184857364427998049905 159.25964105973105234 3.184857364427998049905 33.85193023794400347
4.009497869018190385759 166.87961107297030594 4.009497869018190385759 34.74036062191228780
5.009497869018204596614 174.37724938425799337 5.009497869018204596614 35.64938549835982684
6.009497869018204596614 180.59283007084843575 6.009497869018204596614 36.42767564685592419
7.009497869018204596614 185.90650607039484044 7.009497869018204596614 37.10607601114709553
8.009497869018204596614 190.54636074121586375 8.009497869018204596614 37.70596681955461804
9.009497869018204596614 194.66402632496627234 9.009497869018204596614 38.23929856694729779
10.009497869018190385759 198.36257070169952499 10.009497869018190385759 38.71151767862781412
11.009497869018190385759 201.71646342621039594 11.009497869018190385759 39.14575498161879352
12.009497869018190385759 204.78297580074206508 12.009497869018190385759 39.52211159533813856
13.009497869018190385759 207.60774368183527372 13.009497869018190385759 39.88072890673302595
14.009497869018190385759 210.21763348718454267 14.009497869018190385759 40.23140839643537703
15.009497869018190385759 212.64913957078084650 15.009497869018190385759 40.52231508316741326
16.009497869018204596614 214.92331834867260909 16.009497869018204596614 40.78249593959481700
17.009497869018204596614 217.05085181587818965 17.009497869018204596614 41.07124081101124347
18.009497869018204596614 219.04760331801881534 18.009497869018204596614 41.27931980094486164
19.009497869018204596614 220.93839502285246112 19.009497869018204596614 41.48103535908794015
20.009497869018204596614 222.72737467392886401 20.009497869018204596614 41.67430532434688217
21.009497869018204596614 224.41976702218306627 21.009497869018204596614 41.90864108397213528
22.009497869018190385759 226.01908507333754983 22.009497869018190385759 42.12050039974013771
23.009497869018190385759 227.54692462336279846 23.009497869018190385759 42.25548382558918803
24.009497869018190385759 229.01067203742104539 24.009497869018190385759 42.39454996840625967
25.009497869018190385759 230.40917563006337332 25.009497869018190385759 42.58254414358943762
26.009497869018190385759 231.74482640207625650 26.009497869018190385759 42.70120889033421463
27.009497869018204596614 233.01755378147777265 27.009497869018204596614 42.84766470366302826
28.009497869018190385759 234.23472815620169740 28.009497869018190385759 42.94937217436616805
29.009497869018190385759 235.40729037188361872 29.009497869018190385759 42.90920351584155412
30.009497869018190385759 236.53774621552904023 30.009497869018190385759 42.90286183375091866
31.009497869018190385759 237.62447699707487914 31.009497869018190385759 42.92133430078482803
32.009497869018190385759 238.66811542320871808 32.009497869018190385759 42.96978075999631130
33.009497869018218807469 239.66389828772483384 33.009497869018218807469 42.94793948663222949
34.009497869018190385759 240.61689764740620490 34.009497869018190385759 42.98367955833451504
35.009497869018218807469 241.53427122247239822 35.009497869018218807469 42.99611420279497764
36.009497869018190385759 242.42200187413851609 36.009497869018190385759 42.96851656094862904
37.009497869018218807469 243.28577423464551543 37.009497869018218807469 42.93743649789329453
38.009497869018190385759 244.12242887253458434 38.009497869018190385759 42.96164444899366686
39.009497869018190385759 244.93204176447841292 39.009497869018190385759 43.05622788783777821
40.009497869018190385759 245.71497464178435166 40.009497869018190385759 43.16713438378993573
41.009497869018190385759 246.47266509304176907 41.009497869018190385759 43.24872282704848914
42.009497869018190385759 247.20519589494350043 42.009497869018190385759 43.35497278657861386
43.009497869018190385759 247.91454698895088882 43.009497869018190385759 43.41765397880909205
44.009497869018218807469 248.60638822340206389 44.009497869018218807469 43.45246530874609192
46.009497869018218807469 249.94072277661476278 46.009497869018218807469 43.54342336708386085
48.009497869018218807469 251.21330718050722908 48.009497869018218807469 43.61627194602780122
50.009497869018218807469 252.41772432491453060 50.009497869018218807469 43.77492432086835095
52.009497869018190385759 253.55669531970278285 52.009497869018190385759 43.82430029650231518
54.009497869018190385759 254.63139580041547561 54.009497869018190385759 43.81059409413255423
56.009497869018190385759 255.65677453360774507 56.009497869018190385759 43.68647367305979401
58.009497869018190385759 256.63988642659012385 58.009497869018190385759 43.20722174504030733
60.009497869018190385759 257.58007843734560538 60.009497869018190385759 42.88178056770694724
62.009497869018190385759 258.47151864780624919 62.009497869018190385759 42.56420595981214916
64.009497869018190385759 259.31316584357796273 64.009497869018190385759 42.25542115316400782
66.009497869018218807469 260.10910409992362702 66.009497869018218807469 41.96049848610180533
68.009497869018218807469 260.84251725760077534 68.009497869018218807469 41.54961960950750921
70.009497869018218807469 261.53557962964697481 70.009497869018218807469 41.28007392150368560
72.009497869018218807469 262.19776988693939757 72.009497869018218807469 41.07597755015386554
74.009497869018190385759 262.83504749770361286 74.009497869018190385759 40.80485893120953023
76.009497869018190385759 263.44485697422260273 76.009497869018190385759 40.53892750653059807
78.009497869018190385759 264.02625991067048972 78.009497869018190385759 40.47391503135929014
80.009497869018190385759 264.58527365491710270 80.009497869018190385759 40.27868552349082876
82.009497869018190385759 265.13604575884181713 82.009497869018190385759 40.10529723370912336
84.009497869018190385759 265.66858138055243899 84.009497869018190385759 40.07819897207228621
86.009497869018190385759 266.18447539240969490 86.009497869018190385759 40.05399302185448818
88.009497869018218807469 266.68273857011928385 88.009497869018218807469 39.99814916256569575
91.009497869018190385759 267.39843614872523858 91.009497869018190385759 39.83879386475211248
94.009497869018218807469 268.07660731893361117 94.009497869018218807469 39.58332929038716230
97.009497869018190385759 268.71925229210211228 97.009497869018190385759 38.79637806896351293
99.504748934509109403734 269.21373929820305193 99.504748934509109403734 40.17126557800972364
nan nan nan nan

