Time Pressure difference Time.1 Pressure.1 difference.1
(hr) (psi) (hr) (psi)
0.000200000000006639311 0.16737178926019716 0.000200000000006639311 0.13453324633086280
0.000399999999999067768 0.33223656971782212 0.000399999999999067768 0.34116732863804838
0.000600000000005707079 0.49507209457168705 0.000600000000005707079 0.49411189220718515
0.000799999999998135536 0.65610023719577593 0.000799999999998135536 0.64692839027202187
0.001007140329434719206 0.82112671228550482 0.001007140329434719206 0.80438253995218734
0.001267914553963578328 1.02652822847577041 0.001267914553963578328 1.00000059448398848
0.001596209851982166583 1.28163796827528476 0.001596209851982166583 1.24028007425462539
0.002009509145224797066 1.59768888783900920 0.002009509145224797066 1.53405104969434980
0.002529822128138903281 1.98807991675805340 0.002529822128138903281 1.89125116483364120
0.003184857364431081805 2.46861948001571330 0.003184857364431081805 2.32275036450105965
0.004009497869020606231 3.05771082193448285 0.004009497869020606231 2.83998536941251656
0.005047658755842121536 3.77642697206245570 0.005047658755842121536 3.45431923030902288
0.006354625877790454069 4.64840082198733118 0.006354625877790454069 4.17605266685568033
0.008000000000009777068 5.69944438064416481 0.008000000000009777068 5.01303254195832615
0.010071403294347192059 6.95679749711809325 0.010071403294347192059 5.96879953089715798
0.012679145539706837553 8.44789344055235247 0.012679145539706837553 7.04035472970049270
0.015962098519750611558 10.19857838264802119 0.015962098519750611558 8.21577162269691108
0.020095091452091651263 12.23077652292344908 0.020095091452091651263 9.47209095145607449
0.025298221281360611101 14.55973952970367158 0.025298221281360611101 10.77402319588709645
0.031848573644296607199 17.19111387155242454 0.031848573644296607199 12.07486548275131355
0.040094978690177640601 20.11861265710886215 0.040094978690177640601 13.31945852584207302
0.050476587558421215363 23.32244543097146305 0.050476587558421215363 14.45092751908253170
0.063546258777961384112 26.77009504783918814 0.063546258777961384112 15.41920585033248159
0.079999999999998294697 30.41867324286166863 0.079999999999998294697 16.19011072817514929
0.100714032943542974863 34.21987566223583599 0.100714032943542974863 16.75325629684326501
0.126791455396897845276 38.12597727112741808 0.126791455396897845276 17.12348004356126197
0.159620985197506115583 42.09543693932147335 0.159620985197506115583 17.33767207517226439
0.200950914520760193227 46.09742130648611891 0.200950914520760193227 17.44636171210013842
0.252982212813478213320 50.11352140586801340 0.252982212813478213320 17.50246912988358616
0.318485736442795541734 54.13708227648698568 0.318485736442795541734 17.55217909913303131
0.400949786901833249431 58.17070214051604893 0.400949786901833249431 17.62930465393385759
0.504765875584155310207 62.22295116333168608 0.504765875584155310207 17.75287930577417228
0.635462587779443310865 66.30474722458278336 0.635462587779443310865 17.93185050727683461
0.799999999999997157829 70.42820607074308725 0.799999999999997157829 18.16588544191460741
1.007140329435344483500 74.60336914578356016 1.007140329435344483500 18.44968540678817348
1.267914553968893187630 78.83899298207400363 1.267914553968893187630 18.77945403862558393
1.596209851975103788391 83.14219302525040689 1.596209851975103788391 19.15129507282105337
2.009509145207672986544 87.51843196338877817 2.009509145207672986544 19.56347929003165476
2.529822128134711078928 91.97210750416530800 2.529822128134711078928 20.01680124740419942
3.184857364427998049905 96.50658846306090766 3.184857364427998049905 20.51325921881382897
4.009497869018190385759 101.12406282929245549 4.009497869018190385759 21.05162151118863889
5.009497869018204596614 105.66740783583392727 5.009497869018204596614 21.60246345124490830
6.009497869018204596614 109.43386419218576577 6.009497869018204596614 22.07408404869179819
7.009497869018204596614 112.65379323071685747 7.009497869018204596614 22.48517441869510591
8.009497869018204596614 115.46540665810988457 8.009497869018204596614 22.84869034140174904
9.009497869018204596614 117.96058908647209762 9.009497869018204596614 23.17187345997104941
10.009497869018190385759 120.20179657446270483 10.009497869018190385759 23.45802414555655346
11.009497869018190385759 122.23415544931556553 11.009497869018190385759 23.72115898886153573
12.009497869018190385759 124.09237041059890316 12.009497869018190385759 23.94921986224967725
13.009497869018190385759 125.80409542511212351 13.009497869018190385759 24.16653124796061292
14.009497869018190385759 127.38561073999541406 14.009497869018190385759 24.37903255067577035
15.009497869018190385759 128.85903084438359656 15.009497869018190385759 24.55531331905368475
16.009497869018204596614 130.23711529785236962 16.009497869018204596614 24.71297515145596080
17.009497869018204596614 131.52633707051722922 17.009497869018204596614 24.88794592428442343
18.009497869018204596614 132.73630887629198583 18.009497869018204596614 25.01403558087106660
19.009497869018204596614 133.88207220787776919 19.009497869018204596614 25.13626918774582819
20.009497869018204596614 134.96614047405239489 20.009497869018204596614 25.25338501744005271
21.009497869018204596614 135.99167971791990794 21.009497869018204596614 25.39538549267565060
22.009497869018190385759 136.96081871608214442 22.009497869018190385759 25.52376591387238491
23.009497869018190385759 137.88664387624672258 23.009497869018190385759 25.60556184058091134
24.009497869018190385759 138.77363111521336236 24.009497869018190385759 25.68983177189990741
25.009497869018190385759 139.62108254597868040 25.009497869018190385759 25.80375063029449834
26.009497869018190385759 140.43044704364618269 26.009497869018190385759 25.87565792459058400
27.009497869018204596614 141.20168184370146491 27.009497869018204596614 25.96440577565252283
28.009497869018190385759 141.93925318122072099 28.009497869018190385759 26.02603746685472430
29.009497869018190385759 142.64979088206678171 29.009497869018190385759 26.00169645885323888
30.009497869018190385759 143.33481337836536795 30.009497869018190385759 25.99785358881025843
31.009497869018190385759 143.99333979225733060 31.009497869018190385759 26.00904735241588384
32.009497869018190385759 144.62575352510856419 32.009497869018190385759 26.03840446053508018
33.009497869018218807469 145.22916821614370519 33.009497869018218807469 26.02516930085475622
34.009497869018190385759 145.80665738036853440 34.009497869018190385759 26.04682671743853106
35.009497869018218807469 146.36255838257281425 35.009497869018218807469 26.05436174079815004
36.009497869018190385759 146.90049665806009216 36.009497869018190385759 26.03763839364946264
37.009497869018218807469 147.42391692427773364 37.009497869018218807469 26.01880480320101086
38.009497869018190385759 147.93090466007319606 38.009497869018190385759 26.03347409894243114
39.009497869018190385759 148.42150590504215302 39.009497869018190385759 26.09078883949572614
40.009497869018190385759 148.89593985755888639 40.009497869018190385759 26.15799486540106500
41.009497869018190385759 149.35507765339545472 41.009497869018190385759 26.20743502653983370
42.009497869018190385759 149.79896945275680764 42.009497869018190385759 26.27181933037450534
43.009497869018190385759 150.22881504106578632 43.009497869018190385759 26.30980226178581205
44.009497869018218807469 150.64805017716602720 44.009497869018218807469 26.33089688858344957
46.009497869018218807469 151.45661708553075187 46.009497869018218807469 26.38601475677021924
48.009497869018218807469 152.22776524669541232 48.009497869018218807469 26.43015882102580250
50.009497869018218807469 152.95760608345565856 50.009497869018218807469 26.52629742428738524
52.009497869018190385759 153.64778850716319880 52.009497869018190385759 26.55621779161185358
54.009497869018190385759 154.29902491786370433 54.009497869018190385759 26.54791224211614420
56.009497869018190385759 154.92037382185785077 56.009497869018190385759 26.47269897203324973
58.009497869018190385759 155.51611028238147583 58.009497869018190385759 26.18228660968114241
60.009497869018190385759 156.08583857546614126 60.009497869018190385759 25.98507897087913321
62.009497869018190385759 156.62602473284977123 62.009497869018190385759 25.79263823833392877
64.009497869018190385759 157.13603780969054924 64.009497869018190385759 25.60552386296206606
66.009497869018218807469 157.61835263368507754 66.009497869018218807469 25.42680953038407665
68.009497869018218807469 158.06277911430734662 68.009497869018218807469 25.17782919620903215
70.009497869018218807469 158.48275422333830420 70.009497869018218807469 25.01449255541864858
72.009497869018218807469 158.88402175238420000 72.009497869018218807469 24.89081624680965632
74.009497869018190385759 159.27019296129503800 74.009497869018190385759 24.72652645682249428
76.009497869018190385759 159.63971930079756589 76.009497869018190385759 24.56537995171853694
78.009497869018190385759 159.99203212497349114 78.009497869018190385759 24.52598433243562681
80.009497869018190385759 160.33077776700949357 80.009497869018190385759 24.40768107841384449
82.009497869018190385759 160.66452922102951106 82.009497869018190385759 24.30261295057597692
84.009497869018190385759 160.98722991120044412 84.009497869018190385759 24.28619221292738573
86.009497869018190385759 161.29984628256468682 86.009497869018190385759 24.27152412966107420
88.009497869018218807469 161.60177889472899437 88.009497869018218807469 24.23768441791294492
91.009497869018190385759 162.03547026325736624 91.009497869018190385759 24.14111986431247558
94.009497869018218807469 162.44642174848812033 94.009497869018218807469 23.98631595805550276
97.009497869018190385759 162.83584541879622520 97.009497869018190385759 23.50944700895400530
99.504748934509109403734 163.13548978368720554 99.504748934509109403734 24.34258779801782779
nan nan nan nan

