Time Pressure difference Time.1 Pressure.1 difference.1
(hr) (psi) (hr) (psi)
0.000200000000006639311 0.37349468243777989 0.000200000000006639311 0.30021458417675295
0.000399999999999067768 0.74139490680873599 0.000399999999999067768 0.76132413730559567
0.000600000000005707079 1.10476679232007013 0.000600000000005707079 1.10262407472834933
0.000799999999998135536 1.46410545541717507 0.000799999999998135536 1.44363823050850204
0.001007140329434719206 1.83236650574056004 0.001007140329434719206 1.79500143151892044
0.001267914553963578328 2.29072555418484747 0.001267914553963578328 2.23152842020318642
0.001596209851982166583 2.86000985038770450 0.001596209851982166583 2.76771858934652837
0.002009509145224797066 3.56528604035010410 0.002009509145224797066 3.42327648035241605
0.002529822128138903281 4.43645419847979383 0.002529822128138903281 4.22037821512137601
0.003184857364431081805 5.50879125343407861 0.003184857364431081805 5.18328037004423603
0.004009497869020606231 6.82336454352867339 0.004009497869020606231 6.33750429726044207
0.005047658755842121536 8.42719910514429849 0.005047658755842121536 7.70840695236446916
0.006354625877790454069 10.37303237615892115 0.006354625877790454069 9.31897467037252625
0.008000000000009777068 12.71846455385126262 0.008000000000009777068 11.18671793845872742
0.010071403294347192059 15.52428209948027593 0.010071403294347192059 13.31953786944045603
0.012679145539706837553 18.85170309640500008 0.012679145539706837553 15.71074232785380786
0.015962098519750611558 22.75840397704213913 0.015962098519750611558 18.33371697084582053
0.020095091452091651263 27.29330918662227745 0.020095091452091651263 21.13722759118030226
0.025298221281360611101 32.49045323623528958 0.025298221281360611101 24.04252466865445470
0.031848573644296607199 38.36243637346426993 0.031848573644296607199 26.94538947628741354
0.040094978690177640601 44.89522922990303044 0.040094978690177640601 29.72273257244561151
0.050476587558421215363 52.04466886812843995 0.050476587558421215363 32.24763628642555346
0.063546258777961384112 59.73819239739484033 0.063546258777961384112 34.40837561675179046
0.079999999999998294697 67.88009349269130155 0.079999999999998294697 36.12867073824307340
0.100714032943542974863 76.36257967976766281 0.100714032943542974863 37.38534533236452262
0.126791455396897845276 85.07915125034838866 0.126791455396897845276 38.21150965385837850
0.159620985197506115583 93.93710804686023152 0.159620985197506115583 38.68948497563071953
0.200950914520760193227 102.86764459033601327 0.200950914520760193227 38.93202884522838758
0.252982212813478213320 111.82968077270054152 0.252982212813478213320 39.05723406816385790
0.318485736442795541734 120.80836586821972389 0.318485736442795541734 39.16816321136582957
0.400949786901833249431 129.80949788006782342 0.400949786901833249431 39.34027097651250671
0.504765875584155310207 138.85220136447907180 0.504765875584155310207 39.61603116017586501
0.635462587779443310865 147.96083986569459512 0.635462587779443310865 40.01541024530249047
0.799999999999997157829 157.16245000022965428 0.799999999999997157829 40.53766554279466305
1.007140329435344483500 166.47943952236431642 1.007140329435344483500 41.17097285357164083
1.267914553968893187630 175.93134887132768540 1.267914553968893187630 41.90686049013492465
1.596209851975103788391 185.53405635683958508 1.596209851975103788391 42.73663383245288827
2.009509145207672986544 195.29975211534537038 2.009509145207672986544 43.65643408071102982
2.529822128134711078928 205.23824975067429932 2.529822128134711078928 44.66803431070986363
3.184857364427998049905 215.35706686584526892 3.184857364427998049905 45.77589372474218976
4.009497869018190385759 225.66108601807627565 4.009497869018190385759 46.97726376634706469
5.009497869018204596614 235.79968349572794750 5.009497869018204596614 48.20648247987164581
6.009497869018204596614 244.20463290177414706 6.009497869018204596614 49.25891662097234303
7.009497869018204596614 251.38999179071299750 7.009497869018204596614 50.17627591955114497
8.009497869018204596614 257.66418333065905699 8.009497869018204596614 50.98747155002460119
9.009497869018204596614 263.23225052301410187 9.009497869018204596614 51.70866343530485665
10.009497869018190385759 268.23356575483552433 10.009497869018190385759 52.34721644303999710
11.009497869018190385759 272.76882964798005560 11.009497869018190385759 52.93440897514421550
12.009497869018190385759 276.91548667980941900 12.009497869018190385759 53.44333299309903396
13.009497869018190385759 280.73524742648174879 13.009497869018190385759 53.92826923805988315
14.009497869018190385759 284.26444170058096006 14.009497869018190385759 54.40247165249321171
15.009497869018190385759 287.55241858377229391 15.009497869018190385759 54.79584696320846859
16.009497869018204596614 290.62765137895132739 16.009497869018204596614 55.14767361384014777
17.009497869018204596614 293.50458469430691366 17.009497869018204596614 55.53812563399430502
18.009497869018204596614 296.20466956138062642 18.009497869018204596614 55.81949811888962643
19.009497869018204596614 298.76147147866311116 19.009497869018204596614 56.09226572437862046
20.009497869018204596614 301.18059918593957036 20.009497869018204596614 56.35361287143026487
21.009497869018204596614 303.46911779417592925 21.009497869018204596614 56.67049077922202116
22.009497869018190385759 305.63177772603552285 22.009497869018190385759 56.95697516740980859
23.009497869018190385759 307.69778165487565502 23.009497869018190385759 57.13950499400568361
24.009497869018190385759 309.67711771030371892 24.009497869018190385759 57.32755562891950518
25.009497869018190385759 311.56822853856334632 25.009497869018190385759 57.58176864789855642
26.009497869018190385759 313.37434734370310707 26.009497869018190385759 57.74223172334746579
27.009497869018204596614 315.09537869555055067 27.009497869018204596614 57.94027495749060108
28.009497869018190385759 316.74128911868467640 28.009497869018190385759 58.07780774623245890
29.009497869018190385759 318.32687324914411420 29.009497869018190385759 58.02349012739171030
30.009497869018190385759 319.85551950935717969 30.009497869018190385759 58.01491465877363396
31.009497869018190385759 321.32503904380575932 31.009497869018190385759 58.03989384553889153
32.009497869018190385759 322.73628742302548744 32.009497869018190385759 58.10540502769650573
33.009497869018218807469 324.08282365474434528 33.009497869018218807469 58.07587041028179442
34.009497869018190385759 325.37150637097016670 34.009497869018190385759 58.12419952216578167
35.009497869018218807469 326.61201451874620716 35.009497869018218807469 58.14101413094365256
36.009497869018190385759 327.81243835517835805 36.009497869018190385759 58.10369552868574772
37.009497869018218807469 328.98046486058035498 37.009497869018218807469 58.06166786133033497
38.009497869018190385759 330.11182172912884880 38.009497869018190385759 58.09440279222128112
39.009497869018190385759 331.20661169942906099 39.009497869018190385759 58.22230218862839024
40.009497869018190385759 332.26532391859194604 40.009497869018190385759 58.37227425628907440
41.009497869018190385759 333.28990234969535322 41.009497869018190385759 58.48260131538199147
42.009497869018190385759 334.28045892659525862 42.009497869018190385759 58.62627663379138454
43.009497869018190385759 335.23967100296943045 43.009497869018190385759 58.71103657432991696
44.009497869018218807469 336.17520556776457852 44.009497869018218807469 58.75810980555814922
46.009497869018218807469 337.97954453076562231 46.009497869018218807469 58.88110682175817345
48.009497869018218807469 339.70038254558141944 48.009497869018218807469 58.97961549716595187
50.009497869018218807469 341.32904214682474731 50.009497869018218807469 59.19415139508465984
52.009497869018190385759 342.86920292485183381 52.009497869018190385759 59.26091950541955100
54.009497869018190385759 344.32245461966630273 54.009497869018190385759 59.24238544669267981
56.009497869018190385759 345.70901153350541790 56.009497869018190385759 59.07454499670473069
58.009497869018190385759 347.03841358580689302 58.009497869018190385759 58.42648194180077326
60.009497869018190385759 348.30977770781362324 60.009497869018190385759 57.98640775274999015
62.009497869018190385759 349.51521775360066613 62.009497869018190385759 57.55697104416389465
64.009497869018190385759 350.65332575265921378 64.009497869018190385759 57.13942024592027735
66.009497869018218807469 351.72962435004598092 66.009497869018218807469 56.74061437075855707
68.009497869018218807469 352.72137408266610237 68.009497869018218807469 56.18500800927433403
70.009497869018218807469 353.65855991710469652 70.009497869018218807469 55.82051786997364218
72.009497869018218807469 354.55399927995091502 72.009497869018218807469 55.54453083647672429
74.009497869018190385759 355.41575079540217530 74.009497869018190385759 55.17791371891916441
76.009497869018190385759 356.24035883379951883 76.009497869018190385759 54.81831092674137551
78.009497869018190385759 357.02655444636940274 78.009497869018190385759 54.73039853494256590
80.009497869018190385759 357.78247452441030418 80.009497869018190385759 54.46640161833237670
82.009497869018190385759 358.52724993658313224 82.009497869018190385759 54.23193924438875513
84.009497869018190385759 359.24736526982167106 84.009497869018190385759 54.19529592342909297
86.009497869018190385759 359.94497717242262524 86.009497869018190385759 54.16256369820919758
88.009497869018218807469 360.61874797690751393 88.009497869018218807469 54.08704946460375851
91.009497869018190385759 361.58654201603735601 91.009497869018190385759 53.87156304696330977
94.009497869018218807469 362.50359138948334703 94.009497869018218807469 53.52611393595637423
97.009497869018190385759 363.37260086066351050 97.009497869018190385759 52.46196795594169515
99.504748934509109403734 364.04126537936110708 99.504748934509109403734 54.32114419951761874
nan nan nan nan

