Time Pressure difference Time.1 Pressure.1 difference.1
(hr) (psi) (hr) (psi)
0.000200000000006639311 0.41059680320974479 0.000200000000006639311 0.33003722498901322
0.000399999999999067768 0.81504340748510051 0.000399999999999067768 0.83695236286575414
0.000600000000005707079 1.21451183791477901 0.000600000000005707079 1.21215626758215889
0.000799999999998135536 1.60954639469702676 0.000799999999998135536 1.58704600175106858
0.001007140329434719206 2.01438966856246982 0.001007140329434719206 1.97331283200093233
0.001267914553963578328 2.51828107281248093 0.001267914553963578328 2.45320342883264164
0.001596209851982166583 3.14411678916794024 0.001596209851982166583 3.04265752206307072
0.002009509145224797066 3.91945352780210143 0.002009509145224797066 3.76333705787086759
0.002529822128138903281 4.87716156918970789 0.002529822128138903281 4.63962108417316887
0.003184857364431081805 6.05602217264938503 0.003184857364431081805 5.69817577104200801
0.004009497869020606231 7.50118221341562741 0.004009497869020606231 6.96705770427306881
0.005047658755842121536 9.26433808909902901 0.005047658755842121536 8.47414274233445042
0.006354625877790454069 11.40346605590980644 0.006354625877790454069 10.24470063100555883
0.008000000000009777068 13.98188818502854147 0.008000000000009777068 12.29798130982880089
0.010071403294347192059 17.06642932790546752 0.010071403294347192059 14.64267077037824905
0.012679145539706837553 20.72438883445847679 0.012679145539706837553 17.27141209552140566
0.015962098519750611558 25.01917258403307898 0.015962098519750611558 20.15494713351262135
0.020095091452091651263 30.00456506608806606 0.020095091452091651263 23.23695218633066517
0.025298221281360611101 35.71798170341097745 0.025298221281360611101 26.43085493375258110
0.031848573644296607199 42.17327442380840807 0.031848573644296607199 29.62208379512390977
0.040094978690177640601 49.35502021300597164 0.040094978690177640601 32.67532190083424837
0.050476587558421215363 57.21466908681669850 0.050476587558421215363 35.45104386454729450
0.063546258777961384112 65.67244992031486106 0.063546258777961384112 37.82642617470726520
0.079999999999998294697 74.62314913766063285 0.079999999999998294697 39.71761154005529448
0.100714032943542974863 83.94826640292338027 0.100714032943542974863 41.09912135875835304
0.126791455396897845276 93.53072256660816208 0.126791455396897845276 42.00735498371186338
0.159620985197506115583 103.26860884621719094 0.159620985197506115583 42.53281129771323776
0.200950914520760193227 113.08628478142898643 0.200950914520760193227 42.79944892919147037
0.252982212813478213320 122.93858945873041932 0.252982212813478213320 42.93709175705431136
0.318485736442795541734 132.80919691473161492 0.318485736442795541734 43.05904035156773091
0.400949786901833249431 142.70448111318717110 0.400949786901833249431 43.24824491457666653
0.504765875584155310207 152.64546640068562056 0.504765875584155310207 43.55139849396817198
0.635462587779443310865 162.65893654109470390 0.635462587779443310865 43.99045099814711079
0.799999999999997157829 172.77461390753722981 0.799999999999997157829 44.56458596095307456
1.007140329435344483500 183.01713219014885681 1.007140329435344483500 45.26080459399266687
1.267914553968893187630 193.40797293139334556 1.267914553968893187630 46.06979365140659866
1.596209851975103788391 203.96459175652563545 1.596209851975103788391 46.98199480918661664
2.009509145207672986544 214.70038974269758114 2.009509145207672986544 47.99316594303331840
2.529822128134711078928 225.62615535504590980 2.529822128134711078928 49.10525626210488070
3.184857364427998049905 236.75015297834644912 3.184857364427998049905 50.32316793580929470
4.009497869018190385759 248.07775019205732292 4.009497869018190385759 51.64387937227557046
5.009497869018204596614 259.22349311450886944 5.009497869018204596614 52.99520590502445572
6.009497869018204596614 268.46337126950004404 6.009497869018204596614 54.15218648398284529
7.009497869018204596614 276.36250753151233539 7.009497869018204596614 55.16067418970523306
8.009497869018204596614 283.25996313171788188 8.009497869018204596614 56.05245216757670335
9.009497869018204596614 289.38114958159167145 9.009497869018204596614 56.84528563086494302
10.009497869018190385759 294.87928420730258949 10.009497869018190385759 57.54727105658700737
11.009497869018190385759 299.86507100373961521 11.009497869018190385759 58.19279397267509779
12.009497869018190385759 304.42364760826728798 12.009497869018190385759 58.75227335665191930
13.009497869018190385759 308.62285478672822592 13.009497869018190385759 59.28538207627774881
14.009497869018190385759 312.50263127348631542 14.009497869018190385759 59.80669069082036060
15.009497869018190385759 316.11722837686227194 15.009497869018190385759 60.23914301915633729
16.009497869018204596614 319.49794787354915115 16.009497869018204596614 60.62591933706930547
17.009497869018204596614 322.66066926658908187 17.009497869018204596614 61.05515798174207731
18.009497869018204596614 325.62897448469658457 18.009497869018204596614 61.36448137573297146
19.009497869018204596614 328.43976334740455059 19.009497869018204596614 61.66434510097251831
20.009497869018204596614 331.09920175407927445 20.009497869018204596614 61.95165388514850946
21.009497869018204596614 333.61505664790195169 21.009497869018204596614 62.30000973080036175
22.009497869018190385759 335.99255034782720486 22.009497869018190385759 62.61495283304655146
23.009497869018190385759 338.26378645502887821 23.009497869018190385759 62.81561476162213609
24.009497869018190385759 340.43974529741996093 24.009497869018190385759 63.02234592318302475
25.009497869018190385759 342.51871481722855606 25.009497869018190385759 63.30181189106728112
26.009497869018190385759 344.50424939771335175 26.009497869018190385759 63.47821500712370835
27.009497869018204596614 346.39624412888338156 27.009497869018204596614 63.69593141022146909
28.009497869018190385759 348.20565558742816847 28.009497869018190385759 63.84712639652045141
29.009497869018190385759 349.94874807521802040 29.009497869018190385759 63.78741298772864354
30.009497869018190385759 351.62924661293567397 30.009497869018190385759 63.77798565136702535
31.009497869018190385759 353.24474490908443158 31.009497869018190385759 63.80544621430103547
32.009497869018190385759 354.79618352465058706 32.009497869018190385759 63.87746512978556268
33.009497869018218807469 356.27648163369246959 33.009497869018218807469 63.84499660997866499
34.009497869018190385759 357.69317918927845312 34.009497869018190385759 63.89812662701668700
35.009497869018218807469 359.05691662325745028 35.009497869018218807469 63.91661156116983733
36.009497869018190385759 360.37658786065969707 36.009497869018190385759 63.87558581299229132
37.009497869018218807469 361.66064348911481829 37.009497869018218807469 63.82938321179360486
38.009497869018190385759 362.90438680155887141 38.009497869018190385759 63.86536995701147390
39.009497869018190385759 364.10793074241871636 39.009497869018190385759 64.00597459147228108
40.009497869018190385759 365.27181304957792918 40.009497869018190385759 64.17084454664892235
41.009497869018190385759 366.39817079502927299 41.009497869018190385759 64.29213124737357532
42.009497869018190385759 367.48712703188618889 42.009497869018190385759 64.45007894840642848
43.009497869018190385759 368.54162507611209776 43.009497869018190385759 64.54325875058785300
44.009497869018218807469 369.57009353807228536 44.009497869018218807469 64.59500813061359281
46.009497869018218807469 371.55367147090794333 46.009497869018218807469 64.73022339345601495
48.009497869018218807469 373.44545365938091663 48.009497869018218807469 64.83851769887118621
50.009497869018218807469 375.23590063823115770 50.009497869018218807469 65.07436510982817879
52.009497869018190385759 376.92905752003582620 52.009497869018190385759 65.14776581390493959
54.009497869018190385759 378.52667196599071531 54.009497869018190385759 65.12739062351644748
56.009497869018190385759 380.05096632160200443 56.009497869018190385759 64.94287728114559854
58.009497869018190385759 381.51242818042351246 58.009497869018190385759 64.23043710158231079
60.009497869018190385759 382.91008675163618591 60.009497869018190385759 63.74664693348674405
62.009497869018190385759 384.23527249733587041 62.009497869018190385759 63.27455094921328538
64.009497869018190385759 385.48643758239359158 64.009497869018190385759 62.81552159485276121
66.009497869018218807469 386.66965325899093386 66.009497869018218807469 62.37709924202597023
68.009497869018218807469 387.75992117697069261 68.009497869018218807469 61.76630019562609419
70.009497869018218807469 388.79020494198266533 70.009497869018218807469 61.36560242659353293
72.009497869018218807469 389.77459523491290838 72.009497869018218807469 61.06219946261678899
74.009497869018190385759 390.72195120554152936 74.009497869018190385759 60.65916342609655487
76.009497869018190385759 391.62847394973982773 76.009497869018190385759 60.26383850224548411
78.009497869018190385759 392.49276846422066001 78.009497869018190385759 60.16719309139381267
80.009497869018190385759 393.32377994074249727 80.009497869018190385759 59.87697131551771434
82.009497869018190385759 394.14253966538279883 82.009497869018190385759 59.61921797727505634
84.009497869018190385759 394.93418963437346747 84.009497869018190385759 59.57893459131940261
86.009497869018190385759 395.70110073259706951 86.009497869018190385759 59.54295082054785837
88.009497869018218807469 396.44180241169971168 88.009497869018218807469 59.45993517300810538
91.009497869018190385759 397.50573493153780191 91.009497869018190385759 59.22304281984045105
94.009497869018218807469 398.51388192486251683 94.009497869018218807469 58.84327757197852549
97.009497869018190385759 399.46921684019957866 97.009497869018190385759 57.67342172639948217
99.504748934509109403734 400.20430498658242868 99.504748934509109403734 59.71728435178757621
nan nan nan nan

