Time Pressure difference Time.1 Pressure.1 difference.1
(hr) (psi) (hr) (psi)
0.000200000000006639311 0.41966621050955849 0.000200000000006639311 0.33732720385423237
0.000399999999999067768 0.83304637431710082 0.000399999999999067768 0.85543926244712620
0.000600000000005707079 1.24133840461570788 0.000600000000005707079 1.23893080361309016
0.000799999999998135536 1.64509862429876819 0.000799999999998135536 1.62210123472147361
0.001007140329434719206 2.05888421947449229 0.001007140329434719206 2.01690006322986859
0.001267914553963578328 2.57390575514368036 0.001267914553963578328 2.50739065316428666
0.001596209851982166583 3.21356515198088655 0.001596209851982166583 3.10986481672711479
0.002009509145224797066 4.00602780251258928 0.002009509145224797066 3.84646297681982219
0.002529822128138903281 4.98489003758546367 0.002529822128138903281 4.74210267438582900
0.003184857364431081805 6.18978973067979243 0.003184857364431081805 5.82403909128590858
0.004009497869020606231 7.66687097716577171 0.004009497869020606231 7.12094853709837849
0.005047658755842121536 9.46897206295463079 0.005047658755842121536 8.66132260210489058
0.006354625877790454069 11.65534984429335630 0.006354625877790454069 10.47098919916030013
0.008000000000009777068 14.29072507264965353 0.008000000000009777068 12.56962346727481794
0.010071403294347192059 17.44339865040940296 0.010071403294347192059 14.96610325727415436
0.012679145539706837553 21.18215645931599767 0.012679145539706837553 17.65290914984015203
0.015962098519750611558 25.57180491018641888 0.015962098519750611558 20.60013672883117408
0.020095091452091651263 30.66731650329081660 0.020095091452091651263 23.75021819847853166
0.025298221281360611101 36.50693310649837287 0.025298221281360611101 27.01466899855434534
0.031848573644296607199 43.10481261389253405 0.031848573644296607199 30.27638685083950065
0.040094978690177640601 50.44519134220892198 0.040094978690177640601 33.39706595888480223
0.050476587558421215363 58.47844691805160267 0.050476587558421215363 36.23409905031038392
0.063546258777961384112 67.12304620369530994 0.063546258777961384112 38.66194964442971127
0.079999999999998294697 76.27145162865313921 0.079999999999998294697 40.59490818049828675
0.100714032943542974863 85.80254537969479145 0.100714032943542974863 42.00693327632128415
0.126791455396897845276 95.59666222169387595 0.126791455396897845276 42.93522828656493573
0.159620985197506115583 105.54964237494890256 0.159620985197506115583 43.47229106533340826
0.200950914520760193227 115.58417460591837767 0.200950914520760193227 43.74481828304911346
0.252982212813478213320 125.65410047087104317 0.252982212813478213320 43.88550141433864127
0.318485736442795541734 135.74273339276786032 0.318485736442795541734 44.01014365250598104
0.400949786901833249431 145.85658812572745546 0.400949786901833249431 44.20352743277012308
0.504765875584155310207 156.01715340953609257 0.504765875584155310207 44.51337717556184970
0.635462587779443310865 166.25180461730360548 0.635462587779443310865 44.96212762662024431
0.799999999999997157829 176.59092064043463211 0.799999999999997157829 45.54894428539179785
1.007140329435344483500 187.05967928671839218 1.007140329435344483500 46.26054124165113990
1.267914553968893187630 197.68003659052052967 1.267914553968893187630 47.08739953527301481
1.596209851975103788391 208.46983374311554371 1.596209851975103788391 48.01974971461041974
2.009509145207672986544 219.44276782938365500 2.009509145207672986544 49.05325595382321779
2.529822128134711078928 230.60986561389231042 2.529822128134711078928 50.18991051689032901
3.184857364427998049905 241.97957402806895288 3.184857364427998049905 51.43472385407014258
4.009497869018190385759 253.55737921236382704 4.009497869018190385759 52.78460763150254564
5.009497869018204596614 264.94931324354416802 5.009497869018204596614 54.16578274228403700
6.009497869018204596614 274.39328509272195333 6.009497869018204596614 55.34831911716318587
7.009497869018204596614 282.46690026815213059 7.009497869018204596614 56.37908265574289857
8.009497869018204596614 289.51670930531003023 8.009497869018204596614 57.29055854075610910
9.009497869018204596614 295.77310268479948263 9.009497869018204596614 58.10090438977963601
10.009497869018190385759 301.39268205123897815 10.009497869018190385759 58.81839551767627938
11.009497869018190385759 306.48859666848090910 11.009497869018190385759 59.47817697207153032
12.009497869018190385759 311.14786472411253726 12.009497869018190385759 60.05001433440929048
13.009497869018190385759 315.43982547478850620 13.009497869018190385759 60.59489854784212071
14.009497869018190385759 319.40529983575203232 14.009497869018190385759 61.12772201130032101
15.009497869018190385759 323.09973743739539032 15.009497869018190385759 61.56972649949914000
16.009497869018204596614 326.55513146111746892 16.009497869018204596614 61.96504606941420690
17.009497869018204596614 329.78771216203580252 17.009497869018204596614 62.40376588896931054
18.009497869018204596614 332.82158235484052966 18.009497869018204596614 62.71992172740578297
19.009497869018204596614 335.69445691531910825 19.009497869018204596614 63.02640894858436837
20.009497869018204596614 338.41263793740233723 20.009497869018204596614 63.32006391072407325
21.009497869018204596614 340.98406392325728120 21.009497869018204596614 63.67611436340840925
22.009497869018190385759 343.41407254426513873 22.009497869018190385759 63.99801404020219309
23.009497869018190385759 345.73547651728853225 23.009497869018190385759 64.20310826037282936
24.009497869018190385759 347.95949870760392741 24.009497869018190385759 64.41440577289189662
25.009497869018190385759 350.08438924090228284 25.009497869018190385759 64.70004468384186680
26.009497869018190385759 352.11378101091582948 26.009497869018190385759 64.88034425426900498
27.009497869018204596614 354.04756679036478317 27.009497869018204596614 65.10286965422233152
28.009497869018190385759 355.89694516867660923 28.009497869018190385759 65.25740428881306343
29.009497869018190385759 357.67853969936942349 29.009497869018190385759 65.19637190914431812
30.009497869018190385759 359.39615768269931095 30.009497869018190385759 65.18673633844541371
31.009497869018190385759 361.04733967615254642 31.009497869018190385759 65.21480345999844985
32.009497869018190385759 362.63304701615891190 32.009497869018190385759 65.28841315474066676
33.009497869018218807469 364.14604247299092776 33.009497869018218807469 65.25522745879345621
34.009497869018190385759 365.59403254486494461 34.009497869018190385759 65.30953103042467944
35.009497869018218807469 366.98789269324907991 35.009497869018218807469 65.32842426633624200
36.009497869018190385759 368.33671329533285643 36.009497869018190385759 65.28649232693388171
37.009497869018218807469 369.64913159831218081 37.009497869018218807469 65.23926918635130789
38.009497869018190385759 370.92034715259734412 38.009497869018190385759 65.27605081951575983
39.009497869018190385759 372.15047539737173565 39.009497869018190385759 65.41976117883410780
40.009497869018190385759 373.34006594826337277 40.009497869018190385759 65.58827283984798839
41.009497869018190385759 374.49130308166644454 41.009497869018190385759 65.71223856408262520
42.009497869018190385759 375.60431256873511074 42.009497869018190385759 65.87367506975677145
43.009497869018190385759 376.68210273843584446 43.009497869018190385759 65.96891306033978708
44.009497869018218807469 377.73328837525866675 44.009497869018218807469 66.02180549896047523
46.009497869018218807469 379.76068027849828468 46.009497869018218807469 66.16000744431546821
48.009497869018218807469 381.69424882053186820 48.009497869018218807469 66.27069379262134419
50.009497869018218807469 383.52424382501936861 50.009497869018218807469 66.51175068454324446
52.009497869018190385759 385.25479975441413671 52.009497869018190385759 66.58677268931246829
54.009497869018190385759 386.88770287287007932 54.009497869018190385759 66.56594744451781764
56.009497869018190385759 388.44566638091447430 56.009497869018190385759 66.37735850623114686
58.009497869018190385759 389.93940952577423786 58.009497869018190385759 65.64918169619558341
60.009497869018190385759 391.36794007345940827 60.009497869018190385759 65.15470539988906751
62.009497869018190385759 392.72239699024885340 62.009497869018190385759 64.67218159266980138
64.009497869018190385759 394.00119825188420464 64.009497869018190385759 64.20301303570292362
66.009497869018218807469 395.21054921451087694 66.009497869018218807469 63.75490665500243637
68.009497869018218807469 396.32489935557850913 68.009497869018218807469 63.13061606340096432
70.009497869018218807469 397.37794039250837841 70.009497869018218807469 62.72106754043395682
72.009497869018218807469 398.38407424612586283 72.009497869018218807469 62.41096290456214746
74.009497869018190385759 399.35235575024222499 74.009497869018190385759 61.99902446562881408
76.009497869018190385759 400.27890208919188808 76.009497869018190385759 61.59496746514648891
78.009497869018190385759 401.16228744636202919 78.009497869018190385759 61.49618731630412327
80.009497869018190385759 402.01165459806810532 80.009497869018190385759 61.19955501927412200
82.009497869018190385759 402.84849937686709609 82.009497869018190385759 60.93610833420281381
84.009497869018190385759 403.65763559015277906 84.009497869018190385759 60.89493515458148210
86.009497869018190385759 404.44148649175082255 86.009497869018190385759 60.85815656156398035
88.009497869018218807469 405.19854905131552414 88.009497869018218807469 60.77330723506250365
91.009497869018190385759 406.28598208866014829 91.009497869018190385759 60.53118231987709663
94.009497869018218807469 407.31639738906625325 94.009497869018218807469 60.14302868300616467
97.009497869018190385759 408.29283407964175012 97.009497869018190385759 58.94733264806693995
99.504748934509109403734 409.04415911279204465 99.504748934509109403734 61.03634083345357197
nan nan nan nan

