Time Pressure difference Time.1 Pressure.1 difference.1
(hr) (psi) (hr) (psi)
0.000200000000006639311 0.69669537894022959 0.000200000000006639311 0.56000292191910872
0.000399999999999067768 1.38295517936728896 0.000399999999999067768 1.42013001329630972
0.000600000000005707079 2.06076807838953480 0.000600000000005707079 2.05677117692153422
0.000799999999998135536 2.73105763758832865 0.000799999999998135536 2.69287925999930300
0.001007140329434719206 3.41799050187808628 0.001007140329434719206 3.34829185349555791
0.001267914553963578328 4.27298696089667995 0.001267914553963578328 4.16256405093088855
0.001596209851982166583 5.33489696153997883 0.001596209851982166583 5.16274218101063198
0.002009509145224797066 6.65047837548750120 0.002009509145224797066 6.38558195562426345
0.002529822128138903281 8.27550507221948450 0.002529822128138903281 7.87244942997254604
0.003184857364431081805 10.27578059415407630 0.003184857364431081805 9.66859141873593764
0.004009497869020606231 12.72790957898836339 0.004009497869020606231 11.82161397612599174
0.005047658755842121536 15.71960980981662459 0.005047658755842121536 14.37881650054741023
0.006354625877790454069 19.34925465309997250 0.006354625877790454069 17.38307637188694343
0.008000000000009777068 23.72428818543999185 0.008000000000009777068 20.86705664017135931
0.010071403294347192059 28.95809795598418290 0.010071403294347192059 24.84549558427634608
0.012679145539706837553 35.16487663678195474 0.012679145539706837553 29.30591008175820633
0.015962098519750611558 42.45221050905210802 0.015962098519750611558 34.19865527674330963
0.020095091452091651263 50.91136040330204082 0.020095091452091651263 39.42816184226789034
0.025298221281360611101 60.60581232807685836 0.025298221281360611101 44.84753497795367849
0.031848573644296607199 71.55907005646206187 0.031848573644296607199 50.26237109815201620
0.040094978690177640601 83.74496401604427831 0.040094978690177640601 55.44306627751996075
0.050476587558421215363 97.08111521759057894 0.050476587558421215363 60.15287563361940215
0.063546258777961384112 111.43216904149809920 0.063546258777961384112 64.18339381049726455
0.079999999999998294697 126.61960044442417939 0.079999999999998294697 67.39233283402957397
0.100714032943542974863 142.44233957925754908 0.100714032943542974863 69.73646094006186047
0.126791455396897845276 158.70172804976684233 0.126791455396897845276 71.27754008280426490
0.159620985197506115583 175.22484834348099980 0.159620985197506115583 72.16912760354958323
0.200950914520760193227 191.88335469941264932 0.200950914520760193227 72.62155490997348295
0.252982212813478213320 208.60061865989396779 0.252982212813478213320 72.85510549138733438
0.318485736442795541734 225.34893854005667890 0.318485736442795541734 73.06202629934686854
0.400949786901833249431 242.13912959968502037 0.400949786901833249431 73.38306617031581425
0.504765875584155310207 259.00686567987821718 0.504765875584155310207 73.89745326787772228
0.635462587779443310865 275.99759312695783819 0.635462587779443310865 74.64243191452672477
0.799999999999997157829 293.16174448166458433 0.799999999999997157829 75.61661674097459240
1.007140329435344483500 310.54111787284290358 1.007140329435344483500 76.79795157012810591
1.267914553968893187630 328.17216290567751003 1.267914553968893187630 78.17063380610157708
1.596209851975103788391 346.08449806077135236 1.596209851975103788391 79.71844500755560148
2.009509145207672986544 364.30086211361333426 2.009509145207672986544 81.43418719249629589
2.529822128134711078928 382.83956079320040544 2.529822128134711078928 83.32116775397314257
3.184857364427998049905 401.71461700141111351 3.184857364427998049905 85.38770463003785949
4.009497869018190385759 420.93513837808922062 4.009497869018190385759 87.62867082243545269
5.009497869018204596614 439.84709173044177533 5.009497869018204596614 89.92158431675836994
6.009497869018204596614 455.52519823840873414 6.009497869018204596614 91.88473409430822869
7.009497869018204596614 468.92835113278698600 7.009497869018204596614 93.59592307289342727
8.009497869018204596614 480.63186515321609704 8.009497869018204596614 95.10908048514522761
9.009497869018204596614 491.01821565551193771 9.009497869018204596614 96.45435011662826241
10.009497869018190385759 500.34737982966009895 10.009497869018190385759 97.64546996549402991
11.009497869018190385759 508.80719879148591644 11.009497869018190385759 98.74078495363545471
12.009497869018190385759 516.54213298993147419 12.009497869018190385759 99.69010238227083676
13.009497869018190385759 523.66729376462922119 13.009497869018190385759 100.59467440653554604
14.009497869018190385759 530.25044864677897749 14.009497869018190385759 101.47922416414296265
15.009497869018190385759 536.38365055913379820 15.009497869018190385759 102.21300371724318268
16.009497869018204596614 542.12001195411448862 16.009497869018204596614 102.86928080285856879
17.009497869018204596614 547.48647696840919252 17.009497869018204596614 103.59760741881939339
18.009497869018204596614 552.52305911559960805 18.009497869018204596614 104.12246337850271516
19.009497869018204596614 557.29236953525469289 19.009497869018204596614 104.63126829381884875
20.009497869018204596614 561.80487044617871106 20.009497869018204596614 105.11877014648692352
21.009497869018204596614 566.07374069774539294 21.009497869018204596614 105.70985586852671645
22.009497869018190385759 570.10784145364254982 22.009497869018190385759 106.24424727695648585
23.009497869018190385759 573.96164569176596615 23.009497869018190385759 106.58472785857571807
24.009497869018190385759 577.65378469140534889 24.009497869018190385759 106.93550663672623102
25.009497869018190385759 581.18135345493601562 25.009497869018190385759 107.40970089950171484
26.009497869018190385759 584.55038301419222080 26.009497869018190385759 107.70901943979824011
27.009497869018204596614 587.76069535924989395 27.009497869018204596614 108.07843783461271414
28.009497869018190385759 590.83088146862814938 28.009497869018190385759 108.33498354429674748
29.009497869018190385759 593.78853840072133607 29.009497869018190385759 108.23366259966003611
30.009497869018190385759 596.63998672275226909 30.009497869018190385759 108.21766641647619167
31.009497869018190385759 599.38114347023361006 31.009497869018190385759 108.26426114675577139
32.009497869018190385759 602.01360457495934497 32.009497869018190385759 108.38646191700561872
33.009497869018218807469 604.52535538247013847 33.009497869018218807469 108.33136974986339851
34.009497869018190385759 606.92918958823349840 34.009497869018190385759 108.42152007997810870
35.009497869018218807469 609.24316174026614590 35.009497869018218807469 108.45288507869179284
36.009497869018190385759 611.48236293625996041 36.009497869018190385759 108.38327311642265727
37.009497869018218807469 613.66113202470285160 37.009497869018218807469 108.30487713647710279
38.009497869018190385759 615.77149969340814550 38.009497869018190385759 108.36593898328253260
39.009497869018190385759 617.81365758502761310 39.009497869018190385759 108.60451512006841313
40.009497869018190385759 619.78851812629181950 40.009497869018190385759 108.88426434120148656
41.009497869018190385759 621.69970747349350404 41.009497869018190385759 109.09006205628649866
42.009497869018190385759 623.54743442157393929 42.009497869018190385759 109.35806568554903606
43.009497869018190385759 625.33669315123438537 43.009497869018190385759 109.51617197639906465
44.009497869018218807469 627.08178522022319612 44.009497869018218807469 109.60397965937447395
46.009497869018218807469 630.44749476489403150 46.009497869018218807469 109.83341117965927936
48.009497869018218807469 633.65744647023461766 48.009497869018218807469 110.01716356535371233
50.009497869018218807469 636.69545389418738068 50.009497869018218807469 110.41734642129479482
52.009497869018190385759 639.56838073178766990 52.009497869018190385759 110.54189179267002885
54.009497869018190385759 642.27919239209268198 54.009497869018190385759 110.50731943146867309
56.009497869018190385759 644.86559546536898324 56.009497869018190385759 110.19423956338962967
58.009497869018190385759 647.34538516557802268 58.009497869018190385759 108.98538022256435909
60.009497869018190385759 649.71691426733434582 60.009497869018190385759 108.16449128272348901
62.009497869018190385759 651.96547241013809071 62.009497869018190385759 107.36344488370527017
64.009497869018190385759 654.08843324723409296 64.009497869018190385759 106.58456977439875857
66.009497869018218807469 656.09609840129996883 66.009497869018218807469 105.84066036046573345
68.009497869018218807469 657.94605099305272233 68.009497869018218807469 104.80426438816074608
70.009497869018218807469 659.69422324493041287 70.009497869018218807469 104.12436556319585179
72.009497869018218807469 661.36452404317560649 72.009497869018218807469 103.60955531307467936
74.009497869018190385759 662.97198547928223888 74.009497869018190385759 102.92568894588673345
76.009497869018190385759 664.51016162154655831 76.009497869018190385759 102.25490669557716217
78.009497869018190385759 665.97668544631812892 78.009497869018190385759 102.09092000447343196
80.009497869018190385759 667.38673504001485526 80.009497869018190385759 101.59847542492462935
82.009497869018190385759 668.77599601857116340 82.009497869018190385759 101.16112287308719431
84.009497869018190385759 670.11925751213971125 84.009497869018190385759 101.09277054149576713
86.009497869018190385759 671.42054240771994955 86.009497869018190385759 101.03171374169265562
88.009497869018218807469 672.67735549776352855 88.009497869018218807469 100.89085385781496029
91.009497869018190385759 674.48262252439644726 91.009497869018190385759 100.48889795735979646
94.009497869018218807469 676.19323338656386113 94.009497869018218807469 99.84451716530493570
97.009497869018190385759 677.81423339351124469 97.009497869018190385759 97.85952080081840165
99.504748934509109403734 679.06152151337778378 99.504748934509109403734 101.32752063706928425
nan nan nan nan

