Time Pressure difference Time.1 Pressure.1 difference.1
(hr) (psi) (hr) (psi)
0.000200000000006639311 0.11460432860673600 0.000200000000006639311 0.09211882384231493
0.000399999999999067768 0.22749203542254814 0.000399999999999067768 0.23360718561915628
0.000600000000005707079 0.33899025194810101 0.000600000000005707079 0.33833277348176721
0.000799999999998135536 0.44925090133109785 0.000799999999998135536 0.44297067117148298
0.001007140329434719206 0.56224932516101067 0.001007140329434719206 0.55078410371110365
0.001267914553963578328 0.70289371309424664 0.001267914553963578328 0.68472947109987392
0.001596209851982166583 0.87757476645450538 0.001596209851982166583 0.84925581439109810
0.002009509145224797066 1.09398401679616897 0.002009509145224797066 1.05040933944588466
0.002529822128138903281 1.36129610063728790 0.002529822128138903281 1.29499463995998076
0.003184857364431081805 1.69033550602061133 0.003184857364431081805 1.59045468308200633
0.004009497869020606231 2.09370346920636985 0.004009497869020606231 1.94462052388344731
0.005047658755842121536 2.58582930599350425 0.005047658755842121536 2.36527277346282849
0.006354625877790454069 3.18289514411940377 0.006354625877790454069 2.85946463395536687
0.008000000000009777068 3.90257521630314663 0.008000000000009777068 3.43256908045422326
0.010071403294347192059 4.76352143891337398 0.010071403294347192059 4.08701051623007405
0.012679145539706837553 5.78451816865407409 0.012679145539706837553 4.82073550457324362
0.015962098519750611558 6.98326303048312802 0.015962098519750611558 5.62557761357079222
0.020095091452091651263 8.37476816101654897 0.020095091452091651263 6.48581597168667123
0.025298221281360611101 9.96947682083157716 0.025298221281360611101 7.37728681885865178
0.031848573644296607199 11.77125531106299050 0.031848573644296607199 8.26801134040607089
0.040094978690177640601 13.77579881447355525 0.040094978690177640601 9.12022036991156781
0.050476587558421215363 15.96955623105927913 0.050476587558421215363 9.89497007464271938
0.063546258777961384112 18.33026212635294172 0.063546258777961384112 10.55797839012913641
0.079999999999998294697 20.82854965890527765 0.079999999999998294697 11.08583936559776362
0.100714032943542974863 23.43134343374769202 0.100714032943542974863 11.47144150374982097
0.126791455396897845276 26.10596473244685356 0.126791455396897845276 11.72494446332519757
0.159620985197506115583 28.82396913579154685 0.159620985197506115583 11.87160797265490153
0.200950914520760193227 31.56424414582054183 0.200950914520760193227 11.94603092601930783
0.252982212813478213320 34.31418460795889303 0.252982212813478213320 11.98444930568383349
0.318485736442795541734 37.06923367700340322 0.318485736442795541734 12.01848716640143699
0.400949786901833249431 39.83117043119079170 0.400949786901833249431 12.07129727535372687
0.504765875584155310207 42.60586311183795516 0.504765875584155310207 12.15591243104734076
0.635462587779443310865 45.40078750845815847 0.635462587779443310865 12.27845921434226639
0.799999999999997157829 48.22423962479452797 0.799999999999997157829 12.43870973608931152
1.007140329435344483500 51.08309512937888996 1.007140329435344483500 12.63303582041160666
1.267914553968893187630 53.98334987442505195 1.267914553968893187630 12.85883798703919290
1.596209851975103788391 56.92987601236357875 1.596209851975103788391 13.11344835035530210
2.009509145207672986544 59.92641400448787437 2.009509145207672986544 13.39568286361773453
2.529822128134711078928 62.97597508905899844 2.529822128134711078928 13.70608558319794845
3.184857364427998049905 66.08086599194810162 3.184857364427998049905 14.04602478529616860
4.009497869018190385759 69.24258489296379082 4.009497869018190385759 14.41465709386808314
5.009497869018204596614 72.35354526690106525 5.009497869018204596614 14.79183457991646478
6.009497869018204596614 74.93254740253114221 6.009497869018204596614 15.11476691018798135
7.009497869018204596614 77.13732639935784619 7.009497869018204596614 15.39625243447595793
8.009497869018204596614 79.06251982993731531 8.009497869018204596614 15.64516235199430305
9.009497869018204596614 80.77104375871735442 9.009497869018204596614 15.86645522628559846
10.009497869018190385759 82.30566366428726610 10.009497869018190385759 16.06239091740079061
11.009497869018190385759 83.69727885445745130 11.009497869018190385759 16.24256699237317036
12.009497869018190385759 84.96965264568103748 12.009497869018190385759 16.39872690075224426
13.009497869018190385759 86.14172051276149489 13.009497869018190385759 16.54752632249519451
14.009497869018190385759 87.22463001408553396 14.009497869018190385759 16.69303214061050156
15.009497869018190385759 88.23352358310010857 15.009497869018190385759 16.81373670615005977
16.009497869018204596614 89.17713806109102848 16.009497869018204596614 16.92169234508560649
17.009497869018204596614 90.05990567882706443 17.009497869018204596614 17.04149991859869218
18.009497869018204596614 90.88840854090929611 18.009497869018204596614 17.12783717113831727
19.009497869018204596614 91.67294599455668447 19.009497869018204596614 17.21153407436783311
20.009497869018204596614 92.41523904380927945 20.009497869018204596614 17.29172668681855995
21.009497869018204596614 93.11745557039834864 21.009497869018204596614 17.38895853931978053
22.009497869018190385759 93.78105320953407897 22.009497869018190385759 17.47686434496680619
23.009497869018190385759 94.41499260491771395 23.009497869018190385759 17.53287239330417080
24.009497869018190385759 95.02233854687023040 24.009497869018190385759 17.59057446450289319
25.009497869018190385759 95.60261317187703867 25.009497869018190385759 17.66857801778785841
26.009497869018190385759 96.15680856683162858 26.009497869018190385759 17.71781503210882391
27.009497869018204596614 96.68489544962810101 27.009497869018204596614 17.77858326510197529
28.009497869018190385759 97.18993198122996091 28.009497869018190385759 17.82078427533402376
29.009497869018190385759 97.67645779609499357 29.009497869018190385759 17.80411727970739122
30.009497869018190385759 98.14551260883145289 30.009497869018190385759 17.80148595489963625
31.009497869018190385759 98.59642478386092534 31.009497869018190385759 17.80915065017639520
32.009497869018190385759 99.02945684724183195 32.009497869018190385759 17.82925231534175481
33.009497869018218807469 99.44263242386195145 33.009497869018218807469 17.82018981684143100
34.009497869018190385759 99.83805603877451063 34.009497869018190385759 17.83501927942835152
35.009497869018218807469 100.21869761171242885 35.009497869018218807469 17.84017872892090040
36.009497869018190385759 100.58703958359778596 36.009497869018190385759 17.82872776708017426
37.009497869018218807469 100.94544065258425292 37.009497869018218807469 17.81583186031990351
38.009497869018190385759 101.29258989039495020 38.009497869018190385759 17.82587635346304467
39.009497869018190385759 101.62851882167910844 39.009497869018190385759 17.86512142211776322
40.009497869018190385759 101.95337753793438651 40.009497869018190385759 17.91113934133373320
41.009497869018190385759 102.26776253114270787 41.009497869018190385759 17.94499245659624265
42.009497869018190385759 102.57170814745417431 42.009497869018190385759 17.98907826069978455
43.009497869018190385759 102.86603591481842557 43.009497869018190385759 18.01508627777452176
44.009497869018218807469 103.15309839717279772 44.009497869018218807469 18.02953038183792955
46.009497869018218807469 103.70674765955060082 46.009497869018218807469 18.06727118813330435
48.009497869018218807469 104.23477521818061575 48.009497869018218807469 18.09749791193392454
50.009497869018218807469 104.73451845123319970 50.009497869018218807469 18.16332680776328345
52.009497869018190385759 105.20710641623489323 52.009497869018190385759 18.18381415287708336
54.009497869018190385759 105.65302691420224335 54.009497869018190385759 18.17812710174455404
56.009497869018190385759 106.07848256767607609 56.009497869018190385759 18.12662638971734808
58.009497869018190385759 106.48640063670455902 58.009497869018190385759 17.92777260465851441
60.009497869018190385759 106.87651015758520145 60.009497869018190385759 17.79273880272019426
62.009497869018190385759 107.24639131953750848 62.009497869018190385759 17.66096904004146140
64.009497869018190385759 107.59561209629057998 64.009497869018190385759 17.53284638892476721
66.009497869018218807469 107.92586707429667570 66.009497869018218807469 17.41047549124821003
68.009497869018218807469 108.23017880240747957 68.009497869018218807469 17.23999142006431029
70.009497869018218807469 108.51774796573411663 70.009497869018218807469 17.12815007489257368
72.009497869018218807469 108.79250750532710867 72.009497869018218807469 17.04346531185488800
74.009497869018190385759 109.05693015576359528 74.009497869018190385759 16.93097131772574571
76.009497869018190385759 109.30995558034906878 76.009497869018190385759 16.82062962211269408
78.009497869018190385759 109.55119441069612662 78.009497869018190385759 16.79365429659385356
80.009497869018190385759 109.78314339711486980 80.009497869018190385759 16.71264862019470243
82.009497869018190385759 110.01167271784780155 82.009497869018190385759 16.64070541935990732
84.009497869018190385759 110.23263525939340468 84.009497869018190385759 16.62946166303894913
86.009497869018190385759 110.44669277476103275 86.009497869018190385759 16.61941800011275561
88.009497869018218807469 110.65343480969127654 88.009497869018218807469 16.59624696596009485
91.009497869018190385759 110.95039589454569295 91.009497869018190385759 16.53012640955386203
94.009497869018218807469 111.23178632039333991 94.009497869018218807469 16.42412767571288157
97.009497869018190385759 111.49843602567818834 97.009497869018190385759 16.09760164652515613
99.504748934509109403734 111.70361123119469937 99.504748934509109403734 16.66807735923388023
nan nan nan nan

