Time Pressure difference Time.1 Pressure.1 difference.1
(hr) (psi) (hr) (psi)
0.000200000000006639311 0.51695621608937747 0.000200000000006639311 0.41552879531749248
0.000399999999999067768 1.02616910942401196 0.000399999999999067768 1.05375327613820846
0.000600000000005707079 1.52911430195294473 0.000600000000005707079 1.52614855376307945
0.000799999999998135536 2.02647708729926856 0.000799999999998135536 1.99814827931309202
0.001007140329434719206 2.53618940198527820 0.001007140329434719206 2.48447218004936632
0.001267914553963578328 3.17060689287836439 0.001267914553963578328 3.08867178690374766
0.001596209851982166583 3.95855668033794883 0.001596209851982166583 3.83081579585049248
0.002009509145224797066 4.93473365849782653 0.002009509145224797066 4.73817738009042966
0.002529822128138903281 6.14052269855812494 0.002529822128138903281 5.84145064212164034
0.003184857364431081805 7.62475080773326130 0.003184857364431081805 7.17420925390228703
0.004009497869020606231 9.44425953375822935 0.004009497869020606231 8.77177747104259886
0.005047658755842121536 11.66413650976926064 0.005047658755842121536 10.66925200691505893
0.006354625877790454069 14.35737593786234712 0.006354625877790454069 12.89844838482025224
0.008000000000009777068 17.60370259440340490 0.008000000000009777068 15.48360297442300748
0.010071403294347192059 21.48725138272435586 0.010071403294347192059 18.43565175306659043
0.012679145539706837553 26.09275461687844455 0.012679145539706837553 21.74533209616851792
0.015962098519750611558 31.50004259074043844 0.015962098519750611558 25.37580693315745961
0.020095091452091651263 37.77683192055666694 0.020095091452091651263 29.25616269242836509
0.025298221281360611101 44.97022997598129024 0.025298221281360611101 33.27740169370053991
0.031848573644296607199 53.09767683479492462 0.031848573644296607199 37.29527417578854198
0.040094978690177640601 62.13975436456775725 0.040094978690177640601 41.13941130888167663
0.050476587558421215363 72.03533638038969400 0.050476587558421215363 44.63414558849628833
0.063546258777961384112 82.68398815268557200 0.063546258777961384112 47.62483777417963182
0.079999999999998294697 93.95324198657272063 0.079999999999998294697 50.00590850525033915
0.100714032943542974863 105.69390167596981200 0.100714032943542974863 51.74527930108732221
0.126791455396897845276 117.75856033988617355 0.126791455396897845276 52.88877826262517345
0.159620985197506115583 130.01891113770719244 0.159620985197506115583 53.55034675434980329
0.200950914520760193227 142.37971999589552752 0.200950914520760193227 53.88605316988565619
0.252982212813478213320 154.78412769201599986 0.252982212813478213320 54.05935046520693277
0.318485736442795541734 167.21157924806570350 0.318485736442795541734 54.21288815347985945
0.400949786901833249431 179.67009971479589581 0.400949786901833249431 54.45110353702724382
0.504765875584155310207 192.18615950447767204 0.504765875584155310207 54.83278485083944531
0.635462587779443310865 204.79348034390838507 0.635462587779443310865 55.38556782296834768
0.799999999999997157829 217.52948377515227207 0.799999999999997157829 56.10842449300718471
1.007140329435344483500 230.42518450446448242 1.007140329435344483500 56.98498891653292731
1.267914553968893187630 243.50762857024824370 1.267914553968893187630 58.00353538038542212
1.596209851975103788391 256.79879323562568061 1.596209851975103788391 59.15202960915664931
2.009509145207672986544 270.31555094110717619 2.009509145207672986544 60.42513061502388183
2.529822128134711078928 284.07148475424457956 2.529822128134711078928 61.82529252277061005
3.184857364427998049905 298.07699983418314105 3.184857364427998049905 63.35868734086833598
4.009497869018190385759 312.33885415746976832 4.009497869018190385759 65.02151077593732964
5.009497869018204596614 326.37174735501417899 5.009497869018204596614 66.72287972379584176
6.009497869018204596614 338.00508792364769306 6.009497869018204596614 68.17956009127959760
7.009497869018204596614 347.95038598847031608 7.009497869018204596614 69.44928256414695511
8.009497869018204596614 356.63453189475325189 8.009497869018204596614 70.57206327122609935
9.009497869018204596614 364.34132688284734058 9.009497869018204596614 71.57026925813718776
10.009497869018190385759 371.26367710437494907 10.009497869018190385759 72.45409428208846236
11.009497869018190385759 377.54096289025051192 11.009497869018190385759 73.26683096559695230
12.009497869018190385759 383.28037560317989119 12.009497869018190385759 73.97123573217018588
13.009497869018190385759 388.56732921943495285 13.009497869018190385759 74.64243887916897791
14.009497869018190385759 393.45210804914836444 14.009497869018190385759 75.29878526735815569
15.009497869018190385759 398.00301645038678089 15.009497869018190385759 75.84325837954020244
16.009497869018204596614 402.25946449139621564 16.009497869018204596614 76.33022374365954477
17.009497869018204596614 406.24144504046455495 17.009497869018204596614 76.87065071195237920
18.009497869018204596614 409.97864859820236916 18.009497869018204596614 77.26010004535054065
19.009497869018204596614 413.51753337112984354 19.009497869018204596614 77.63763931387504158
20.009497869018204596614 416.86586244941310042 20.009497869018204596614 77.99937145780745595
21.009497869018204596614 420.03341469525014418 21.009497869018204596614 78.43796405865829513
22.009497869018190385759 423.02676519696308333 22.009497869018190385759 78.83448880787184976
23.009497869018190385759 425.88633354880141724 23.009497869018190385759 79.08712942878931074
24.009497869018190385759 428.62594438048660095 24.009497869018190385759 79.34741143340514213
25.009497869018190385759 431.24344214940214215 25.009497869018190385759 79.69926918815097849
26.009497869018190385759 433.74330195254270848 26.009497869018190385759 79.92136708728224903
27.009497869018204596614 436.12539170443750436 27.009497869018204596614 80.19547990804991855
28.009497869018190385759 438.40350613115958822 28.009497869018190385759 80.38583986067935427
29.009497869018190385759 440.59812257662997581 29.009497869018190385759 80.31065852069448852
30.009497869018190385759 442.71393097652747883 30.009497869018190385759 80.29878916346814322
31.009497869018190385759 444.74790172288345502 31.009497869018190385759 80.33336300475251335
32.009497869018190385759 446.70121901597570968 32.009497869018190385759 80.42403742244086118
33.009497869018218807469 448.56496784001035394 33.009497869018218807469 80.38315838244301403
34.009497869018190385759 450.34864126842893484 34.009497869018190385759 80.45005099425594608
35.009497869018218807469 452.06563598952294569 35.009497869018218807469 80.47332419448491692
36.009497869018190385759 453.72714977637275524 36.009497869018190385759 80.42167129467101461
37.009497869018218807469 455.34382222424699194 37.009497869018218807469 80.36350054978834123
38.009497869018190385759 456.90974000919158016 38.009497869018190385759 80.40880916274336698
39.009497869018190385759 458.42504533232232689 39.009497869018190385759 80.58583547962473403
40.009497869018190385759 459.89041522507096715 40.009497869018190385759 80.79341271234713417
41.009497869018190385759 461.30854033832002870 41.009497869018190385759 80.94611705241614175
42.009497869018190385759 462.67957560038684051 42.009497869018190385759 81.14497891696953502
43.009497869018190385759 464.00722675245435767 43.009497869018190385759 81.26229565586059778
44.009497869018218807469 465.30210571962118138 44.009497869018218807469 81.32744999577252543
46.009497869018218807469 467.79950203264917263 46.009497869018218807469 81.49769089898980212
48.009497869018218807469 470.18132418560605856 48.009497869018218807469 81.63403734375950194
50.009497869018218807469 472.43556164692955690 50.009497869018218807469 81.93097775875956756
52.009497869018190385759 474.56730735956318767 52.009497869018190385759 82.02339189822970411
54.009497869018190385759 476.57876169212090645 54.009497869018190385759 81.99773879707794322
56.009497869018190385759 478.49790338081214713 56.009497869018190385759 81.76542982987608355
58.009497869018190385759 480.33793668499100704 58.009497869018190385759 80.86844189295604224
60.009497869018190385759 482.09763934392742613 60.009497869018190385759 80.25933258493211042
62.009497869018190385759 483.76609609604332718 62.009497869018190385759 79.66494667702153265
64.009497869018190385759 485.34135816096539884 64.009497869018190385759 79.08701212845919315
66.009497869018218807469 486.83106946463317399 66.009497869018218807469 78.53502253965919522
68.009497869018218807469 488.20375618064383616 68.009497869018218807469 77.76600446316778914
70.009497869018218807469 489.50092067996610012 70.009497869018218807469 77.26151148890390630
72.009497869018218807469 490.74030363913732344 72.009497869018218807469 76.87951619088499911
74.009497869018190385759 491.93305904794078742 74.009497869018190385759 76.37207925333844116
76.009497869018190385759 493.07440394876886103 76.009497869018190385759 75.87435088535725924
78.009497869018190385759 494.16258198206088537 78.009497869018190385759 75.75267081988738482
80.009497869018190385759 495.20885546756130680 80.009497869018190385759 75.38727111411566284
82.009497869018190385759 496.23970355460846804 82.009497869018190385759 75.06275034488244557
84.009497869018190385759 497.23641947942206798 84.009497869018190385759 75.01203210593828885
86.009497869018190385759 498.20198827176375289 86.009497869018190385759 74.96672723791868975
88.009497869018218807469 499.13455845810381106 88.009497869018218807469 74.86220753710055931
91.009497869018190385759 500.47408795597220887 91.009497869018190385759 74.56395150208828682
94.009497869018218807469 501.74338145961604596 94.009497869018218807469 74.08581332857536950
97.009497869018190385759 502.94618264820309150 97.009497869018190385759 72.61292253504512928
99.504748934509109403734 503.87168519395009980 99.504748934509109403734 75.18621945496147418
nan nan nan nan

