Time Pressure difference Time.1 Pressure.1 difference.1
(hr) (psi) (hr) (psi)
0.000200000000006639311 0.45429485656339236 0.000200000000006639311 0.36516166861234195
0.000399999999999067768 0.90178497494837428 0.000399999999999067768 0.92602560630327413
0.000600000000005707079 1.34376711383743630 0.000600000000005707079 1.34116085027664544
0.000799999999998135536 1.78084350095996347 0.000799999999998135536 1.75594848788120217
0.001007140329434719206 2.22877250477494160 0.001007140329434719206 2.18332403701307953
0.001267914553963578328 2.78629090586280537 0.001267914553963578328 2.71428732788511162
0.001596209851982166583 3.47873162817577297 0.001596209851982166583 3.36647448726255405
0.002009509145224797066 4.33658412413445404 0.002009509145224797066 4.16385284917037790
0.002529822128138903281 5.39621691691471650 0.002529822128138903281 5.13339601883416830
0.003184857364431081805 6.70053858861407825 0.003184857364431081805 6.30460813221716165
0.004009497869020606231 8.29950080239359700 0.004009497869020606231 7.70853171697682971
0.005047658755842121536 10.25030178131238046 0.005047658755842121536 9.37600933941020465
0.006354625877790454069 12.61708794539418399 0.006354625877790454069 11.33500009575113054
0.008000000000009777068 15.46992046174844759 0.008000000000009777068 13.60680261388688450
0.010071403294347192059 18.88273606360625223 0.010071403294347192059 16.20102729814942677
0.012679145539706837553 22.92999648149923786 0.012679145539706837553 19.10953426632990926
0.015962098519750611558 27.68185561004462869 0.015962098519750611558 22.29995154732019103
0.020095091452091651263 33.19782199079222096 0.020095091452091651263 25.70996115395220016
0.025298221281360611101 39.51929300919567822 0.025298221281360611101 29.24377724597926331
0.031848573644296607199 46.66159479421372680 0.031848573644296607199 32.77463488175356332
0.040094978690177640601 54.60766292643833708 0.040094978690177640601 36.15281599871419616
0.050476587558421215363 63.30378045549397115 0.050476587558421215363 39.22394612322401741
0.063546258777961384112 72.66168655842065505 0.063546258777961384112 41.85213016518816431
0.079999999999998294697 82.56497023062452456 0.079999999999998294697 43.94458626218969499
0.100714032943542974863 92.88251965464013438 0.100714032943542974863 45.47312423428885353
0.126791455396897845276 103.48479545020299497 0.126791455396897845276 46.47801726109484832
0.159620985197506115583 114.25904312101542359 0.159620985197506115583 47.05939563261043190
0.200950914520760193227 125.12157211760516873 0.200950914520760193227 47.35441036141466498
0.252982212813478213320 136.02241524449891585 0.252982212813478213320 47.50670192396973590
0.318485736442795541734 146.94350903617896620 0.318485736442795541734 47.64162898336108753
0.400949786901833249431 157.89190580997214397 0.400949786901833249431 47.85096977496333182
0.504765875584155310207 168.89086744332885814 0.504765875584155310207 48.18638668710132578
0.635462587779443310865 179.97002818101037747 0.635462587779443310865 48.67216566260854904
0.799999999999997157829 191.16227362058836547 0.799999999999997157829 49.30740334233964006
1.007140329435344483500 202.49485910998396321 1.007140329435344483500 50.07771753271075710
1.267914553968893187630 213.99155237991513445 1.267914553968893187630 50.97280381912658243
1.596209851975103788391 225.67166678282254111 1.596209851975103788391 51.98208662622857190
2.009509145207672986544 237.55002961491237556 2.009509145207672986544 53.10087235865734812
2.529822128134711078928 249.63857751130584006 2.529822128134711078928 54.33131767152568159
3.184857364427998049905 261.94645439973675138 3.184857364427998049905 55.67884645106610719
4.009497869018190385759 274.47959910807952610 4.009497869018190385759 57.14011553036916524
5.009497869018204596614 286.81153555440636183 5.009497869018204596614 58.63525793909332151
6.009497869018204596614 297.03477423593278672 6.009497869018204596614 59.91537098930631089
7.009497869018204596614 305.77458162623150884 7.009497869018204596614 61.03118770788671554
8.009497869018204596614 313.40610378629827437 8.009497869018204596614 62.01787378380474536
9.009497869018204596614 320.17874180613853241 9.009497869018204596614 62.89508510563570809
10.009497869018190385759 326.26201927354168220 10.009497869018190385759 63.67177982365350886
11.009497869018190385759 331.77842193385652081 11.009497869018190385759 64.38600296976703419
12.009497869018190385759 336.82214825733996122 12.009497869018190385759 65.00502534039198110
13.009497869018190385759 341.46825901101857426 13.009497869018190385759 65.59487053017879532
14.009497869018190385759 345.76094343713043600 14.009497869018190385759 66.17165978040566188
15.009497869018190385759 349.76022657761268420 15.009497869018190385759 66.65013615171714889
16.009497869018204596614 353.50074152274208927 16.009497869018204596614 67.07807541109475835
17.009497869018204596614 357.00005776283245496 17.009497869018204596614 67.55299608020057178
18.009497869018204596614 360.28426694993538604 18.009497869018204596614 67.89523943379289506
19.009497869018204596614 363.39419599281103501 19.009497869018204596614 68.22701636673868109
20.009497869018204596614 366.33666700099939817 20.009497869018204596614 68.54490219019443487
21.009497869018204596614 369.12027352006828096 21.009497869018204596614 68.93033205154819143
22.009497869018190385759 371.75079365793726538 22.009497869018190385759 69.27879319479647791
23.009497869018190385759 374.26374766409827544 23.009497869018190385759 69.50081071014820111
24.009497869018190385759 376.67128445557909799 24.009497869018190385759 69.72954338087117776
25.009497869018190385759 378.97150976765647101 25.009497869018190385759 70.03875171079934603
26.009497869018190385759 381.16835626132541393 26.009497869018190385759 70.23392865246015049
27.009497869018204596614 383.26170786147537228 27.009497869018204596614 70.47481567677112935
28.009497869018190385759 385.26368720617057306 28.009497869018190385759 70.64210169574852216
29.009497869018190385759 387.19228953703844809 29.009497869018190385759 70.57603324545878820
30.009497869018190385759 389.05163631270596625 30.009497869018190385759 70.56560259819927694
31.009497869018190385759 390.83906515041269358 31.009497869018190385759 70.59598567084310616
32.009497869018190385759 392.55561671100900867 32.009497869018190385759 70.67566925002378753
33.009497869018218807469 394.19345658667577936 33.009497869018218807469 70.63974524517718123
34.009497869018190385759 395.76092717528604226 34.009497869018190385759 70.69852966161886343
35.009497869018218807469 397.26980132412620605 35.009497869018218807469 70.71898186788070007
36.009497869018190385759 398.72991950044877285 36.009497869018190385759 70.67358992561997866
37.009497869018218807469 400.15063165161097913 37.009497869018218807469 70.62247018011701982
38.009497869018190385759 401.52674122019863034 38.009497869018190385759 70.66228683998659221
39.009497869018190385759 402.85837317082871323 39.009497869018190385759 70.81785542148840307
40.009497869018190385759 404.14612247051690019 40.009497869018190385759 71.00027177751718455
41.009497869018190385759 405.39235363064489093 41.009497869018190385759 71.13446650060812715
42.009497869018190385759 406.59720280033991457 42.009497869018190385759 71.30922389673079920
43.009497869018190385759 407.76392654003564076 43.009497869018190385759 71.41232042484719500
44.009497869018218807469 408.90185048087920450 44.009497869018218807469 71.46957726901221974
46.009497869018218807469 411.09653208929773882 46.009497869018218807469 71.61918291123345170
48.009497869018218807469 413.18964852674474741 48.009497869018218807469 71.73900251421288488
50.009497869018218807469 415.17064508366536302 50.009497869018218807469 71.99995015163719358
52.009497869018190385759 417.04399737658582126 52.009497869018190385759 72.08116257723216336
54.009497869018190385759 418.81163906277288334 54.009497869018190385759 72.05861894288668168
56.009497869018190385759 420.49815751647133766 56.009497869018190385759 71.85446863837596254
58.009497869018190385759 422.11515648074970386 58.009497869018190385759 71.06620651199166616
60.009497869018190385759 423.66156184769380388 60.009497869018190385759 70.53092863524335598
62.009497869018190385759 425.12778141773503648 62.009497869018190385759 70.00858950404924030
64.009497869018190385759 426.51210262630291936 64.009497869018190385759 69.50070762803989055
66.009497869018218807469 427.82124286285949211 66.009497869018218807469 69.01562586818533873
68.009497869018218807469 429.02754331026272894 68.009497869018218807469 68.33982210399594237
70.009497869018218807469 430.16747574906111140 70.009497869018218807469 67.89647979327919813
72.009497869018218807469 431.25663047075710210 72.009497869018218807469 67.56078695562621306
74.009497869018190385759 432.30480946637220541 74.009497869018190385759 67.11485752566105134
76.009497869018190385759 433.30780953073622186 76.009497869018190385759 66.67745986895032217
78.009497869018190385759 434.26408719635657008 78.009497869018190385759 66.57052890232527886
80.009497869018190385759 435.18353965331147037 80.009497869018190385759 66.24942006998043098
82.009497869018190385759 436.08943645708012582 82.009497869018190385759 65.96423515156335782
84.009497869018190385759 436.96533833040120953 84.009497869018190385759 65.91966457794575263
86.009497869018190385759 437.81386848124697053 86.009497869018190385759 65.87985120908005854
88.009497869018218807469 438.63339985712150337 88.009497869018218807469 65.78800056290656073
91.009497869018190385759 439.81056214312712882 91.009497869018190385759 65.52589677456242612
94.009497869018218807469 440.92600188875348977 94.009497869018218807469 65.10571474329350394
97.009497869018190385759 441.98300899387538720 97.009497869018190385759 63.81135616716088066
99.504748934509109403734 442.79632941286530468 99.504748934509109403734 66.07273830890554223
nan nan nan nan

