Time Pressure difference Time.1 Pressure.1 difference.1
(hr) (psi) (hr) (psi)
0.000200000000006639311 0.71071173567630530 0.000200000000006639311 0.57126925289262920
0.000399999999999067768 1.41077794628947117 0.000399999999999067768 1.44870067628570287
0.000600000000005707079 2.10222731783642480 0.000600000000005707079 2.09815000533297358
0.000799999999998135536 2.78600199242738400 0.000799999999998135536 2.74705552913538353
0.001007140329434719206 3.48675480783303016 0.001007140329434719206 3.41565393812209539
0.001267914553963578328 4.35895237904489719 0.001267914553963578328 4.24630794307979365
0.001596209851982166583 5.44222624952362288 0.001596209851982166583 5.26660800003688134
0.002009509145224797066 6.78427498185825595 0.002009509145224797066 6.51404928490901192
0.002529822128138903281 8.44199452337656098 0.002529822128138903281 8.03083006939211153
0.003184857364431081805 10.48251227474652403 0.003184857364431081805 9.86310745911287334
0.004009497869020606231 12.98397403205676959 0.004009497869020606231 12.05944526321965071
0.005047658755842121536 16.03586231486618985 0.005047658755842121536 14.66809446564717945
0.006354625877790454069 19.73852959878364288 0.006354625877790454069 17.73279506812608730
0.008000000000009777068 24.20158155721807702 0.008000000000009777068 21.28686724713338663
0.010071403294347192059 29.54068690894481009 0.010071403294347192059 25.34534579129729082
0.012679145539706837553 35.87233569337993799 0.012679145539706837553 29.89549643843263738
0.015962098519750611558 43.30627864947090444 0.015962098519750611558 34.88667556041743012
0.020095091452091651263 51.93561262443355986 0.020095091452091651263 40.22139113376913855
0.025298221281360611101 61.82510086012101880 0.025298221281360611101 45.74979307810185958
0.031848573644296607199 72.99871998659206440 0.031848573644296607199 51.27356672971247065
0.040094978690177640601 85.42977394299427374 0.040094978690177640601 56.55848891268900047
0.050476587558421215363 99.03422641131724902 0.050476587558421215363 61.36305182979872797
0.063546258777961384112 113.67399966126788513 0.063546258777961384112 65.47465735461378245
0.079999999999998294697 129.16697702141260606 0.079999999999998294697 68.74815491471417772
0.100714032943542974863 145.30804345244973774 0.100714032943542974863 71.13944299447730657
0.126791455396897845276 161.89454388035386501 0.126791455396897845276 72.71152609630446761
0.159620985197506115583 178.75008197879364502 0.159620985197506115583 73.62105088078075710
0.200950914520760193227 195.74372988271443319 0.200950914520760193227 74.08258027502620280
0.252982212813478213320 212.79731749683858766 0.252982212813478213320 74.32082950719039616
0.318485736442795541734 229.88258582429446619 0.318485736442795541734 74.53191321897868704
0.400949786901833249431 247.01056770997453782 0.400949786901833249431 74.85941188025117299
0.504765875584155310207 264.21765469355625555 0.504765875584155310207 75.38414759397703335
0.635462587779443310865 281.55020742655347021 0.635462587779443310865 76.14411397671247528
0.799999999999997157829 299.05967306886964252 0.799999999999997157829 77.13789778783443296
1.007140329435344483500 316.78869065845037767 1.007140329435344483500 78.34299911650938952
1.267914553968893187630 334.77444310614674805 1.267914553968893187630 79.74329744480421311
1.596209851975103788391 353.04714476731948025 1.596209851975103788391 81.32224804321057832
2.009509145207672986544 371.62999188394638850 2.009509145207672986544 83.07250811826249048
2.529822128134711078928 390.54165846596305300 2.529822128134711078928 84.99745160227793406
3.184857364427998049905 409.79644953280046593 3.184857364427998049905 87.10556377644098802
4.009497869018190385759 429.40365595492653483 4.009497869018190385759 89.39161449578624286
5.009497869018204596614 448.69608647531453016 5.009497869018204596614 91.73065761070498070
6.009497869018204596614 464.68961051066077061 6.009497869018204596614 93.73330270922330953
7.009497869018204596614 478.36241263486664366 7.009497869018204596614 95.47891797495162791
8.009497869018204596614 490.30138196694940689 8.009497869018204596614 97.02251760733156516
9.009497869018204596614 500.89668863319684533 9.009497869018204596614 98.39485183495096976
10.009497869018190385759 510.41354013392538036 10.009497869018190385759 99.60993504172290613
11.009497869018190385759 519.04355663699516299 11.009497869018190385759 100.72728595270267249
12.009497869018190385759 526.93410489623772719 12.009497869018190385759 101.69570207516858318
13.009497869018190385759 534.20261210072237645 13.009497869018190385759 102.61847258986229292
14.009497869018190385759 540.91820915209882514 14.009497869018190385759 103.52081802306656755
15.009497869018190385759 547.17480092541222803 15.009497869018190385759 104.26936000504571211
16.009497869018204596614 553.02656840762927004 16.009497869018204596614 104.93884029830068982
17.009497869018204596614 558.50099780682683104 17.009497869018204596614 105.68181963907966292
18.009497869018204596614 563.63890764218569984 18.009497869018204596614 106.21723483108799257
19.009497869018204596614 568.50416868566810535 19.009497869018204596614 106.73627605830986909
20.009497869018204596614 573.10745363858700330 20.009497869018204596614 107.23358564055826037
21.009497869018204596614 577.46220648693076782 21.009497869018204596614 107.83656302801188076
22.009497869018190385759 581.57746666631931021 22.009497869018190385759 108.38170550619702226
23.009497869018190385759 585.50880306071269388 23.009497869018190385759 108.72903599300859412
24.009497869018190385759 589.27522177987145824 24.009497869018190385759 109.08687185900356553
25.009497869018190385759 592.87375938243178553 25.009497869018190385759 109.57060612469879857
26.009497869018190385759 596.31056823459618954 26.009497869018190385759 109.87594645811371663
27.009497869018204596614 599.58546674517560859 27.009497869018204596614 110.25279693897770983
28.009497869018190385759 602.71741991237570346 28.009497869018190385759 110.51450392329444128
29.009497869018190385759 605.73458000168261606 29.009497869018190385759 110.41114456912065123
30.009497869018190385759 608.64339473965981142 30.009497869018190385759 110.39482656923370030
31.009497869018190385759 611.43969901933894562 31.009497869018190385759 110.44235870828812551
32.009497869018190385759 614.12512088001767552 32.009497869018190385759 110.56701795557260937
33.009497869018218807469 616.68740395229497153 33.009497869018218807469 110.51081742530442398
34.009497869018190385759 619.13959931959448113 34.009497869018190385759 110.60278143069956514
35.009497869018218807469 621.50012475752600949 35.009497869018218807469 110.63477744122170066
36.009497869018190385759 623.78437497166396497 36.009497869018190385759 110.56376500160511966
37.009497869018218807469 626.00697728437148726 37.009497869018218807469 110.48379182442990043
38.009497869018190385759 628.15980205410392045 38.009497869018190385759 110.54608213442550380
39.009497869018190385759 630.24304477904604482 39.009497869018190385759 110.78945802780943097
40.009497869018190385759 632.25763624244200400 40.009497869018190385759 111.07483533978185619
41.009497869018190385759 634.20727555284190657 41.009497869018190385759 111.28477336392776920
42.009497869018190385759 636.09217570579494350 42.009497869018190385759 111.55816878218139721
43.009497869018190385759 637.91743135664387410 43.009497869018190385759 111.71945590965206918
44.009497869018218807469 639.69763178678385884 44.009497869018218807469 111.80903013772874033
46.009497869018218807469 643.13105383116987923 46.009497869018218807469 112.04307744007846281
48.009497869018218807469 646.40558444655891890 48.009497869018218807469 112.23052661933124341
50.009497869018218807469 649.50471154649653727 50.009497869018218807469 112.63876049130900014
52.009497869018190385759 652.43543691219053926 52.009497869018190385759 112.76581150920894459
54.009497869018190385759 655.20078561181537680 54.009497869018190385759 112.73054360937989316
56.009497869018190385759 657.83922282976084261 56.009497869018190385759 112.41116509306728233
58.009497869018190385759 660.36890179021099812 58.009497869018190385759 111.17798550514849865
60.009497869018190385759 662.78814212833401598 60.009497869018190385759 110.34058163989070067
62.009497869018190385759 665.08193753554917294 62.009497869018190385759 109.52341951450171109
64.009497869018190385759 667.24760882735586165 64.009497869018190385759 108.72887472843991929
66.009497869018218807469 669.29566487801241692 66.009497869018218807469 107.96999908961119274
68.009497869018218807469 671.18283545090105235 68.009497869018218807469 106.91275254744917333
70.009497869018218807469 672.96617803210654074 70.009497869018218807469 106.21917528458560298
72.009497869018218807469 674.67008251505012595 72.009497869018218807469 105.69400790517204314
74.009497869018190385759 676.30988341200156810 74.009497869018190385759 104.99638327970930618
76.009497869018190385759 677.87900510979056889 76.009497869018190385759 104.31210600187873183
78.009497869018190385759 679.37503296417310139 78.009497869018190385759 104.14482017024390359
80.009497869018190385759 680.81345041951806252 80.009497869018190385759 103.64246842163908013
82.009497869018190385759 682.23066102722873438 82.009497869018190385759 103.19631706106645197
84.009497869018190385759 683.60094671652598208 84.009497869018190385759 103.12658959380988222
86.009497869018190385759 684.92841130823023832 86.009497869018190385759 103.06430443235393568
88.009497869018218807469 686.21050939535166435 88.009497869018218807469 102.92061068098993815
91.009497869018190385759 688.05209540358555387 91.009497869018190385759 102.51056809378006562
94.009497869018218807469 689.79712092215152097 94.009497869018218807469 101.85322342780219174
97.009497869018190385759 691.45073276355833514 97.009497869018190385759 99.82829222521355916
99.504748934509109403734 692.72311425388352291 99.504748934509109403734 103.36606247237128287
nan nan nan nan

