Time Pressure difference Time.1 Pressure.1 difference.1
(hr) (psi) (hr) (psi)
0.000200000000006639311 0.71813215983069822 0.000200000000006639311 0.57723378105508127
0.000399999999999067768 1.42550764642474403 0.000399999999999067768 1.46382632139773450
0.000600000000005707079 2.12417632695536662 0.000600000000005707079 2.12005644390373549
0.000799999999998135536 2.81509018028335412 0.000799999999998135536 2.77573708338389702
0.001007140329434719206 3.52315944039741202 0.001007140329434719206 3.45131621821849821
0.001267914553963578328 4.40446348277042343 0.001267914553963578328 4.29064294480568442
0.001596209851982166583 5.49904763727966994 0.001596209851982166583 5.32159578658018972
0.002009509145224797066 6.85510847934865541 0.002009509145224797066 6.58206140041270249
0.002529822128138903281 8.53013599751854379 0.002529822128138903281 8.11467864320247045
0.003184857364431081805 10.59195845858958585 0.003184857364431081805 9.96608653931242827
0.004009497869020606231 13.11953756603415933 0.004009497869020606231 12.18535594462217553
0.005047658755842121536 16.20329011165713595 0.005047658755842121536 14.82124162364117659
0.006354625877790454069 19.94461633473381923 0.006354625877790454069 17.91794026025269559
0.008000000000009777068 24.45426628345353492 0.008000000000009777068 21.50911992140739670
0.010071403294347192059 29.84911635462984947 0.010071403294347192059 25.60997237148484729
0.012679145539706837553 36.24687284099063334 0.012679145539706837553 30.20763039196615196
0.015962098519750611558 43.75843237086909454 0.015962098519750611558 35.25092159295079597
0.020095091452091651263 52.47786380032672326 0.020095091452091651263 40.64133605279921113
0.025298221281360611101 62.47060655355615211 0.025298221281360611101 46.22745913112148486
0.031848573644296607199 73.76088759666089345 0.031848573644296607199 51.80890559347977842
0.040094978690177640601 86.32173213961486624 0.040094978690177640601 57.14900677836672571
0.050476587558421215363 100.06822645505489788 0.050476587558421215363 62.00373334542308612
0.063546258777961384112 114.86085116585189780 0.063546258777961384112 66.15826746620487597
0.079999999999998294697 130.51558815040647232 0.079999999999998294697 69.46594307507662336
0.100714032943542974863 146.82518079708086134 0.100714032943542974863 71.88219819975607550
0.126791455396897845276 163.58485814360582822 0.126791455396897845276 73.47069516227516317
0.159620985197506115583 180.61638213866504543 0.159620985197506115583 74.38971614519725506
0.200950914520760193227 197.78745792093303635 0.200950914520760193227 74.85606429181882504
0.252982212813478213320 215.01909923404454617 0.252982212813478213320 75.09680104496848685
0.318485736442795541734 232.28275203359686429 0.318485736442795541734 75.31008864701907157
0.400949786901833249431 249.58956435659843009 0.400949786901833249431 75.64100666786400495
0.504765875584155310207 266.97630770079751983 0.504765875584155310207 76.17122106073549048
0.635462587779443310865 284.48982676163353744 0.635462587779443310865 76.93912212728139366
0.799999999999997157829 302.18210585033114057 0.799999999999997157829 77.94328187146611242
1.007140329435344483500 320.09622919200728575 1.007140329435344483500 79.16096546459358763
1.267914553968893187630 338.26976791815985735 1.267914553968893187630 80.57588407705854650
1.596209851975103788391 356.73325184725666759 1.596209851975103788391 82.17132023855731404
2.009509145207672986544 375.51011940941680223 2.009509145207672986544 83.93985449072695815
2.529822128134711078928 394.61923958683735236 2.529822128134711078928 85.88489599255692042
3.184857364427998049905 414.07506675530072471 3.184857364427998049905 88.01501861865440901
4.009497869018190385759 433.88698878972280681 4.009497869018190385759 90.32493761697193690
5.009497869018204596614 453.38084839907077139 5.009497869018204596614 92.68840229573554268
6.009497869018204596614 469.54135818420598980 6.009497869018204596614 94.71195668182541283
7.009497869018204596614 483.35691578302652260 7.009497869018204596614 96.47579762898244837
8.009497869018204596614 495.42053792716114913 8.009497869018204596614 98.03551373084198417
9.009497869018204596614 506.12646844491234788 9.009497869018204596614 99.42217627406297709
10.009497869018190385759 515.74268382441891845 10.009497869018190385759 100.64994596443230535
11.009497869018190385759 524.46280490814706354 11.009497869018190385759 101.77896295220885747
12.009497869018190385759 532.43573708192934646 12.009497869018190385759 102.75749014787915314
13.009497869018190385759 539.78013357277177420 13.009497869018190385759 103.68989515750587316
14.009497869018190385759 546.56584706667979390 14.009497869018190385759 104.60166183073198454
15.009497869018190385759 552.88776288403028047 15.009497869018190385759 105.35801921623527733
16.009497869018204596614 558.80062770654876658 16.009497869018204596614 106.03448944294652279
17.009497869018204596614 564.33221472128332152 17.009497869018204596614 106.78522610862921738
18.009497869018204596614 569.52376862684889147 18.009497869018204596614 107.32623148245664879
19.009497869018204596614 574.43982705941630229 19.009497869018204596614 107.85069193362863871
20.009497869018204596614 579.09117415221498959 20.009497869018204596614 108.35319384330190928
21.009497869018204596614 583.49139425767600642 21.009497869018204596614 108.96246681832755598
22.009497869018190385759 587.64962119067763524 22.009497869018190385759 109.51330103932437510
23.009497869018190385759 591.62200402074336125 23.009497869018190385759 109.86425794653189314
24.009497869018190385759 595.42774729729478622 24.009497869018190385759 110.22582991785625950
25.009497869018190385759 599.06385663816467968 25.009497869018190385759 110.71461477333254209
26.009497869018190385759 602.53654864539817027 26.009497869018190385759 111.02314311486895804
27.009497869018204596614 605.84563983184227709 27.009497869018204596614 111.40392822952387064
28.009497869018190385759 609.01029320612440188 28.009497869018190385759 111.66836765335203552
29.009497869018190385759 612.05895496689743140 29.009497869018190385759 111.56392914118804072
30.009497869018190385759 614.99814016037555575 30.009497869018190385759 111.54744076775239137
31.009497869018190385759 617.82364019239469144 31.009497869018190385759 111.59546918204055999
32.009497869018190385759 620.53710010034262723 32.009497869018190385759 111.72142997599040370
33.009497869018218807469 623.12613554808467597 33.009497869018218807469 111.66464266524380378
34.009497869018190385759 625.60393388325610431 34.009497869018190385759 111.75756685166975046
35.009497869018218807469 627.98910517842818990 35.009497869018218807469 111.78989692726693761
36.009497869018190385759 630.29720487276028962 36.009497869018190385759 111.71814305846642412
37.009497869018218807469 632.54301301007831171 37.009497869018218807469 111.63733489452256720
38.009497869018190385759 634.71831506858984540 38.009497869018190385759 111.70027556738352814
39.009497869018190385759 636.82330858764396453 39.009497869018190385759 111.94619250837821767
40.009497869018190385759 638.85893406863931432 40.009497869018190385759 112.23454939785382578
41.009497869018190385759 640.82892924190866779 41.009497869018190385759 112.44667935032609307
42.009497869018190385759 642.73350932685320913 42.009497869018190385759 112.72292924510439605
43.009497869018190385759 644.57782217127237345 43.009497869018190385759 112.88590034490366065
44.009497869018218807469 646.37660938084536610 44.009497869018218807469 112.97640980273983757
46.009497869018218807469 649.84587921919842302 46.009497869018218807469 113.21290075441804390
48.009497869018218807469 653.15459866931871602 48.009497869018218807469 113.40230705967229596
50.009497869018218807469 656.28608324477784208 50.009497869018218807469 113.81480323425770962
52.009497869018190385759 659.24740783122729226 52.009497869018190385759 113.94318077090602515
54.009497869018190385759 662.04162908108014562 54.009497869018190385759 113.90754464474464669
56.009497869018190385759 664.70761378738018266 56.009497869018190385759 113.58483154995546727
58.009497869018190385759 667.26370470913423105 58.009497869018190385759 112.33877653710480615
60.009497869018190385759 669.70820393709857399 60.009497869018190385759 111.49262947603804719
62.009497869018190385759 672.02594848429623653 62.009497869018190385759 110.66693549551159492
64.009497869018190385759 674.21423119330279405 64.009497869018190385759 109.86409499822640612
66.009497869018218807469 676.28367065980148709 66.009497869018218807469 109.09729606386468959
68.009497869018218807469 678.19054486976199314 68.009497869018218807469 108.02901098471953389
70.009497869018218807469 679.99250703708207766 70.009497869018218807469 107.32819219590957971
72.009497869018218807469 681.71420170604255873 72.009497869018218807469 106.79754163040006176
74.009497869018190385759 683.37112349402946165 74.009497869018190385759 106.09263322114478001
76.009497869018190385759 684.95662813297872162 76.009497869018190385759 105.40121151697955781
78.009497869018190385759 686.46827576774330737 78.009497869018190385759 105.23217908153415578
80.009497869018190385759 687.92171150278454661 80.009497869018190385759 104.72458236107615903
82.009497869018190385759 689.35371897298864496 82.009497869018190385759 104.27377280764372358
84.009497869018190385759 690.73831158943642095 84.009497869018190385759 104.20331732738794983
86.009497869018190385759 692.07963602026518402 86.009497869018190385759 104.14038185682164794
88.009497869018218807469 693.37512028231003569 88.009497869018218807469 103.99518782267080041
91.009497869018190385759 695.23593398668560894 91.009497869018190385759 103.58086404835549388
94.009497869018218807469 696.99917902922732083 94.009497869018218807469 102.91665615500662057
97.009497869018190385759 698.67005595946557150 97.009497869018190385759 100.87058297930512651
99.504748934509109403734 699.95572217532787818 99.504748934509109403734 104.44529050282527294
nan nan nan nan

