Time Pressure difference Time.1 Pressure.1 difference.1
(hr) (psi) (hr) (psi)
0.000200000000006639311 0.39905392119180016 0.000200000000006639311 0.32075907006964333
0.000399999999999067768 0.79213054060800936 0.000399999999999067768 0.81342358158037142
0.000600000000005707079 1.18036893484086969 0.000600000000005707079 1.17807958536097357
0.000799999999998135536 1.56429810247662848 0.000799999999998135536 1.54243025069782558
0.001007140329434719206 1.95776024012898686 0.001007140329434719206 1.91783817407319512
0.001267914553963578328 2.44748602257277259 0.001267914553963578328 2.38423787059236680
0.001596209851982166583 3.05572796376964462 0.001596209851982166583 2.95712096521792445
0.002009509145224797066 3.80926808726148014 0.002009509145224797066 3.65754043375401583
0.002529822128138903281 4.74005260941328999 0.002529822128138903281 4.50918996935705607
0.003184857364431081805 5.88577255333795613 0.003184857364431081805 5.53798609073159032
0.004009497869020606231 7.29030560500635261 0.004009497869020606231 6.77119664431358537
0.005047658755842121536 9.00389484964644637 0.005047658755842121536 8.23591382989934395
0.006354625877790454069 11.08288668887619899 0.006354625877790454069 9.95669699880861536
0.008000000000009777068 13.58882305532894463 0.008000000000009777068 11.95225492762477870
0.010071403294347192059 16.58665019017318798 0.010071403294347192059 14.23102942341982491
0.012679145539706837553 20.14177549373073006 0.012679145539706837553 16.78587039002481873
0.015962098519750611558 24.31582235074700904 0.015962098519750611558 19.58834219401628474
0.020095091452091651263 29.16106323692093483 0.020095091452091651263 22.58370453450610427
0.025298221281360611101 34.71386173584520662 0.025298221281360611101 25.68781885127760845
0.031848573644296607199 40.98768036370134382 0.031848573644296607199 28.78933445148588888
0.040094978690177640601 47.96752968492950231 0.040094978690177640601 31.75673855422445158
0.050476587558421215363 55.60622457433590426 0.050476587558421215363 34.45442817357609044
0.063546258777961384112 63.82623646873974366 0.063546258777961384112 36.76303266778779033
0.079999999999998294697 72.52530960367018054 0.079999999999998294697 38.60105217949148937
0.100714032943542974863 81.58827497794160877 0.100714032943542974863 39.94372437276916088
0.126791455396897845276 90.90134482377177960 0.126791455396897845276 40.82642532553521875
0.159620985197506115583 100.36547526419504095 0.159620985197506115583 41.33710977528757269
0.200950914520760193227 109.90715227753339889 0.200950914520760193227 41.59625156973629601
0.252982212813478213320 119.48248453418779036 0.252982212813478213320 41.73002492051061552
0.318485736442795541734 129.07560503359459858 0.318485736442795541734 41.84854524128270015
0.400949786901833249431 138.69270855177225599 0.400949786901833249431 42.03243080051225888
0.504765875584155310207 148.35422838942136536 0.504765875584155310207 42.32706199012167758
0.635462587779443310865 158.08619535319243710 0.635462587779443310865 42.75377165281767589
0.799999999999997157829 167.91749624748598535 0.799999999999997157829 43.31176627530378909
1.007140329435344483500 177.87207224906029523 1.007140329435344483500 43.98841249697278499
1.267914553968893187630 187.97080100159516292 1.267914553968893187630 44.77465889012208322
1.596209851975103788391 198.23064740995661737 1.596209851975103788391 45.66121583864723732
2.009509145207672986544 208.66463581418798867 2.009509145207672986544 46.64396047475527496
2.529822128134711078928 219.28325138924139992 2.529822128134711078928 47.72478721055976081
3.184857364427998049905 230.09452618779050681 3.184857364427998049905 48.90846040347730650
4.009497869018190385759 241.10367689348544218 4.009497869018190385759 50.19204340598670200
5.009497869018204596614 251.93608567755478589 5.009497869018204596614 51.50538083942135614
6.009497869018204596614 260.91620822176315642 6.009497869018204596614 52.62983585993512747
7.009497869018204596614 268.59328041215252370 7.009497869018204596614 53.60997250565729644
8.009497869018204596614 275.29683163805509594 8.009497869018204596614 54.47668041989383170
9.009497869018204596614 281.24593654114528363 9.009497869018204596614 55.24722539224624995
10.009497869018190385759 286.58950513320172604 10.009497869018190385759 55.92947628792794035
11.009497869018190385759 291.43512924861448710 11.009497869018190385759 56.55685197344326554
12.009497869018190385759 295.86555309719153684 12.009497869018190385759 57.10060302132435339
13.009497869018190385759 299.94671027465153657 13.009497869018190385759 57.61872474883220008
14.009497869018190385759 303.71741673969353315 14.009497869018190385759 58.12537810111858505
15.009497869018190385759 307.23039866345646942 15.009497869018190385759 58.54567313508366766
16.009497869018204596614 310.51607785300762998 16.009497869018204596614 58.92157622317579069
17.009497869018204596614 313.58988739965684545 17.009497869018204596614 59.33874791799832593
18.009497869018204596614 316.47474628633165139 18.009497869018204596614 59.63937547360392699
19.009497869018204596614 319.20651698824053710 19.009497869018204596614 59.93080929492108311
20.009497869018204596614 321.79119206621362537 20.009497869018204596614 60.21004112532505559
21.009497869018204596614 324.23632011563165634 21.009497869018204596614 60.54860383475377006
22.009497869018190385759 326.54697664326977247 22.009497869018190385759 60.85469311484844468
23.009497869018190385759 328.75436273942563048 23.009497869018190385759 61.04971394503036208
24.009497869018190385759 330.86915004809492302 24.009497869018190385759 61.25063338718992867
25.009497869018190385759 332.88967464164375087 25.009497869018190385759 61.52224288208144998
26.009497869018190385759 334.81939098091010010 26.009497869018190385759 61.69368687439331467
27.009497869018204596614 336.65819710517979502 27.009497869018204596614 61.90528273603852227
28.009497869018190385759 338.41674157493019948 28.009497869018190385759 62.05222726087529139
29.009497869018190385759 340.11083146266173571 29.009497869018190385759 61.99419254229047738
30.009497869018190385759 341.74408706960019799 30.009497869018190385759 61.98503023144908752
31.009497869018190385759 343.31416975099773481 31.009497869018190385759 62.01171881068614766
32.009497869018190385759 344.82199362636720252 32.009497869018190385759 62.08171309802452953
33.009497869018218807469 346.26067692913085239 33.009497869018218807469 62.05015734785074244
34.009497869018190385759 347.63754764580477286 34.009497869018190385759 62.10179374995195190
35.009497869018218807469 348.96294707963170367 35.009497869018218807469 62.11975902732169885
36.009497869018190385759 350.24551912562105827 36.009497869018190385759 62.07988661343025427
37.009497869018218807469 351.49347680468190447 37.009497869018218807469 62.03498288053837229
38.009497869018190385759 352.70225544569177600 38.009497869018190385759 62.06995795018786310
39.009497869018190385759 353.87196481793301928 39.009497869018190385759 62.20660984392084458
40.009497869018190385759 355.00312754216002986 40.009497869018190385759 62.36684490075919740
41.009497869018190385759 356.09782061203651438 41.009497869018190385759 62.48472193519841511
42.009497869018190385759 357.15616362135125428 42.009497869018190385759 62.63822933941506932
43.009497869018190385759 358.18101714224548004 43.009497869018190385759 62.72878962908538369
44.009497869018218807469 359.18057283619884856 44.009497869018218807469 62.77908420726301131
46.009497869018218807469 361.10838753397479195 46.009497869018218807469 62.91049823781667527
48.009497869018218807469 362.94698709064323339 48.009497869018218807469 63.01574812500732747
50.009497869018218807469 364.68710021868247395 50.009497869018218807469 63.24496528746352197
52.009497869018190385759 366.33265831264526469 52.009497869018190385759 63.31630251793171027
54.009497869018190385759 367.88535990268979958 54.009497869018190385759 63.29650012406017368
56.009497869018190385759 369.36680260974975454 56.009497869018190385759 63.11717390376400516
58.009497869018190385759 370.78717919543169046 58.009497869018190385759 62.42476216298361180
60.009497869018190385759 372.14554616022468281 60.009497869018190385759 61.95457252170198359
62.009497869018190385759 373.43347768817380938 62.009497869018190385759 61.49574831208680337
64.009497869018190385759 374.64946945758731545 64.009497869018190385759 61.04962339740708899
66.009497869018218807469 375.79942204287476670 66.009497869018218807469 60.62352617096498619
68.009497869018218807469 376.85903985874261934 68.009497869018218807469 60.02989818209444195
70.009497869018218807469 377.86035982313171644 70.009497869018218807469 59.64046500897845959
72.009497869018218807469 378.81707649336919985 72.009497869018218807469 59.34559144559543853
74.009497869018190385759 379.73779996683151694 74.009497869018190385759 58.95388573941914956
76.009497869018190385759 380.61883813589173542 76.009497869018190385759 58.56967436764420398
78.009497869018190385759 381.45883521422246076 78.009497869018190385759 58.47574589605342510
80.009497869018190385759 382.26648492232800436 80.009497869018190385759 58.19368296528227091
82.009497869018190385759 383.06222730531175102 82.009497869018190385759 57.94317570482153457
84.009497869018190385759 383.83162205429067626 84.009497869018190385759 57.90402478353130533
86.009497869018190385759 384.57697340276507703 86.009497869018190385759 57.86905260470916801
88.009497869018218807469 385.29685214309768071 88.009497869018218807469 57.78837073039341732
91.009497869018190385759 386.33087491338210384 91.009497869018190385759 57.55813800161201499
94.009497869018218807469 387.31068042496673343 94.009497869018218807469 57.18904888521608143
97.009497869018190385759 388.23915853545497612 97.009497869018190385759 56.05208055336817097
99.504748934509109403734 388.95358155322469429 99.504748934509109403734 58.03848519330359323
nan nan nan nan

