Time Pressure difference Time.1 Pressure.1 difference.1
(hr) (psi) (hr) (psi)
0.000200000000006639311 0.17479221341459017 0.000200000000006639311 0.14049777449331485
0.000399999999999067768 0.34696626985309498 0.000399999999999067768 0.35629297375008007
0.000600000000005707079 0.51702110369062892 0.000600000000005707079 0.51601833077794712
0.000799999999998135536 0.68518842505174637 0.000799999999998135536 0.67560994452053524
0.001007140329434719206 0.85753134484988680 0.001007140329434719206 0.84004482004858971
0.001267914553963578328 1.07203933220129710 0.001267914553963578328 1.04433559620987970
0.001596209851982166583 1.33845935603133204 0.001596209851982166583 1.29526786079793355
0.002009509145224797066 1.66852238532940866 0.002009509145224797066 1.60206316519804015
0.002529822128138903281 2.07622139090003621 0.002529822128138903281 1.97509973864399968
0.003184857364431081805 2.57806566385877423 0.003184857364431081805 2.42572944470061369
0.004009497869020606231 3.19327435591187392 0.004009497869020606231 2.96589605081504182
0.005047658755842121536 3.94385476885340225 0.005047658755842121536 3.60746638830301869
0.006354625877790454069 4.85448755793750752 0.006354625877790454069 4.36119785898228596
0.008000000000009777068 5.95212910687962005 0.008000000000009777068 5.23528521623234067
0.010071403294347192059 7.26522694280313175 0.010071403294347192059 6.23342611108471623
0.012679145539706837553 8.82243058816304782 0.012679145539706837553 7.35248868323401172
0.015962098519750611558 10.65073210404620951 0.015962098519750611558 8.58001765523027160
0.020095091452091651263 12.77302769881660716 0.020095091452091651263 9.89203587048614530
0.025298221281360611101 15.20524522313880844 0.025298221281360611101 11.25168924890672173
0.031848573644296607199 17.95328148162125359 0.031848573644296607199 12.61020434651861244
0.040094978690177640601 21.01057085372945110 0.040094978690177640601 13.90997639151980003
0.050476587558421215363 24.35644547470911547 0.050476587558421215363 15.09160903470688098
0.063546258777961384112 27.95694655242319371 0.063546258777961384112 16.10281596192357512
0.079999999999998294697 31.76728437185553489 0.079999999999998294697 16.90789888853759493
0.100714032943542974863 35.73701300686698801 0.100714032943542974863 17.49601150212203038
0.126791455396897845276 39.81629153437937418 0.126791455396897845276 17.88264910953195752
0.159620985197506115583 43.96173709919286665 0.159620985197506115583 18.10633733958876945
0.200950914520760193227 48.14114934470470786 0.200950914520760193227 18.21984572889275711
0.252982212813478213320 52.33530314307398612 0.252982212813478213320 18.27844066766167686
0.318485736442795541734 56.53724848578936246 0.318485736442795541734 18.33035452717341229
0.400949786901833249431 60.74969878713991278 0.400949786901833249431 18.41089944154668956
0.504765875584155310207 64.98160417057299298 0.504765875584155310207 18.53995277253263652
0.635462587779443310865 69.24436655966280796 0.635462587779443310865 18.72685865784576009
0.799999999999997157829 73.55063885220459952 0.799999999999997157829 18.97126952554628687
1.007140329435344483500 77.91090767934046823 1.007140329435344483500 19.26765175487237514
1.267914553968893187630 82.33431779408714135 1.267914553968893187630 19.61204067087992087
1.596209851975103788391 86.82830010518760844 1.596209851975103788391 20.00036726816779975
2.009509145207672986544 91.39855948885920611 2.009509145207672986544 20.43082566249611176
2.529822128134711078928 96.04968862503963578 2.529822128134711078928 20.90424563768319999
3.184857364427998049905 100.78520568556113801 3.184857364427998049905 21.42271406102724995
4.009497869018190385759 105.60739566408867063 4.009497869018190385759 21.98494463237434005
5.009497869018204596614 110.35216975959012586 5.009497869018204596614 22.56020813627547383
6.009497869018204596614 114.28561186573095654 6.009497869018204596614 23.05273802129389793
7.009497869018204596614 117.64829637887672220 7.009497869018204596614 23.48205407272592282
8.009497869018204596614 120.58456261832166945 8.009497869018204596614 23.86168646491217160
9.009497869018204596614 123.19036889818760017 9.009497869018204596614 24.19919789908307095
10.009497869018190385759 125.53094026495614344 10.009497869018190385759 24.49803506826595623
11.009497869018190385759 127.65340372046749451 11.009497869018190385759 24.77283598836771006
12.009497869018190385759 129.59400259629049401 12.009497869018190385759 25.01100793496025432
13.009497869018190385759 131.38161689716145020 13.009497869018190385759 25.23795381560418249
14.009497869018190385759 133.03324865457648229 14.009497869018190385759 25.45987635834119445
15.009497869018190385759 134.57199280300159216 15.009497869018190385759 25.64397253024326062
16.009497869018204596614 136.01117459677192301 16.009497869018204596614 25.80862429610179376
17.009497869018204596614 137.35755398497366286 17.009497869018204596614 25.99135239383397789
18.009497869018204596614 138.62116986095520588 18.009497869018204596614 26.12303223223973347
19.009497869018204596614 139.81773058162602297 19.009497869018204596614 26.25068506306460847
20.009497869018204596614 140.94986098768035276 20.009497869018204596614 26.37299322018370162
21.009497869018204596614 142.02086748866511812 21.009497869018204596614 26.52128928299131871
22.009497869018190385759 143.03297324044046945 22.009497869018190385759 26.65536144699973420
23.009497869018190385759 143.99984483627736154 23.009497869018190385759 26.74078379410420681
24.009497869018190385759 144.92615663263660508 24.009497869018190385759 26.82878983075261559
25.009497869018190385759 145.81117980171174509 25.009497869018190385759 26.94775927892824186
26.009497869018190385759 146.65642745444824868 26.009497869018190385759 27.02285458134582896
27.009497869018204596614 147.46185493036804814 27.009497869018204596614 27.11553706619869430
28.009497869018190385759 148.23212647496944783 28.009497869018190385759 27.17990119691231854
29.009497869018190385759 148.97416584728156863 29.009497869018190385759 27.15448103092062482
30.009497869018190385759 149.68955879908105544 30.009497869018190385759 27.15046778732893884
31.009497869018190385759 150.37728096531307642 31.009497869018190385759 27.16215782616831120
32.009497869018190385759 151.03773274543357275 32.009497869018190385759 27.19281648095288872
33.009497869018218807469 151.66789981193332437 33.009497869018218807469 27.17899454079412891
34.009497869018190385759 152.27099194403018600 34.009497869018190385759 27.20161213840870928
35.009497869018218807469 152.85153880347505151 35.009497869018218807469 27.20948122684338699
36.009497869018190385759 153.41332655915633154 36.009497869018190385759 27.19201645051077065
37.009497869018218807469 153.95995264998461494 37.009497869018218807469 27.17234787329366696
38.009497869018190385759 154.48941767455917784 38.009497869018190385759 27.18766753190046970
39.009497869018190385759 155.00176971364007272 39.009497869018190385759 27.24752332006450217
40.009497869018190385759 155.49723768375605459 40.009497869018190385759 27.31770892347303459
41.009497869018190385759 155.97673134246227278 41.009497869018190385759 27.36934101293815047
42.009497869018190385759 156.44030307381501643 42.009497869018190385759 27.43657979329751484
43.009497869018190385759 156.88920585569431410 43.009497869018190385759 27.47624669703739997
44.009497869018218807469 157.32702777122759130 44.009497869018218807469 27.49827655359453971
46.009497869018218807469 158.17144247355918196 46.009497869018218807469 27.55583807110978611
48.009497869018218807469 158.97677946945532312 48.009497869018218807469 27.60193926136685150
50.009497869018218807469 159.73897778173696338 50.009497869018218807469 27.70234016723609116
52.009497869018190385759 160.45975942620000865 52.009497869018190385759 27.73358705330893059
54.009497869018190385759 161.13986838712858685 54.009497869018190385759 27.72491327748090129
56.009497869018190385759 161.78876477947716239 56.009497869018190385759 27.64636542892142401
58.009497869018190385759 162.41091320130479403 58.009497869018190385759 27.34307764163744991
60.009497869018190385759 163.00590038423067085 60.009497869018190385759 27.13712680702648328
62.009497869018190385759 163.57003568159677798 62.009497869018190385759 26.93615421934380905
64.009497869018190385759 164.10266017563742480 64.009497869018190385759 26.74074413274856354
66.009497869018218807469 164.60635841547406244 66.009497869018218807469 26.55410650463755928
68.009497869018218807469 165.07048853316823056 68.009497869018218807469 26.29408763347938205
70.009497869018218807469 165.50908322831386954 70.009497869018218807469 26.12350946674262886
72.009497869018218807469 165.92814094337657593 72.009497869018218807469 25.99434997203767139
74.009497869018190385759 166.33143304332287471 74.009497869018190385759 25.82277639825797522
76.009497869018190385759 166.71734232398563336 76.009497869018190385759 25.65448546681936293
78.009497869018190385759 167.08527492854372554 78.009497869018190385759 25.61334324372587901
80.009497869018190385759 167.43903885027589240 80.009497869018190385759 25.48979501785091273
82.009497869018190385759 167.78758716678945007 82.009497869018190385759 25.38006869715323788
84.009497869018190385759 168.12459478411079772 84.009497869018190385759 25.36291994650544979
86.009497869018190385759 168.45107099459954725 86.009497869018190385759 25.34760155412880778
88.009497869018218807469 168.76638978168739413 88.009497869018218807469 25.31226155959381074
91.009497869018190385759 169.21930884635744974 91.009497869018190385759 25.21141581888790384
94.009497869018218807469 169.64847985556397703 94.009497869018218807469 25.04974868525993514
97.009497869018190385759 170.05516861470343315 97.009497869018190385759 24.55173776304556199
99.504748934509109403734 170.36809770513147555 99.504748934509109403734 25.42181582847182142
nan nan nan nan

