Time Pressure difference Time.1 Pressure.1 difference.1
(hr) (psi) (hr) (psi)
0.000200000000006639311 0.27785366000338152 0.000200000000006639311 0.22333844341625994
0.000399999999999067768 0.55154543839855197 0.000399999999999067768 0.56637137808385374
0.000600000000005707079 0.82186845256482033 0.000600000000005707079 0.82027442203852918
0.000799999999998135536 1.08919103416244578 0.000799999999998135536 1.07396486463877538
0.001007140329434719206 1.36315124157741452 0.001007140329434719206 1.33535426583195638
0.001267914553963578328 1.70413799505583552 0.001267914553963578328 1.66009950906947856
0.001596209851982166583 2.12764529708754191 0.001596209851982166583 2.05898711834388548
0.002009509145224797066 2.65232096158495612 0.002009509145224797066 2.54667588052707350
0.002529822128138903281 3.30040853176090643 0.002529822128138903281 3.13966326378786675
0.003184857364431081805 4.09815155056795710 0.003184857364431081805 3.85599444747220232
0.004009497869020606231 5.07610121670896941 0.004009497869020606231 4.71465551473900391
0.005047658755842121536 6.26924083539432342 0.005047658755842121536 5.73451024933074205
0.006354625877790454069 7.71680333502330296 0.006354625877790454069 6.93265886074070892
0.008000000000009777068 9.46163919348316895 0.008000000000009777068 8.32212791448254130
0.010071403294347192059 11.54896924398422264 0.010071403294347192059 9.90879528035636525
0.012679145539706837553 14.02433541608937162 0.012679145539706837553 11.68768248231067020
0.015962098519750611558 16.93064490124326582 0.015962098519750611558 13.63899032930472544
0.020095091452091651263 20.30429403066602134 0.020095091452091651263 15.72460419034825918
0.025298221281360611101 24.17060207640461655 0.025298221281360611101 17.88593998529040263
0.031848573644296607199 28.53894273257717629 0.031848573644296607199 20.04546634328666244
0.040094978690177640601 33.39887914012653169 0.040094978690177640601 22.11161341482156928
0.050476587558421215363 38.71755719328760392 0.050476587558421215363 23.98996341837838742
0.063546258777961384112 44.44099522720101447 0.063546258777961384112 25.59740084513322955
0.079999999999998294697 50.49799449677035312 0.079999999999998294697 26.87717889357155343
0.100714032943542974863 56.80836501563289431 0.100714032943542974863 27.81205601988265741
0.126791455396897845276 63.29287852398986303 0.126791455396897845276 28.42666391468051756
0.159620985197506115583 69.88257265296223864 0.159620985197506115583 28.78224378981799703
0.200950914520760193227 76.52626098662965148 0.200950914520760193227 28.96267929545687991
0.252982212813478213320 83.19338282649025018 0.252982212813478213320 29.05582313680181628
0.318485736442795541734 89.87289028165574223 0.318485736442795541734 29.13834658328981320
0.400949786901833249431 96.56909665691580358 0.400949786901833249431 29.26638260283601412
0.504765875584155310207 103.29622927114670006 0.504765875584155310207 29.47152869973347933
0.635462587779443310865 110.07241288021870673 0.635462587779443310865 29.76863852685858802
0.799999999999997157829 116.91776081694787592 0.799999999999997157829 30.15715957598631647
1.007140329435344483500 123.84894286763082505 1.007140329435344483500 30.62829547826411059
1.267914553968893187630 130.88049573871396092 1.267914553968893187630 31.17574389663458945
1.596209851975103788391 138.02423177098219753 1.596209851975103788391 31.79303664798371898
2.009509145207672986544 145.28921956483750932 2.009509145207672986544 32.47730305783579752
2.529822128134711078928 152.68275974829413144 2.529822128134711078928 33.22986216933603743
3.184857364427998049905 160.21044488695329733 3.184857364427998049905 34.05403131399143035
4.009497869018190385759 167.87590725848059492 4.009497869018190385759 34.94776575995355472
5.009497869018204596614 175.41830758953713598 5.009497869018204596614 35.86221765058883904
6.009497869018204596614 181.67099622052515429 6.009497869018204596614 36.64515430743416857
7.009497869018204596614 187.01639565887481353 7.009497869018204596614 37.32760482315394057
8.009497869018204596614 191.68395095459624144 8.009497869018204596614 37.93107706922359057
9.009497869018204596614 195.82619961645860940 9.009497869018204596614 38.46759288674996924
10.009497869018190385759 199.54682485514251766 10.009497869018190385759 38.94263121700767982
11.009497869018190385759 202.92074081979973244 11.009497869018190385759 39.37946098150905527
12.009497869018190385759 206.00556073089572351 12.009497869018190385759 39.75806450038493267
13.009497869018190385759 208.84719289784621310 13.009497869018190385759 40.11882281065382472
14.009497869018190385759 211.47266413486926240 14.009497869018190385759 40.47159590924992045
15.009497869018190385759 213.91868667269594084 15.009497869018190385759 40.76423935232065077
16.009497869018204596614 216.20644263732143031 16.009497869018204596614 41.02597352729388547
17.009497869018204596614 218.34667779686850508 17.009497869018204596614 41.31644224868892223
18.009497869018204596614 220.35535020349951196 18.009497869018204596614 41.52576350124900983
19.009497869018204596614 222.25743021701870816 19.009497869018204596614 41.72868333138099928
20.009497869018204596614 224.05709034362394050 20.009497869018204596614 41.92310714717880415
21.009497869018204596614 225.75958652679312877 21.009497869018204596614 42.15884192626450755
22.009497869018190385759 227.36845274541718709 22.009497869018190385759 42.37196607376844781
23.009497869018190385759 228.90541372559184197 23.009497869018190385759 42.50775537081658939
24.009497869018190385759 230.37789993018176915 24.009497869018190385759 42.64765175926240914
25.009497869018190385759 231.78475279800403541 25.009497869018190385759 42.83676828773026557
26.009497869018190385759 233.12837760447669666 26.009497869018190385759 42.95614148072426985
27.009497869018204596614 234.40870335629256260 27.009497869018204596614 43.10347165711773698
28.009497869018190385759 235.63314444370141132 28.009497869018190385759 43.20578633660118584
29.009497869018190385759 236.81270703082023488 29.009497869018190385759 43.16537786518986053
30.009497869018190385759 237.94991186457698973 30.009497869018190385759 43.15899832231062305
31.009497869018190385759 239.04313059108727657 31.009497869018190385759 43.17758107272981505
32.009497869018190385759 240.09299969439206279 32.009497869018190385759 43.22631676453360683
33.009497869018218807469 241.09472753123367283 33.009497869018218807469 43.20434509550764801
34.009497869018190385759 242.05341643933101636 34.009497869018190385759 43.24029854077233637
35.009497869018218807469 242.97626687156173375 35.009497869018218807469 43.25280742191613825
36.009497869018190385759 243.86929740771549291 36.009497869018190385759 43.22504501802891497
37.009497869018218807469 244.73822661813593982 37.009497869018218807469 43.19377940235833080
38.009497869018190385759 245.57987620908701842 38.009497869018190385759 43.21813187853989291
39.009497869018190385759 246.39432261083356934 39.009497869018190385759 43.31327999463083955
40.009497869018190385759 247.18192971427262705 40.009497869018190385759 43.42484861891703929
41.009497869018190385759 247.94414369061220782 41.009497869018190385759 43.50692415735922935
42.009497869018190385759 248.68104781073424192 42.009497869018190385759 43.61380844500595089
43.009497869018190385759 249.39463383664610774 43.009497869018190385759 43.67686385330944887
44.009497869018218807469 250.09060546652688117 44.009497869018218807469 43.71188301208188420
46.009497869018218807469 251.43290619617667403 46.009497869018218807469 43.80338410360376855
48.009497869018218807469 252.71308811889832668 48.009497869018218807469 43.87666759943692085
50.009497869018218807469 253.92469581342146512 50.009497869018218807469 44.03626715263472846
52.009497869018190385759 255.07046663504431194 52.009497869018190385759 44.08593791021278463
54.009497869018190385759 256.15158323802990026 54.009497869018190385759 44.07214987976916376
56.009497869018190385759 257.18308363530098859 56.009497869018190385759 43.94728844125717160
58.009497869018190385759 258.17206485301750263 58.009497869018190385759 43.46517530769726534
60.009497869018190385759 259.11786995040438342 60.009497869018190385759 43.13779119796191708
62.009497869018190385759 260.01463219197222543 62.009497869018190385759 42.81832062225878843
64.009497869018190385759 260.86130414712175707 64.009497869018190385759 42.50769232422766208
66.009497869018218807469 261.66199427365449992 66.009497869018218807469 42.21100892482479594
68.009497869018218807469 262.39978601734765107 68.009497869018218807469 41.79767704001204010
70.009497869018218807469 263.09698607519709412 70.009497869018218807469 41.52652212402012566
72.009497869018218807469 263.76312970715997608 72.009497869018218807469 41.32120726687120538
74.009497869018190385759 264.40421196037647178 74.009497869018190385759 41.04847002930630850
76.009497869018190385759 265.01766209048662404 76.009497869018190385759 40.78095095433077688
78.009497869018190385759 265.60253608924170976 78.009497869018190385759 40.71555034497934855
80.009497869018190385759 266.16488722897634034 80.009497869018190385759 40.51915528781017883
82.009497869018190385759 266.71894752456626065 82.009497869018190385759 40.34473184405962343
84.009497869018190385759 267.25466246342136856 84.009497869018190385759 40.31747180175630518
86.009497869018190385759 267.77363643952855909 86.009497869018190385759 40.29312133840286236
88.009497869018218807469 268.27487432277672497 88.009497869018218807469 40.23694408293921754
91.009497869018190385759 268.99484472274747304 91.009497869018190385759 40.07663741021332271
94.009497869018218807469 269.67706467606160459 94.009497869018218807469 39.81964767421036555
97.009497869018190385759 270.32354633563704738 97.009497869018190385759 39.02799823653941047
99.504748934509109403734 270.82098550296842632 99.504748934509109403734 40.41109402922171512
nan nan nan nan

