Time Pressure difference Time.1 Pressure.1 difference.1
(hr) (psi) (hr) (psi)
0.000200000000006639311 0.11295534546131533 0.000200000000006639311 0.09079337313954780
0.000399999999999067768 0.22421876872582083 0.000399999999999067768 0.23024593114981590
0.000600000000005707079 0.33411269436611390 0.000600000000005707079 0.33346467602159791
0.000799999999998135536 0.44278685958532665 0.000799999999998135536 0.43659699244959110
0.001007140329434719206 0.55415940681337017 0.001007140329434719206 0.54285915257856976
0.001267914553963578328 0.69278013448857412 0.001267914553963578328 0.67487724849412034
0.001596209851982166583 0.86494779139760603 0.001596209851982166583 0.83703630627036285
0.002009509145224797066 1.07824323957608015 0.002009509145224797066 1.03529553600062019
0.002529822128138903281 1.34170910638351382 0.002529822128138903281 1.27636162355767890
0.003184857364431081805 1.66601413183326441 0.003184857364431081805 1.56757044303766091
0.004009497869020606231 2.06357823943361662 0.004009497869020606231 1.91664037246066354
0.005047658755842121536 2.54862312892884901 0.005047658755842121536 2.33124007168638459
0.006354625877790454069 3.13709809168603160 0.006354625877790454069 2.81832125792723209
0.008000000000009777068 3.84642305491748981 0.008000000000009777068 3.38317959728221984
0.010071403294347192059 4.69498156209447703 0.010071403294347192059 4.02820460952172699
0.012679145539706837553 5.70128769140725211 0.012679145539706837553 4.75137240378801717
0.015962098519750611558 6.88278442572797555 0.015962098519750611558 5.54463405078560090
0.020095091452091651263 8.25426789970695829 0.020095091452091651263 6.39249487856887644
0.025298221281360611101 9.82603111117932571 0.025298221281360611101 7.27113880707651372
0.031848573644296607199 11.60188473104769358 0.031848573644296607199 8.14904714845778244
0.040094978690177640601 13.57758588189120097 0.040094978690177640601 8.98899417753873919
0.050476587558421215363 15.73977844356202205 0.050476587558421215363 9.75259640450397391
0.063546258777961384112 18.06651734755649485 0.063546258777961384112 10.40606503199778210
0.079999999999998294697 20.52885829690664110 0.079999999999998294697 10.92633088551721876
0.100714032943542974863 23.09420180160743641 0.100714032943542974863 11.30638479146564990
0.126791455396897845276 25.73033934061308869 0.126791455396897845276 11.55624022644282078
0.159620985197506115583 28.40923576693123920 0.159620985197506115583 11.70079346945123255
0.200950914520760193227 31.11008235954974666 0.200950914520760193227 11.77414558895428165
0.252982212813478213320 33.82045533302422768 0.252982212813478213320 11.81201118617759249
0.318485736442795541734 36.53586340826954171 0.318485736442795541734 11.84555929350357317
0.400949786901833249431 39.25806006527437830 0.400949786901833249431 11.89760954477309696
0.504765875584155310207 41.99282911022877585 0.504765875584155310207 11.98100721621212728
0.635462587779443310865 44.74753876732926017 0.635462587779443310865 12.10179073643806014
0.799999999999997157829 47.53036567335863793 0.799999999999997157829 12.25973549528227302
1.007140329435344483500 50.34808656636624846 1.007140329435344483500 12.45126552083733884
1.267914553968893187630 53.20661102731101977 1.267914553968893187630 12.67381873542711901
1.596209851975103788391 56.11074110571086493 1.596209851975103788391 12.92476564027824715
2.009509145207672986544 59.06416344327222134 2.009509145207672986544 13.20293922529229746
2.529822128134711078928 62.06984595108693270 2.529822128134711078928 13.50887571869150428
3.184857364427998049905 65.13006216472582821 3.184857364427998049905 13.84392370924874172
4.009497869018190385759 68.24628870745351605 4.009497869018190385759 14.20725195582681444
5.009497869018204596614 71.31248706162192263 5.009497869018204596614 14.57900242768745080
6.009497869018204596614 73.85438125285443789 6.009497869018204596614 14.89728824960973697
7.009497869018204596614 76.02743681087787309 7.009497869018204596614 15.17472362246910933
8.009497869018204596614 77.92492961655692341 8.009497869018204596614 15.42005210232532164
9.009497869018204596614 79.60887046722501736 9.009497869018204596614 15.63816090648292523
10.009497869018190385759 81.12140951084428764 10.009497869018190385759 15.83127737902092314
11.009497869018190385759 82.49300146086812902 11.009497869018190385759 16.00886099248290861
12.009497869018190385759 83.74706771552735063 12.009497869018190385759 16.16277399570544659
13.009497869018190385759 84.90227129675054130 13.009497869018190385759 16.30943241857439929
14.009497869018190385759 85.96959936640084265 14.009497869018190385759 16.45284462779596169
15.009497869018190385759 86.96397648118500001 15.009497869018190385759 16.57181243699682227
16.009497869018204596614 87.89401377244223568 16.009497869018204596614 16.67821475738653447
17.009497869018204596614 88.76407969783674901 17.009497869018204596614 16.79629848092101341
18.009497869018204596614 89.58066165542858528 18.009497869018204596614 16.88139347083416908
19.009497869018204596614 90.35391080039039480 19.009497869018204596614 16.96388610207477043
20.009497869018204596614 91.08552337411418875 20.009497869018204596614 17.04292486398663797
21.009497869018204596614 91.77763606578830036 21.009497869018204596614 17.13875769702740826
22.009497869018190385759 92.43168553745445593 22.009497869018190385759 17.22539867093850674
23.009497869018190385759 93.05650350268867044 23.009497869018190385759 17.28060084807677299
24.009497869018190385759 93.65511065410950664 24.009497869018190385759 17.33747267364673661
25.009497869018190385759 94.22703600393636236 25.009497869018190385759 17.41435387364702336
26.009497869018190385759 94.77325736443117421 26.009497869018190385759 17.46288244171876869
27.009497869018204596614 95.29374587481329684 27.009497869018204596614 17.52277631164727012
28.009497869018190385759 95.79151569373023278 28.009497869018190385759 17.56437011309899887
29.009497869018190385759 96.27104113715839162 29.009497869018190385759 17.54794293035908126
30.009497869018190385759 96.73334695978350339 30.009497869018190385759 17.54534946633992476
31.009497869018190385759 97.17777118984852791 31.009497869018190385759 17.55290387823140819
32.009497869018190385759 97.60457257605848724 32.009497869018190385759 17.57271631080446284
33.009497869018218807469 98.01180318035314087 33.009497869018218807469 17.56378420796601603
34.009497869018190385759 98.40153724684971337 34.009497869018190385759 17.57840029699053375
35.009497869018218807469 98.77670196262302227 35.009497869018218807469 17.58348550979973623
36.009497869018190385759 99.13974405002083756 36.009497869018190385759 17.57219930999988478
37.009497869018218807469 99.49298826909384275 37.009497869018218807469 17.55948895585486724
38.009497869018190385759 99.83514255384250191 38.009497869018190385759 17.56938892391681151
39.009497869018190385759 100.16623797532402307 39.009497869018190385759 17.60806931532470188
40.009497869018190385759 100.48642246544612533 40.009497869018190385759 17.65342510620663319
41.009497869018190385759 100.79628393357231175 41.009497869018190385759 17.68679112628550243
42.009497869018190385759 101.09585623166346124 42.009497869018190385759 17.73024260227245108
43.009497869018190385759 101.38594906712320665 43.009497869018190385759 17.75587640327416850
44.009497869018218807469 101.66888115404800885 44.009497869018218807469 17.77011267850213372
46.009497869018218807469 102.21456423998873220 46.009497869018218807469 17.80731045161340020
48.009497869018218807469 102.73499427978951815 48.009497869018218807469 17.83710225852480136
50.009497869018218807469 103.22754696272623676 50.009497869018218807469 17.90198397599690594
52.009497869018190385759 103.69333510089339256 52.009497869018190385759 17.92217653916662101
54.009497869018190385759 104.13283947658781869 54.009497869018190385759 17.91657131610794096
56.009497869018190385759 104.55217346598288941 56.009497869018190385759 17.86581162151997759
58.009497869018190385759 104.95422221027715182 58.009497869018190385759 17.66981904200155995
60.009497869018190385759 105.33871864452640921 60.009497869018190385759 17.53672817246522797
62.009497869018190385759 105.70327777537150382 62.009497869018190385759 17.40685437759481857
64.009497869018190385759 106.04747379274682828 64.009497869018190385759 17.28057521786109874
66.009497869018218807469 106.37297690056578858 66.009497869018218807469 17.15996505252521231
68.009497869018218807469 106.67291004266061805 68.009497869018218807469 16.99193398955979006
70.009497869018218807469 106.95634152018398311 70.009497869018218807469 16.88170187237613362
72.009497869018218807469 107.22714768510657279 72.009497869018218807469 16.79823559513755171
74.009497869018190385759 107.48776569309073636 74.009497869018190385759 16.68736021962897453
76.009497869018190385759 107.73715046408506169 76.009497869018190385759 16.57860617431251171
78.009497869018190385759 107.97491823212494921 78.009497869018190385759 16.55201898297379870
80.009497869018190385759 108.20352982305566059 80.009497869018190385759 16.47217885587535235
82.009497869018190385759 108.42877095212337224 82.009497869018190385759 16.40127080900940015
84.009497869018190385759 108.64655417652443248 84.009497869018190385759 16.39018883335493726
86.009497869018190385759 108.85753172764216856 86.009497869018190385759 16.38028968356437076
88.009497869018218807469 109.06129905703384964 88.009497869018218807469 16.35745204558656951
91.009497869018190385759 109.35398732052344428 91.009497869018190385759 16.29228286409265536
94.009497869018218807469 109.63132896326538912 94.009497869018218807469 16.18780929188967477
97.009497869018190385759 109.89414198214325324 97.009497869018190385759 15.86598147894925503
99.504748934509109403734 110.09636502642929656 99.504748934509109403734 16.42824890802188520
nan nan nan nan

