Time Pressure difference Time.1 Pressure.1 difference.1
(hr) (psi) (hr) (psi)
0.000200000000006639311 0.84757733674622016 0.000200000000006639311 0.68128166122230038
0.000399999999999067768 1.68245908211783823 0.000399999999999067768 1.72768479724095436
0.000600000000005707079 2.50706459714135121 0.000600000000005707079 2.50220209452702669
0.000799999999998135536 3.32251745732639270 0.000799999999998135536 3.27607086305240625
0.001007140329434719206 4.15821803068718676 0.001007140329434719206 4.07342488212240728
0.001267914553963578328 5.19837940331572312 0.001267914553963578328 5.06404241935734056
0.001596209851982166583 6.49026517924626933 0.001596209851982166583 6.28082717405790536
0.002009509145224797066 8.09075949112562398 0.002009509145224797066 7.76849497086596674
0.002529822128138903281 10.06771504643979753 0.002529822128138903281 9.57737043078316752
0.003184857364431081805 12.50118633229631904 0.003184857364431081805 11.76249938279354268
0.004009497869020606231 15.48436810319531354 0.004009497869020606231 14.38179783131067246
0.005047658755842121536 19.12397501123253463 0.005047658755842121536 17.49280871309199625
0.006354625877790454069 23.53968495075357836 0.006354625877790454069 21.14769527846127417
0.008000000000009777068 28.86221095222758848 0.008000000000009777068 25.38619435040965300
0.010071403294347192059 35.22949668491329334 0.010071403294347192059 30.22623604809004050
0.012679145539706837553 42.78046530486609811 0.012679145539706837553 35.65263380360643453
0.015962098519750611558 51.64600284414860454 0.015962098519750611558 41.60499127158830390
0.020095091452091651263 61.93713431312958306 0.020095091452091651263 47.96704186254602575
0.025298221281360611101 73.73109476125799233 0.025298221281360611101 54.56007805601939253
0.031848573644296607199 87.05647812786153850 0.031848573644296607199 61.14759466142044175
0.040094978690177640601 101.88144734732961183 0.040094978690177640601 67.45026287963375466
0.050476587558421215363 118.10578277358948185 0.050476587558421215363 73.18006645131450227
0.063546258777961384112 135.56481630137281513 0.063546258777961384112 78.08346607951621365
0.079999999999998294697 154.04136006729947894 0.079999999999998294697 81.98735876139927825
0.100714032943542974863 173.29079892009085029 0.100714032943542974863 84.83915011406342899
0.126791455396897845276 193.07145140255659044 0.126791455396897845276 86.71397775754175541
0.159620985197506115583 213.17295159419936112 0.159620985197506115583 87.79865464668516495
0.200950914520760193227 233.43915814319078095 0.200950914520760193227 88.34906325142335959
0.252982212813478213320 253.77684731641537041 0.252982212813478213320 88.63319342620850705
0.318485736442795541734 274.15231812920507082 0.318485736442795541734 88.88492666950126875
0.400949786901833249431 294.57872808103695661 0.400949786901833249431 89.27549351844339753
0.504765875584155310207 315.09947682711811012 0.504765875584155310207 89.90128042529975971
0.635462587779443310865 335.76985294025166695 0.635462587779443310865 90.80759764276150747
0.799999999999997157829 356.65121103804870017 0.799999999999997157829 91.99275977481880773
1.007140329435344483500 377.79440138849997766 1.007140329435344483500 93.42993398117361892
1.267914553968893187630 399.24376741661120604 1.267914553968893187630 95.09989532860640793
1.596209851975103788391 421.03534201949463522 1.596209851975103788391 96.98291297960611246
2.009509145207672986544 443.19678846484555379 2.009509145207672986544 99.07023009927360135
2.529822128134711078928 465.75037691764498504 2.529822128134711078928 101.36587035631288245
3.184857364427998049905 488.71316719224927283 3.184857364427998049905 103.87995308837741959
4.009497869018190385759 512.09623935227898528 4.009497869018190385759 106.60624095321142590
5.009497869018204596614 535.10391751348424805 5.009497869018204596614 109.39572624571313497
6.009497869018204596614 554.17740093382747091 6.009497869018204596614 111.78403153721760077
7.009497869018204596614 570.48324847870412668 7.009497869018204596614 113.86580937152004367
8.009497869018204596614 584.72136967752203418 8.009497869018204596614 115.70666832985715189
9.009497869018204596614 597.35707182706073581 9.009497869018204596614 117.34328037857261506
10.009497869018190385759 608.70663486969294809 10.009497869018190385759 118.79235872725190859
11.009497869018190385759 618.99858030490838701 11.009497869018190385759 120.12488394359436938
12.009497869018190385759 628.40865409899356564 12.009497869018190385759 121.27979319405254444
13.009497869018190385759 637.07689702963182299 13.009497869018190385759 122.38026661528822103
14.009497869018190385759 645.08575290992746432 14.009497869018190385759 123.45638158667333073
15.009497869018190385759 652.54721038436628078 15.009497869018190385759 124.34907434476448884
16.009497869018204596614 659.52588436547898709 16.009497869018204596614 125.14748007732379165
17.009497869018204596614 666.05455422902321061 17.009497869018204596614 126.03353896632701492
18.009497869018204596614 672.18189913708454242 18.009497869018204596614 126.67206195633229981
19.009497869018204596614 677.98408980146950853 19.009497869018204596614 127.29105775863405370
20.009497869018204596614 683.47385422328011373 20.009497869018204596614 127.88413693560775641
21.009497869018204596614 688.66722536956478962 21.009497869018204596614 128.60323293827866564
22.009497869018190385759 693.57498344892826481 22.009497869018190385759 129.25335645054587985
23.009497869018190385759 698.26339854572233889 23.009497869018190385759 129.66757424688265132
24.009497869018190385759 702.75513687901150206 24.009497869018190385759 130.09432050006455484
25.009497869018190385759 707.04666432150781930 25.009497869018190385759 130.67121008838790885
26.009497869018190385759 711.14531803383385977 26.009497869018190385759 131.03535146048827187
27.009497869018204596614 715.05088145480340245 27.009497869018204596614 131.48477407571820663
28.009497869018190385759 718.78597177485175962 28.009497869018190385759 131.79687938880124420
29.009497869018190385759 722.38416269342201304 29.009497869018190385759 131.67361556503018960
30.009497869018190385759 725.85314361063842625 30.009497869018190385759 131.65415511968939200
31.009497869018190385759 729.18794732236710843 31.009497869018190385759 131.71084077972179216
32.009497869018190385759 732.39051538823446208 32.009497869018190385759 131.85950633216779693
33.009497869018218807469 735.44623116352579473 33.009497869018218807469 131.79248296196399792
34.009497869018190385759 738.37065904935400340 34.009497869018190385759 131.90215697303847264
35.009497869018218807469 741.18576363194506484 35.009497869018218807469 131.94031462827831547
36.009497869018190385759 743.90990425855056856 36.009497869018190385759 131.85562693926920019
37.009497869018218807469 746.56052511407642669 37.009497869018218807469 131.76025289502780424
38.009497869018190385759 749.12793098795680180 38.009497869018190385759 131.83453878676266413
39.009497869018190385759 751.61235502651891238 39.009497869018190385759 132.12478289163351519
40.009497869018190385759 754.01490725896803724 40.009497869018190385759 132.46511685533150171
41.009497869018190385759 756.33999915118488389 41.009497869018190385759 132.71548377971893728
42.009497869018190385759 758.58788471642367313 42.009497869018190385759 133.04152843165019249
43.009497869018190385759 760.76463971534781194 43.009497869018190385759 133.23387549318135825
44.009497869018218807469 762.88766296614130624 44.009497869018218807469 133.34069951459994741
46.009497869018218807469 766.98227765480589824 46.009497869018218807469 133.61981857123046780
48.009497869018218807469 770.88740233301916760 48.009497869018218807469 133.84336585228831495
50.009497869018218807469 774.58334509257360878 50.009497869018218807469 134.33021552791839781
52.009497869018190385759 778.07845608553577677 52.009497869018190385759 134.48173344717727673
54.009497869018190385759 781.37634293381222506 54.009497869018190385759 134.43967381721870424
56.009497869018190385759 784.52287827029488199 56.009497869018190385759 134.05879085344915325
58.009497869018190385759 787.53971118368542648 58.009497869018190385759 132.58813120567592136
60.009497869018190385759 790.42483771221270672 60.009497869018190385759 131.58946395105294869
62.009497869018190385759 793.16036170132781535 62.009497869018190385759 130.61493649757281332
64.009497869018190385759 795.74308802148709674 64.009497869018190385759 129.66738192672417540
66.009497869018218807469 798.18554929767617523 66.009497869018218807469 128.76236550361986133
68.009497869018218807469 800.43614250989139691 68.009497869018218807469 127.50151927932454043
70.009497869018218807469 802.56291301276735339 70.009497869018218807469 126.67437609345010685
72.009497869018218807469 804.59494759335439085 72.009497869018218807469 126.04807439271098701
74.009497869018190385759 806.55053381384868771 74.009497869018190385759 125.21610442174149114
76.009497869018190385759 808.42182975970388270 76.009497869018190385759 124.40005216929388610
78.009497869018190385759 810.20595578557993122 78.009497869018190385759 124.20055120070850307
80.009497869018190385759 811.92137706643222828 80.009497869018190385759 123.60145886014498728
82.009497869018190385759 813.61150758235646663 82.009497869018190385759 123.06938972015815636
84.009497869018190385759 815.24567659465037650 84.009497869018190385759 122.98623445758302353
86.009497869018190385759 816.82877821909596605 86.009497869018190385759 122.91195470586988847
88.009497869018218807469 818.35777686591825386 88.009497869018218807469 122.74058907199263047
91.009497869018190385759 820.55400704743146889 91.009497869018190385759 122.25158236706020887
94.009497869018218807469 822.63508156377235991 94.009497869018218807469 121.46764928512835979
97.009497869018190385759 824.60713837695823258 97.009497869018190385759 119.05276613401338182
99.504748934509109403734 826.12454924941107492 99.504748934509109403734 123.27182392296712976
nan nan nan nan

