Time Pressure difference Time.1 Pressure.1 difference.1
(hr) (psi) (hr) (psi)
0.000200000000006639311 0.41719273579142746 0.000200000000006639311 0.33533902780008168
0.000399999999999067768 0.82813647427200976 0.000399999999999067768 0.85039738074311566
0.000600000000005707079 1.23402206824272742 0.000600000000005707079 1.23162865742283589
0.000799999999998135536 1.63540256168011156 0.000799999999998135536 1.61254071663863585
0.001007140329434719206 2.04674934195303182 0.001007140329434719206 2.00501263653106765
0.001267914553963578328 2.55873538723517147 0.001267914553963578328 2.49261231925565641
0.001596209851982166583 3.19462468939553768 0.001596209851982166583 3.09153555454601126
0.002009509145224797066 3.98241663668245627 0.002009509145224797066 3.82379227165192637
0.002529822128138903281 4.95550954620480333 0.002529822128138903281 4.71415314978237632
0.003184857364431081805 6.15330766939877183 0.003184857364431081805 5.78971273121938967
0.004009497869020606231 7.62168313250664209 0.004009497869020606231 7.07897830996420296
0.005047658755842121536 9.41316279735764816 0.005047658755842121536 8.61027354944022427
0.006354625877790454069 11.58665426564329870 0.006354625877790454069 10.40927413511809796
0.008000000000009777068 14.20649683057116874 0.008000000000009777068 12.49553924251681281
0.010071403294347192059 17.34058883518105887 0.010071403294347192059 14.87789439721163376
0.012679145539706837553 21.05731074344576470 0.012679145539706837553 17.54886449866231146
0.015962098519750611558 25.42108700305368885 0.015962098519750611558 20.47872138465338665
0.020095091452091651263 30.48656611132643235 0.020095091452091651263 23.61023655880183725
0.025298221281360611101 36.29176454201999036 0.025298221281360611101 26.85544698088113691
0.031848573644296607199 42.85075674386958866 0.031848573644296607199 30.09794056291706710
0.040094978690177640601 50.14787194333538167 0.040094978690177640601 33.20022667032556285
0.050476587558421215363 58.13378023680571260 0.050476587558421215363 36.02053854510226927
0.063546258777961384112 66.72742903550063431 0.063546258777961384112 38.43407960723268957
0.079999999999998294697 75.82191458565519326 0.079999999999998294697 40.35564546037746680
0.100714032943542974863 85.29683293148440271 0.100714032943542974863 41.75934820789503021
0.126791455396897845276 95.03322413394322155 0.126791455396897845276 42.68217193124137054
0.159620985197506115583 104.92754232165844996 0.159620985197506115583 43.21606931052791367
0.200950914520760193227 114.90293192651219556 0.200950914520760193227 43.48699027745158219
0.252982212813478213320 124.91350655846906648 0.252982212813478213320 43.62684423507928244
0.318485736442795541734 134.94267798966706096 0.318485736442795541734 43.75075184315918619
0.400949786901833249431 144.99692257685279628 0.400949786901833249431 43.94299583689917910
0.504765875584155310207 155.09760240712233781 0.504765875584155310207 44.25101935330901881
0.635462587779443310865 165.27193150561026869 0.635462587779443310865 44.69712490976393582
0.799999999999997157829 175.55010971328078995 0.799999999999997157829 45.28048292418123566
1.007140329435344483500 185.95716644219942282 1.007140329435344483500 45.98788579228973106
1.267914553968893187630 196.51492831984947429 1.267914553968893187630 46.80987065785490842
1.596209851975103788391 207.24113138313649074 1.596209851975103788391 47.73672564949483643
2.009509145207672986544 218.14939198756019323 2.009509145207672986544 48.76414049633506664
2.529822128134711078928 229.25067190693422958 2.529822128134711078928 49.89409572013066452
3.184857364427998049905 240.55336828723557119 3.184857364427998049905 51.13157223999900225
4.009497869018190385759 252.06293493409845041 4.009497869018190385759 52.47349992444064526
5.009497869018204596614 263.38772593562549673 5.009497869018204596614 53.84653451394051160
6.009497869018204596614 272.77603586820691817 6.009497869018204596614 55.02210112629582284
7.009497869018204596614 280.80206588543217094 7.009497869018204596614 56.04678943773262745
8.009497869018204596614 287.81032398523944948 8.009497869018204596614 56.95289316625264320
9.009497869018204596614 294.02984274756096283 9.009497869018204596614 57.75846291007562172
10.009497869018190385759 299.61630082107456019 10.009497869018190385759 58.47172521010648438
11.009497869018190385759 304.68218057809690436 11.009497869018190385759 59.12761797223614479
12.009497869018190385759 309.31398732888203540 12.009497869018190385759 59.69608497683910286
13.009497869018190385759 313.58065165077209713 13.009497869018190385759 60.23775769196092966
14.009497869018190385759 317.52275386422502379 14.009497869018190385759 60.76744074207851298
15.009497869018190385759 321.19541678452270617 15.009497869018190385759 61.20684009576929441
16.009497869018204596614 324.63044502814432235 16.009497869018204596614 61.59982968786560775
17.009497869018204596614 327.84397319055034359 17.009497869018204596614 62.03596373245279239
18.009497869018204596614 330.85996202661942789 18.009497869018204596614 62.35025617694956424
19.009497869018204596614 333.71590412406965243 19.009497869018204596614 62.65493699014476903
20.009497869018204596614 336.41806443285963724 20.009497869018204596614 62.94686117647619739
21.009497869018204596614 338.97433466634220167 21.009497869018204596614 63.30081309996985084
22.009497869018190385759 341.39002103614569705 22.009497869018190385759 63.62081552915974925
23.009497869018190385759 343.69774286394505225 23.009497869018190385759 63.82470094253173443
24.009497869018190385759 345.90865686846285598 24.009497869018190385759 64.03475308660765108
25.009497869018190385759 348.02102348899126127 25.009497869018190385759 64.31870846763061422
26.009497869018190385759 350.03845420731511240 26.009497869018190385759 64.49794536868391504
27.009497869018204596614 351.96084242814254139 27.009497869018204596614 64.71915922404028265
28.009497869018190385759 353.79932073742702414 28.009497869018190385759 64.87278304546053675
29.009497869018190385759 355.57041471096454188 29.009497869018190385759 64.81211038512186917
30.009497869018190385759 357.27790920912741512 30.009497869018190385759 64.80253160560586423
31.009497869018190385759 358.91935928513402132 31.009497869018190385759 64.83043330208096222
32.009497869018190385759 360.49572060938390905 32.009497869018190385759 64.90360914793473057
33.009497869018218807469 361.99979860772771190 33.009497869018218807469 64.87061904548032487
34.009497869018190385759 363.43925435697775583 34.009497869018190385759 64.92460255676796521
35.009497869018218807469 364.82489921961501977 35.009497869018218807469 64.94338443765450108
36.009497869018190385759 366.16576999496743383 36.009497869018190385759 64.90169964131344216
37.009497869018218807469 367.47045302307651582 37.009497869018218807469 64.85475482965374283
38.009497869018190385759 368.73417614776866458 38.009497869018190385759 64.89131967519639943
39.009497869018190385759 369.95705412783905786 39.009497869018190385759 65.03418301864452644
40.009497869018190385759 371.13963333953091706 40.009497869018190385759 65.20170148715733660
41.009497869018190385759 372.28408518531091431 41.009497869018190385759 65.32493656861653619
42.009497869018190385759 373.39053469504904115 42.009497869018190385759 65.48542158211576236
43.009497869018190385759 374.46197246689297344 43.009497869018190385759 65.58009824858926606
44.009497869018218807469 375.50696251057149766 44.009497869018218807469 65.63267894395679036
46.009497869018218807469 377.52240514915547465 46.009497869018218807469 65.77006633953561732
48.009497869018218807469 379.44457741294525022 48.009497869018218807469 65.88010031250766474
50.009497869018218807469 381.26378659225895262 50.009497869018218807469 66.11973643689367464
52.009497869018190385759 382.98414278140188571 52.009497869018190385759 66.19431626874678898
54.009497869018190385759 384.60742171644841392 54.009497869018190385759 66.17361376606289980
56.009497869018190385759 386.15620272837475113 56.009497869018190385759 65.98613635393509469
58.009497869018190385759 387.64114188613314127 58.009497869018190385759 65.26225135221012863
60.009497869018190385759 389.06125280387129806 60.009497869018190385759 64.77068945450660920
62.009497869018190385759 390.40772667399988904 62.009497869018190385759 64.29100959899983536
64.009497869018190385759 391.67899079656854155 64.009497869018190385759 63.82460627910741380
66.009497869018218807469 392.88121395391448232 66.009497869018218807469 63.37914099691794689
68.009497869018218807469 393.98899621595819553 68.009497869018218807469 62.75852991764418221
70.009497869018218807469 395.03583072418319944 70.009497869018218807469 62.35139523665930028
72.009497869018218807469 396.03603451579510875 72.009497869018218807469 62.04311832948613414
74.009497869018190385759 396.99860905623296503 74.009497869018190385759 61.63360781848365377
76.009497869018190385759 397.91969441479591296 76.009497869018190385759 61.23193229344620647
78.009497869018190385759 398.79787317850531281 78.009497869018190385759 61.13373434587402500
80.009497869018190385759 399.64223423697933413 80.009497869018190385759 60.83885037279510044
82.009497869018190385759 400.47414672828051607 82.009497869018190385759 60.57695641867706371
84.009497869018190385759 401.27851396584935628 84.009497869018190385759 60.53602591005545719
86.009497869018190385759 402.05774492107252627 86.009497869018190385759 60.49946408674139775
88.009497869018218807469 402.81034542232941931 88.009497869018218807469 60.41511485450221386
91.009497869018190385759 403.89136922762673976 91.009497869018190385759 60.17441700168527774
94.009497869018218807469 404.91571135337437681 94.009497869018218807469 59.78855110727135980
97.009497869018190385759 405.88639301433931905 97.009497869018190385759 58.59990239670309364
99.504748934509109403734 406.63328980564398307 99.504748934509109403734 60.67659815663557765
nan nan nan nan

