Time Pressure difference Time.1 Pressure.1 difference.1
(hr) (psi) (hr) (psi)
0.000200000000006639311 0.86406716820042684 0.000200000000006639311 0.69453616824997155
0.000399999999999067768 1.71519174908511118 0.000399999999999067768 1.76129734193435805
0.000600000000005707079 2.55584017296122212 0.000600000000005707079 2.55088306912871987
0.000799999999998135536 3.38715787478410446 0.000799999999998135536 3.33980765027132476
0.001007140329434719206 4.23911721416359111 0.001007140329434719206 4.15267439344774481
0.001267914553963578328 5.29951518937245059 0.001267914553963578328 5.16256464541487681
0.001596209851982166583 6.61653492981526359 0.001596209851982166583 6.40302225526525692
0.002009509145224797066 8.24816726332650951 0.002009509145224797066 7.91963300531861325
0.002529822128138903281 10.26358498897753790 0.002529822128138903281 9.76370059480618657
0.003184857364431081805 12.74440007416978915 0.003184857364431081805 11.99134178323699729
0.004009497869020606231 15.78562040092284846 0.004009497869020606231 14.66159934553850697
0.005047658755842121536 19.49603678187908073 0.005047658755842121536 17.83313573085643355
0.006354625877790454069 23.99765547508730634 0.006354625877790454069 21.55912903874262199
0.008000000000009777068 29.42373256608415844 0.008000000000009777068 25.88008918212968368
0.010071403294347192059 35.91489545310227527 0.010071403294347192059 30.81429511517350406
0.012679145539706837553 43.61277007733431077 0.012679145539706837553 36.34626481145869548
0.015962098519750611558 52.65078889170013099 0.015962098519750611558 42.41442689944021538
0.020095091452091651263 63.14213692622548280 0.020095091452091651263 48.90025279372396483
0.025298221281360611101 75.16555185778052817 0.025298221281360611101 55.62155817384077494
0.031848573644296607199 88.75018392801447931 0.031848573644296607199 62.33723658090333686
0.040094978690177640601 103.86357667315313336 0.040094978690177640601 68.76252480336202666
0.050476587558421215363 120.40356064856203488 0.050476587558421215363 74.60380315270192852
0.063546258777961384112 138.20226408933729090 0.063546258777961384112 79.60259966082973904
0.079999999999998294697 157.03827368728585157 0.079999999999998294697 83.58244356220470195
0.100714032943542974863 176.66221524149338507 0.100714032943542974863 86.48971723690512192
0.126791455396897845276 196.82770532089426752 0.126791455396897845276 88.40102012636552331
0.159620985197506115583 217.32028528280247315 0.159620985197506115583 89.50679967872184761
0.200950914520760193227 237.98077600589877534 0.200950914520760193227 90.06791662207362492
0.252982212813478213320 258.71414006576202382 0.252982212813478213320 90.35757462127092765
0.318485736442795541734 279.48602081654360063 0.318485736442795541734 90.61420539847989630
0.400949786901833249431 300.30983174020104798 0.400949786901833249431 91.01237082424968605
0.504765875584155310207 321.22981684320990325 0.504765875584155310207 91.65033257365189456
0.635462587779443310865 342.30234035154063577 0.635462587779443310865 92.57428242180355937
0.799999999999997157829 363.58995055240762895 0.799999999999997157829 93.78250218288920337
1.007140329435344483500 385.14448701862647795 1.007140329435344483500 95.24763697691628295
1.267914553968893187630 407.01115588775149945 1.267914553968893187630 96.95008784472715035
1.596209851975103788391 429.22669108602178767 1.596209851975103788391 98.86974008037667261
2.009509145207672986544 451.81929407700209822 2.009509145207672986544 100.99766648252794710
2.529822128134711078928 474.81166829736577029 2.529822128134711078928 103.33796900137734553
3.184857364427998049905 498.22120546447200695 3.184857364427998049905 105.90096384885168845
4.009497869018190385759 522.05920120738164769 4.009497869018190385759 108.68029233362409514
5.009497869018204596614 545.51449956627561733 5.009497869018204596614 111.52404776800327113
6.009497869018204596614 564.95906243059459939 6.009497869018204596614 113.95881814300003043
7.009497869018204596614 581.58214436350374399 7.009497869018204596614 116.08109749158852253
8.009497869018204596614 596.09727181132598162 8.009497869018204596614 117.95777082654696244
9.009497869018204596614 608.97880474198404954 9.009497869018204596614 119.62622357659931538
10.009497869018190385759 620.54917640412270430 10.009497869018190385759 121.10349411105057982
11.009497869018190385759 631.04135424080152461 11.009497869018190385759 122.46194394249698689
12.009497869018190385759 640.63450340053032050 12.009497869018190385759 123.63932224452049979
13.009497869018190385759 649.47138918974144417 13.009497869018190385759 124.76120565449613764
14.009497869018190385759 657.63605938677437734 14.009497869018190385759 125.85825671481873655
15.009497869018190385759 665.24268140351739476 15.009497869018190385759 126.76831703629684966
16.009497869018204596614 672.35712725196685824 16.009497869018204596614 127.58225595431453314
17.009497869018204596614 679.01281403892642174 17.009497869018204596614 128.48555334310381681
18.009497869018204596614 685.25936799189162230 18.009497869018204596614 129.13649895937379597
19.009497869018204596614 691.17444174313243366 19.009497869018204596614 129.76753748156465917
20.009497869018204596614 696.77101092023110596 20.009497869018204596614 130.37215516392697623
21.009497869018204596614 702.06542041566524404 21.009497869018204596614 131.10524136120235994
22.009497869018190385759 707.06866016972458056 22.009497869018190385759 131.76801319082886721
23.009497869018190385759 711.84828956801266031 23.009497869018190385759 132.19028969915663652
24.009497869018190385759 716.42741580661868284 24.009497869018190385759 132.62533840862613488
25.009497869018190385759 720.80243600091466760 25.009497869018190385759 133.21345152979620252
26.009497869018190385759 724.98083005783848876 26.009497869018190385759 133.58467736438882412
27.009497869018204596614 728.96237720295141571 27.009497869018204596614 134.04284361026526540
28.009497869018190385759 732.77013464984884195 28.009497869018190385759 134.36102101115147889
29.009497869018190385759 736.43832928278823147 29.009497869018190385759 134.23535905851326788
30.009497869018190385759 739.97480010111769388 30.009497869018190385759 134.21552000528643589
31.009497869018190385759 743.37448326249102593 31.009497869018190385759 134.27330849917166233
32.009497869018190385759 746.63935810006785232 32.009497869018190385759 134.42486637754069534
33.009497869018218807469 749.75452359861390050 33.009497869018218807469 134.35653905071816894
34.009497869018190385759 752.73584696860211807 34.009497869018190385759 134.46834679741664331
35.009497869018218807469 755.60572012283887489 35.009497869018218807469 134.50724681948994998
36.009497869018190385759 758.38285959431993888 36.009497869018190385759 134.42091151007210215
37.009497869018218807469 761.08504894898067050 37.009497869018218807469 134.32368193967812431
38.009497869018190385759 763.70240435348136998 38.009497869018190385759 134.39941308222498151
39.009497869018190385759 766.23516349006990822 39.009497869018190385759 134.69530395956414281
40.009497869018190385759 768.68445798385062062 40.009497869018190385759 135.04225920660255156
41.009497869018190385759 771.05478512688898718 41.009497869018190385759 135.29749708282631104
42.009497869018190385759 773.34640387433080377 42.009497869018190385759 135.62988501592354851
43.009497869018190385759 775.56550819230017169 43.009497869018190385759 135.82597423818489801
44.009497869018218807469 777.72983539738913805 44.009497869018218807469 135.93487654795791286
46.009497869018218807469 781.90411185042478337 46.009497869018218807469 136.21942593642950214
48.009497869018218807469 785.88521171693002998 48.009497869018218807469 136.44732238637951127
50.009497869018218807469 789.65305997764301082 50.009497869018218807469 136.94364384558215875
52.009497869018190385759 793.21616923895089712 52.009497869018190385759 137.09810958428187178
54.009497869018190385759 796.57821730995647158 54.009497869018190385759 137.05523167358484216
56.009497869018190385759 799.78596928722674875 56.009497869018190385759 136.66693853542290071
58.009497869018190385759 802.86149544795944166 58.009497869018190385759 135.16766683224551571
60.009497869018190385759 805.80275284280060077 60.009497869018190385759 134.14957025360260445
62.009497869018190385759 808.59149714298780509 62.009497869018190385759 133.15608312203920605
64.009497869018190385759 811.22447105692458535 64.009497869018190385759 132.19009363736080331
66.009497869018218807469 813.71445103498501794 66.009497869018218807469 131.26746989084981010
68.009497869018218807469 816.00883010736004053 68.009497869018218807469 129.98209358436977823
70.009497869018218807469 818.17697746826877392 70.009497869018218807469 129.13885811861450748
72.009497869018218807469 820.24854579555972123 72.009497869018218807469 128.50037155988434279
74.009497869018190385759 822.24217844057727689 74.009497869018190385759 127.65221540270921707
76.009497869018190385759 824.14988092234409578 76.009497869018190385759 126.82028664729570266
78.009497869018190385759 825.96871757129156322 78.009497869018190385759 126.61690433690905877
80.009497869018190385759 827.71751280702426357 80.009497869018190385759 126.00615650333845963
82.009497869018190385759 829.44052523960067447 82.009497869018190385759 125.46373582366315702
84.009497869018190385759 831.10648742334024064 84.009497869018190385759 125.37896275442315641
86.009497869018190385759 832.72038869028460795 86.009497869018190385759 125.30323787135372982
88.009497869018218807469 834.27913439249255134 88.009497869018218807469 125.12853827572789100
91.009497869018190385759 836.51809278765381350 91.009497869018190385759 124.63001782167228271
94.009497869018218807469 838.63965513505195304 94.009497869018218807469 123.83083312336042070
97.009497869018190385759 840.65007881230746989 97.009497869018190385759 121.36896780977239985
99.504748934509109403734 842.19701129706493248 99.504748934509109403734 125.67010843508711559
nan nan nan nan

