Time Pressure difference Time.1 Pressure.1 difference.1
(hr) (psi) (hr) (psi)
0.000200000000006639311 0.74781385644827014 0.000200000000006639311 0.60109189370488947
0.000399999999999067768 1.48442644696583570 0.000399999999999067768 1.52432890184586145
0.000600000000005707079 2.21197236343113390 0.000600000000005707079 2.20768219818678313
0.000799999999998135536 2.93144293170723547 0.000799999999998135536 2.89046330037795007
0.001007140329434719206 3.66877797065493994 0.001007140329434719206 3.59396533860410772
0.001267914553963578328 4.58650789767253020 0.001267914553963578328 4.46798295170924931
0.001596209851982166583 5.72633318830385818 0.001596209851982166583 5.54154693275342414
0.002009509145224797066 7.13844246931025328 0.002009509145224797066 6.85410986242746390
0.002529822128138903281 8.88270189408647504 0.002529822128138903281 8.45007293844390261
0.003184857364431081805 11.02974319396183134 0.003184857364431081805 10.37800286011064443
0.004009497869020606231 13.66179170194372361 0.004009497869020606231 12.68899867023227657
0.005047658755842121536 16.87300129882092392 0.005047658755842121536 15.43383025561715804
0.006354625877790454069 20.76896327853452817 0.006354625877790454069 18.65852102875912166
0.008000000000009777068 25.46500518839535587 0.008000000000009777068 22.39813061850345477
0.010071403294347192059 31.08283413736999989 0.010071403294347192059 26.66847869223508383
0.012679145539706837553 37.74502143143341470 0.012679145539706837553 31.45616620610023162
0.015962098519750611558 45.56704725646184784 0.015962098519750611558 36.70790572308423094
0.020095091452091651263 54.64686850389934847 0.020095091452091651263 42.32111572891950146
0.025298221281360611101 65.05262932729669956 0.025298221281360611101 48.13812334319998598
0.031848573644296607199 76.80955803693619544 0.031848573644296607199 53.95026104854897397
0.040094978690177640601 89.88956492609722204 0.040094978690177640601 59.51107824107764088
0.050476587558421215363 104.20422663000550756 0.050476587558421215363 64.56645940792047611
0.063546258777961384112 119.60825718418790586 0.063546258777961384112 68.89270791256926429
0.079999999999998294697 135.91003266638193736 0.079999999999998294697 72.33709571652640591
0.100714032943542974863 152.89373017560544099 0.100714032943542974863 74.85321902087113699
0.126791455396897845276 170.34611519661365264 0.126791455396897845276 76.50737142615794539
0.159620985197506115583 188.08158277815061865 0.159620985197506115583 77.46437720286327533
0.200950914520760193227 205.96237007380742057 0.200950914520760193227 77.95000035898929980
0.252982212813478213320 223.90622618286843704 0.252982212813478213320 78.20068719608084962
0.318485736442795541734 241.88341687080637143 0.318485736442795541734 78.42279035918059549
0.400949786901833249431 259.90555094309388551 0.400949786901833249431 78.76738581831533281
0.504765875584155310207 278.01091972976274747 0.504765875584155310207 79.31951492776934742
0.635462587779443310865 296.24830410195357899 0.635462587779443310865 80.11915472955708140
0.799999999999997157829 314.67183697617724647 0.799999999999997157829 81.16481820599284447
1.007140329435344483500 333.32638332623491806 1.007140329435344483500 82.43283085693040846
1.267914553968893187630 352.25106716621240821 1.267914553968893187630 83.90623060607589423
1.596209851975103788391 371.47768016700553062 1.596209851975103788391 85.56760901994429958
2.009509145207672986544 391.03062951129857083 2.009509145207672986544 87.40923998058478617
2.529822128134711078928 410.92956407033466348 2.529822128134711078928 89.43467355367295113
3.184857364427998049905 431.18953564530170297 3.184857364427998049905 91.65283798750809297
4.009497869018190385759 451.82032012890761052 4.009497869018190385759 94.05823010171475573
5.009497869018204596614 472.11989609409545210 5.009497869018204596614 96.51938103585779061
6.009497869018204596614 488.94834887838663917 6.009497869018204596614 98.62657257223381180
7.009497869018204596614 503.33492837566603839 7.009497869018204596614 100.46331624510573022
8.009497869018204596614 515.89716176800823177 8.009497869018204596614 102.08749822488367442
9.009497869018204596614 527.04558769177447175 9.009497869018204596614 103.53147403051104902
10.009497869018190385759 537.05925858639250237 10.009497869018190385759 104.80998965526993061
11.009497869018190385759 546.13979799275477944 11.009497869018190385759 105.98567095023355478
12.009497869018190385759 554.44226582469570985 12.009497869018190385759 107.00464243872146142
13.009497869018190385759 562.09021946096902411 13.009497869018190385759 107.97558542808016568
14.009497869018190385759 569.15639872500423735 14.009497869018190385759 108.92503706139370934
15.009497869018190385759 575.73961071850214921 15.009497869018190385759 109.71265606099356660
16.009497869018204596614 581.89686490222709381 16.009497869018204596614 110.41708602152984042
17.009497869018204596614 587.65708237910894240 17.009497869018204596614 111.19885198682743521
18.009497869018204596614 593.06321256550165799 18.009497869018204596614 111.76221808793133050
19.009497869018204596614 598.18246055440943110 19.009497869018204596614 112.30835543490377404
20.009497869018204596614 603.02605620672670739 20.009497869018204596614 112.83162665427650495
21.009497869018204596614 607.60814534065684711 21.009497869018204596614 113.46608197959022846
22.009497869018190385759 611.93823928811093538 22.009497869018190385759 114.03968317183375802
23.009497869018190385759 616.07480786086591706 23.009497869018190385759 114.40514576062506080
24.009497869018190385759 620.03784936698775709 24.009497869018190385759 114.78166215326707800
25.009497869018190385759 623.82424566109693842 25.009497869018190385759 115.29064936786753037
26.009497869018190385759 627.44047028860643422 26.009497869018190385759 115.61192974188995208
27.009497869018204596614 630.88633217850849633 27.009497869018204596614 116.00845339170857073
28.009497869018190385759 634.18178638111919554 28.009497869018190385759 116.28382257358242668
29.009497869018190385759 637.35645482775657911 29.009497869018190385759 116.17506742945758447
30.009497869018190385759 640.41712184323841939 30.009497869018190385759 116.15789756182711301
31.009497869018190385759 643.35940488461767472 31.009497869018190385759 116.20791107705026945
32.009497869018190385759 646.18501698164277514 32.009497869018190385759 116.33907805766166632
33.009497869018218807469 648.88106193124315269 33.009497869018218807469 116.27994362500130876
34.009497869018190385759 651.46127213790271071 34.009497869018190385759 116.37670853555046335
35.009497869018218807469 653.94502686203713893 35.009497869018218807469 116.41037487144788543
36.009497869018190385759 656.34852447714524715 36.009497869018190385759 116.33565528591165616
37.009497869018218807469 658.68715591290583689 37.009497869018218807469 116.25150717489317742
38.009497869018190385759 660.95236712653388622 38.009497869018190385759 116.31704929921568237
39.009497869018190385759 663.14436382203564335 39.009497869018190385759 116.57313043065330760
40.009497869018190385759 665.26412537342798714 40.009497869018190385759 116.87340563014170414
41.009497869018190385759 667.31554399817582635 41.009497869018190385759 117.09430329591936015
42.009497869018190385759 669.29884381108593061 42.009497869018190385759 117.38197109679643404
43.009497869018190385759 671.21938542978648456 43.009497869018190385759 117.55167808591001233
44.009497869018218807469 673.09251975709150884 44.009497869018218807469 117.64592846278419813
46.009497869018218807469 676.70518077131225709 46.009497869018218807469 117.89219401177629720
48.009497869018218807469 680.15065556035835925 48.009497869018218807469 118.08942882103646355
50.009497869018218807469 683.41157003790294766 50.009497869018218807469 118.51897420605251909
52.009497869018190385759 686.49529150737441796 52.009497869018190385759 118.65265781769434739
54.009497869018190385759 689.40500295813978937 54.009497869018190385759 118.61554878620366082
56.009497869018190385759 692.18117761785754283 56.009497869018190385759 118.27949737750816439
58.009497869018190385759 694.84291638482750386 58.009497869018190385759 116.98194066493003618
60.009497869018190385759 697.38845117215657865 60.009497869018190385759 116.10082082062746167
62.009497869018190385759 699.80199227928437722 62.009497869018190385759 115.24099941955110182
64.009497869018190385759 702.08072065709029630 64.009497869018190385759 114.40497607737239605
66.009497869018218807469 704.23569378695742671 66.009497869018218807469 113.60648396087860590
68.009497869018218807469 706.22138254520564260 68.009497869018218807469 112.49404473380093350
70.009497869018218807469 708.09782305698445271 70.009497869018218807469 111.76425984120550083
72.009497869018218807469 709.89067847001206246 72.009497869018218807469 111.21167653131212205
74.009497869018190385759 711.61608382214092217 74.009497869018190385759 110.47763298688670375
76.009497869018190385759 713.26712022573099148 76.009497869018190385759 109.75763357738283332
78.009497869018190385759 714.84124698202435866 78.009497869018190385759 109.58161472669515035
80.009497869018190385759 716.35475583585014192 80.009497869018190385759 109.05303811882441778
82.009497869018190385759 717.84595075602840097 82.009497869018190385759 108.58359579395275318
84.009497869018190385759 719.28777108107783533 84.009497869018190385759 108.51022826170019187
86.009497869018190385759 720.68453486840473943 86.009497869018190385759 108.44469155469258226
88.009497869018218807469 722.03356383014386211 88.009497869018218807469 108.29349638939427791
91.009497869018190385759 723.97128831908582924 91.009497869018190385759 107.86204786665720690
94.009497869018218807469 725.80741145753074761 94.009497869018218807469 107.17038706382435009
97.009497869018190385759 727.54734874309440329 97.009497869018190385759 105.03974599567133907
99.504748934509109403734 728.88615386110495820 99.504748934509109403734 108.76220262464123323
nan nan nan nan

