Time Pressure difference Time.1 Pressure.1 difference.1
(hr) (psi) (hr) (psi)
0.000200000000006639311 0.44357646611815804 0.000200000000006639311 0.35654623904435562
0.000399999999999067768 0.88050874141964675 0.000399999999999067768 0.90417745225256163
0.000600000000005707079 1.31206298955452039 0.000600000000005707079 1.30951821678554503
0.000799999999998135536 1.73882722961245051 0.000799999999998135536 1.71451957618890538
0.001007140329434719206 2.17618803551527851 0.001007140329434719206 2.13181185465160983
0.001267914553963578328 2.72055264492593363 0.001267914553963578328 2.65024788094771369
0.001596209851982166583 3.39665629030592742 0.001596209851982166583 3.28704768447777518
0.002009509145224797066 4.23426907220387605 0.002009509145224797066 4.06561312677615838
0.002529822128138903281 5.26890145426518597 0.002529822128138903281 5.01228141221920609
0.003184857364431081805 6.54244965639632259 0.003184857364431081805 6.15586057192891634
0.004009497869020606231 8.10368680887069814 0.004009497869020606231 7.52666073272873781
0.005047658755842121536 10.00846163039212477 0.005047658755842121536 9.15479677786332147
0.006354625877790454069 12.31940710457726063 0.006354625877790454069 11.06756815156825446
0.008000000000009777068 15.10493141274167783 0.008000000000009777068 13.28577097326886580
0.010071403294347192059 18.43722686428342072 0.010071403294347192059 15.81878890454517794
0.012679145539706837553 22.38899837939490212 0.012679145539706837553 18.65867411122593822
0.015962098519750611558 27.02874467913613543 0.015962098519750611558 21.77381838921644786
0.020095091452091651263 32.41457029227987618 0.020095091452091651263 25.10337404868653977
0.025298221281360611101 38.58689589645603490 0.025298221281360611101 28.55381516939536013
0.031848573644296607199 45.56068602411431101 0.031848573644296607199 32.00136763408968932
0.040094978690177640601 53.31927886465304312 0.040094978690177640601 35.29984574829081367
0.050476587558421215363 61.81022483676180457 0.050476587558421215363 38.29851726732217543
0.063546258777961384112 70.94734549624376996 0.063546258777961384112 40.86469333733435860
0.079999999999998294697 80.61697637763337809 0.079999999999998294697 42.90778114166615609
0.100714032943542974863 90.69109904572847825 0.100714032943542974863 44.40025560444174602
0.126791455396897845276 101.04323040328351624 0.126791455396897845276 45.38143972135939919
0.159620985197506115583 111.56327622342340078 0.159620985197506115583 45.94910136178658888
0.200950914520760193227 122.16952050684498943 0.200950914520760193227 46.23715567049199393
0.252982212813478213320 132.81317495742362667 0.252982212813478213320 46.38585414717915256
0.318485736442795541734 143.47660228940884508 0.318485736442795541734 46.51759780952497891
0.400949786901833249431 154.16668843151543911 0.400949786901833249431 46.72199952618924357
0.504765875584155310207 164.90614643286920682 0.504765875584155310207 47.04950279067244168
0.635462587779443310865 175.72391136367258468 0.635462587779443310865 47.52382055623122170
0.799999999999997157829 186.65209293625508735 0.799999999999997157829 48.14407077709388716
1.007140329435344483500 197.71730345040174370 1.007140329435344483500 48.89621058547801624
1.267914553968893187630 208.94274987367393237 1.267914553968893187630 49.77017868364809772
1.596209851975103788391 220.34728988957988349 1.596209851975103788391 50.75564901072771562
2.009509145207672986544 231.94540096701061316 2.009509145207672986544 51.84803870954202409
2.529822128134711078928 243.74873811448736660 2.529822128134711078928 53.04945355223378556
3.184857364427998049905 255.76622952279194578 3.184857364427998049905 54.36518945675783243
4.009497869018190385759 268.00367390226273301 4.009497869018190385759 55.79198213310092314
5.009497869018204596614 280.04465722009189221 5.009497869018204596614 57.25184894960473514
6.009497869018204596614 290.02669426303424416 6.009497869018204596614 58.50175969554772593
7.009497869018204596614 298.56029930111168369 7.009497869018204596614 59.59125042984220499
8.009497869018204596614 306.01176739932571991 8.009497869018204596614 60.55465716095636708
9.009497869018204596614 312.62461541143841259 9.009497869018204596614 61.41117202691834365
10.009497869018190385759 318.56436727616227245 10.009497869018190385759 62.16954182418437114
11.009497869018190385759 323.95061887552594726 11.009497869018190385759 62.86691397048032570
12.009497869018190385759 328.87534621134096824 12.009497869018190385759 63.47133145758781581
13.009497869018190385759 333.41183910694741144 13.009497869018190385759 64.04726015469363176
14.009497869018190385759 337.60324422717997095 14.009497869018190385759 64.61044094711114383
15.009497869018190385759 341.50817041516449990 15.009497869018190385759 65.07762840222110867
16.009497869018204596614 345.16043364652495029 16.009497869018204596614 65.49547109105077425
17.009497869018204596614 348.57718888639539045 17.009497869018204596614 65.95918673529565979
18.009497869018204596614 351.78391219431080117 18.009497869018204596614 66.29335538181592824
19.009497869018204596614 354.82046723073023031 19.009497869018204596614 66.61730454683376479
20.009497869018204596614 357.69351514798120206 20.009497869018204596614 66.92769034178694199
21.009497869018204596614 360.41144674010291737 21.009497869018204596614 67.30402657664778587
22.009497869018190385759 362.97990378941966583 22.009497869018190385759 67.64426631361253328
23.009497869018190385759 365.43356849960957788 23.009497869018190385759 67.86104566617009937
24.009497869018190385759 367.78430315263443617 24.009497869018190385759 68.08438174030617063
25.009497869018190385759 370.03025817604208214 25.009497869018190385759 68.38629477388393241
26.009497869018190385759 372.17527344572238235 26.009497869018190385759 68.57686681492479863
27.009497869018204596614 374.21923562517923756 27.009497869018204596614 68.81207047931555110
28.009497869018190385759 376.17398133742244681 28.009497869018190385759 68.97540964122089235
29.009497869018190385759 378.05708125395040042 29.009497869018190385759 68.91089997469480011
30.009497869018190385759 379.87255959389437976 30.009497869018190385759 68.90071542256117709
31.009497869018190385759 381.61781678933215289 31.009497869018190385759 68.93038165320071187
32.009497869018190385759 383.29386894831725385 32.009497869018190385759 69.00818522053138793
33.009497869018218807469 384.89306650386856745 33.009497869018218807469 68.97310878748699281
34.009497869018190385759 386.42355502777473930 34.009497869018190385759 69.03050627577304965
35.009497869018218807469 387.89682960504518405 35.009497869018218807469 69.05047594359311347
36.009497869018190385759 389.32249853219860825 36.009497869018190385759 69.00615495459808812
37.009497869018218807469 390.70969115892324908 37.009497869018218807469 68.95624130109430894
38.009497869018190385759 392.05333353260778040 38.009497869018190385759 68.99511854793608734
39.009497869018190385759 393.35354766952059435 39.009497869018190385759 69.14701672733349369
40.009497869018190385759 394.61091449934320963 40.009497869018190385759 69.32512924919099362
41.009497869018190385759 395.82774274643725221 41.009497869018190385759 69.45615785358832284
42.009497869018190385759 397.00416534770039334 42.009497869018190385759 69.62679211695312631
43.009497869018190385759 398.14336203001664671 43.009497869018190385759 69.72745624059490410
44.009497869018218807469 399.25443840056811950 44.009497869018218807469 69.78336219732953793
46.009497869018218807469 401.39733986214548622 46.009497869018218807469 69.92943812385406943
48.009497869018218807469 403.44107242720264139 48.009497869018218807469 70.04643076705360727
50.009497869018218807469 405.37533040837024600 50.009497869018218807469 70.30122174515572908
52.009497869018190385759 407.20448382686601008 52.009497869018190385759 70.38051808811417231
54.009497869018190385759 408.93042071827915152 54.009497869018190385759 70.35850633624869488
56.009497869018190385759 410.57714835546562426 56.009497869018190385759 70.15917264509303664
58.009497869018190385759 412.15599670897154283 58.009497869018190385759 69.38950835472145684
60.009497869018190385759 413.66591701281174664 60.009497869018190385759 68.86685953858606979
62.009497869018190385759 415.09754338065602042 62.009497869018190385759 68.35684419814607793
64.009497869018190385759 416.44920365326856881 64.009497869018190385759 67.86094501612608099
66.009497869018218807469 417.72745673360873297 66.009497869018218807469 67.38730801648587487
68.009497869018218807469 418.90529637190809353 68.009497869018218807469 66.72744880571653425
70.009497869018218807469 420.01833385298527901 70.009497869018218807469 66.29456647692232707
72.009497869018218807469 421.08179163932362599 72.009497869018218807469 65.96679379696352896
74.009497869018190385759 422.10524045899865087 74.009497869018190385759 65.53138538803203517
76.009497869018190385759 423.08457627502014020 76.009497869018190385759 65.10430745824913856
78.009497869018190385759 424.01829203564398085 78.009497869018190385759 64.99989936379492406
80.009497869018190385759 424.91605142192656785 80.009497869018190385759 64.68636660190466614
82.009497869018190385759 425.80057497987132820 82.009497869018190385759 64.40791018428510029
84.009497869018190385759 426.65581129175291153 84.009497869018190385759 64.36439118499967549
86.009497869018190385759 427.48432167497435330 86.009497869018190385759 64.32551715151555527
88.009497869018218807469 428.28451746484824980 88.009497869018218807469 64.23583358047864067
91.009497869018190385759 429.43390641198260482 91.009497869018190385759 63.97991372906458452
94.009497869018218807469 430.52302906742175992 94.009497869018218807469 63.56964524844266862
97.009497869018190385759 431.55509771089833748 97.009497869018190385759 62.30582507791751112
99.504748934509109403734 432.34922908189025748 99.504748934509109403734 64.51385337602754078
nan nan nan nan

