Time Pressure difference Time.1 Pressure.1 difference.1
(hr) (psi) (hr) (psi)
0.000200000000006639311 0.49222146890806756 0.000200000000006639311 0.39564703477598573
0.000399999999999067768 0.97707010897310242 0.000399999999999067768 1.00333445909810282
0.000600000000005707079 1.45595093822313881 0.000600000000005707079 1.45312709186053990
0.000799999999998135536 1.92951646111270070 0.000799999999998135536 1.90254309848471448
0.001007140329434719206 2.41484062677067168 0.001007140329434719206 2.36559791306135825
0.001267914553963578328 3.01890321379327542 0.001267914553963578328 2.94088844781744418
0.001596209851982166583 3.76915205448445834 0.001596209851982166583 3.64752317403946424
0.002009509145224797066 4.69862200019649467 0.002009509145224797066 4.51147032841146256
0.002529822128138903281 5.84671778475151616 0.002529822128138903281 5.56195539608711176
0.003184857364431081805 7.25993019492305702 0.003184857364431081805 6.83094565323710601
0.004009497869020606231 8.99238108716692608 0.004009497869020606231 8.35207519970084711
0.005047658755842121536 11.10604385379943793 0.005047658755842121536 10.15876148026840653
0.006354625877790454069 13.67042015136175692 0.006354625877790454069 12.28129774439823052
0.008000000000009777068 16.76142017361855352 0.008000000000009777068 14.74276072684295968
0.010071403294347192059 20.45915323044089718 0.010071403294347192059 17.55356315244139509
0.012679145539706837553 24.84429745817612911 0.012679145539706837553 20.70488558439011939
0.015962098519750611558 29.99286351941314877 0.015962098519750611558 24.16165349137958884
0.020095091452091651263 35.96932800091280313 0.020095091452091651263 27.85634629566146003
0.025298221281360611101 42.81854433119750070 0.025298221281360611101 31.68518151696845564
0.031848573644296607199 50.55711813456549919 0.031848573644296607199 35.51081129656420643
0.040094978690177640601 59.16656037583246075 0.040094978690177640601 39.17101842328924732
0.050476587558421215363 68.58866956793086445 0.050476587558421215363 42.49854053641512763
0.063546258777961384112 78.72781647073890099 0.063546258777961384112 45.34613740220931533
0.079999999999998294697 89.45787155659317591 0.079999999999998294697 47.61328130404218939
0.100714032943542974863 100.63677719386599563 0.100714032943542974863 49.26942861682476860
0.126791455396897845276 112.12417946237965793 0.126791455396897845276 50.35821470938952160
0.159620985197506115583 123.79791060480255283 0.159620985197506115583 50.98812920629479351
0.200950914520760193227 135.56729320183356435 0.200950914520760193227 51.30777311391026529
0.252982212813478213320 147.37818856799611922 0.252982212813478213320 51.47277867261330186
0.318485736442795541734 159.21102521705776667 0.318485736442795541734 51.61897006001192523
0.400949786901833249431 171.07344422604964507 0.400949786901833249431 51.84578757831780393
0.504765875584155310207 182.99064948034001077 0.504765875584155310207 52.20920662831124304
0.635462587779443310865 194.99474922697496027 0.635462587779443310865 52.73554065440526983
0.799999999999997157829 207.12137450361390734 0.799999999999997157829 53.42381088090157704
1.007140329435344483500 219.40005605927481724 1.007140329435344483500 54.25843442291891705
1.267914553968893187630 231.85654586353780360 1.267914553968893187630 55.22824660620430137
1.596209851975103788391 244.51176963583489510 1.596209851975103788391 56.32178895800082330
2.009509145207672986544 257.38179252287238796 2.009509145207672986544 57.53397604014235611
2.529822128134711078928 270.47954768466348696 2.529822128134711078928 58.86714455517392253
3.184857364427998049905 283.81494242584909671 3.184857364427998049905 60.32717120015692558
4.009497869018190385759 297.39441137481571786 4.009497869018190385759 61.91043370531830448
5.009497869018204596614 310.75587427582689770 5.009497869018204596614 63.53039744036064462
6.009497869018204596614 321.83259567849705718 6.009497869018204596614 64.91738018260592469
7.009497869018204596614 331.30204216127077643 7.009497869018204596614 66.12635038404422971
8.009497869018204596614 339.57067869404733074 8.009497869018204596614 67.19540952619135510
9.009497869018204596614 346.90872751046231315 9.009497869018204596614 68.14585446109713018
10.009497869018190385759 353.49986480273025791 10.009497869018190385759 68.98739120639045552
11.009497869018190385759 359.47680198641074867 11.009497869018190385759 69.76124096724304025
12.009497869018190385759 364.94160165087464520 12.009497869018190385759 70.43194215646826706
13.009497869018190385759 369.97559097927063476 13.009497869018190385759 71.07103032035706747
14.009497869018190385759 374.62664833387816543 14.009497869018190385759 71.69597257514006117
15.009497869018190385759 378.95980992166016676 15.009497869018190385759 72.21439434224163278
16.009497869018204596614 383.01260016166435207 16.009497869018204596614 72.67805992817343963
17.009497869018204596614 386.80405532560979509 17.009497869018204596614 73.19262914678718346
18.009497869018204596614 390.36244531599169250 18.009497869018204596614 73.56344454078831063
19.009497869018204596614 393.73200545863551270 19.009497869018204596614 73.92291972947910494
20.009497869018204596614 396.92012740398661208 20.009497869018204596614 74.26734411532862623
21.009497869018204596614 399.93612212609934886 21.009497869018204596614 74.68495142427272526
22.009497869018190385759 402.78625011576872339 22.009497869018190385759 75.06250369744736872
23.009497869018190385759 405.50899701536593511 23.009497869018190385759 75.30305625037834716
24.009497869018190385759 408.11752598907577294 24.009497869018190385759 75.55088457056278628
25.009497869018190385759 410.60978463029198338 25.009497869018190385759 75.88590702603849536
26.009497869018190385759 412.99003391653587869 26.009497869018190385759 76.09737823143142066
27.009497869018204596614 415.25814808221559815 27.009497869018204596614 76.35837560622933040
28.009497869018190385759 417.42726181866390789 28.009497869018190385759 76.53962742715404488
29.009497869018190385759 419.51687269258064816 29.009497869018190385759 76.46804328046987109
30.009497869018190385759 421.53144624080846370 30.009497869018190385759 76.45674183507253474
31.009497869018190385759 423.46809781269763562 31.009497869018190385759 76.48966142557775072
32.009497869018190385759 425.32795494822568116 32.009497869018190385759 76.57599735438149935
33.009497869018218807469 427.10252918737836580 33.009497869018218807469 76.53707424931177172
34.009497869018190385759 428.80085938955676284 34.009497869018190385759 76.60076625768867586
35.009497869018218807469 430.43570125318211694 35.009497869018218807469 76.62292590766745093
36.009497869018190385759 432.01771677271852923 36.009497869018190385759 76.57374443846664747
37.009497869018218807469 433.55703647189068306 37.009497869018218807469 76.51835698281281850
38.009497869018190385759 435.04802996090489842 38.009497869018190385759 76.56149771954990513
39.009497869018190385759 436.49083263699594681 39.009497869018190385759 76.73005387772880681
40.009497869018190385759 437.88608913774697839 40.009497869018190385759 76.92769918544057361
41.009497869018190385759 439.23636137476404429 41.009497869018190385759 77.07309709775508111
42.009497869018190385759 440.54179686352620138 42.009497869018190385759 77.26244404055950099
43.009497869018190385759 441.80592403702593174 43.009497869018190385759 77.37414753835531656
44.009497869018218807469 443.03884707274931998 44.009497869018218807469 77.43618444573556303
46.009497869018218807469 445.41675073922095862 46.009497869018218807469 77.59827985119123639
48.009497869018218807469 447.68461010973976499 48.009497869018218807469 77.72810254262267904
50.009497869018218807469 449.83098931932534015 50.009497869018218807469 78.01083528226388353
52.009497869018190385759 451.86073762944050713 52.009497869018190385759 78.09882769257279733
54.009497869018190385759 453.77595012790453666 54.009497869018190385759 78.07440201252875056
56.009497869018190385759 455.60326685541446068 56.009497869018190385759 77.85320830691551919
58.009497869018190385759 457.35526028857998426 58.009497869018190385759 76.99913845310167915
60.009497869018190385759 459.03076664804575557 60.009497869018190385759 76.41917313110761256
62.009497869018190385759 460.61939293355317204 62.009497869018190385759 75.85322674032194357
64.009497869018190385759 462.11928360780916591 64.009497869018190385759 75.30294456250420865
66.009497869018218807469 463.53771685866990993 66.009497869018218807469 74.77736595881425785
68.009497869018218807469 464.84472478444075705 68.009497869018218807469 74.04514300559995377
70.009497869018218807469 466.07982399671413987 70.009497869018218807469 73.56478845115731247
72.009497869018218807469 467.25990633582938472 72.009497869018218807469 73.20107044012495123
74.009497869018190385759 468.39559210784796051 74.009497869018190385759 72.71791278188683805
76.009497869018190385759 469.48232720480859825 76.009497869018190385759 72.24399916835452018
78.009497869018190385759 470.51843930349343736 78.009497869018190385759 72.12814111558654417
80.009497869018190385759 471.51465185667319702 80.009497869018190385759 71.78022464932544722
82.009497869018190385759 472.49617706874198575 82.009497869018190385759 71.47123118962490196
84.009497869018190385759 473.44520323638749915 84.009497869018190385759 71.42293966067808242
86.009497869018190385759 474.36457256498084689 86.009497869018190385759 71.37980248969290642
88.009497869018218807469 475.25252216824242169 88.009497869018218807469 71.28028373149767560
91.009497869018190385759 476.52795934563869196 91.009497869018190385759 70.99629832017018316
94.009497869018218807469 477.73652110269659943 94.009497869018218807469 70.54103757122727814
97.009497869018190385759 478.88177199517900817 97.009497869018190385759 69.13862002140660934
99.504748934509109403734 479.76299212246925663 99.504748934509109403734 71.58879268678150254
nan nan nan nan

