Time Pressure difference Time.1 Pressure.1 difference.1
(hr) (psi) (hr) (psi)
0.000200000000006639311 0.05276746065346118 0.000200000000006639311 0.04241442248854788
0.000399999999999067768 0.10474453429527397 0.000399999999999067768 0.10756014301889209
0.000600000000005707079 0.15608184262358607 0.000600000000005707079 0.15577911872541800
0.000799999999998135536 0.20684933586467813 0.000799999999998135536 0.20395771910053892
0.001007140329434719206 0.25887738712449410 0.001007140329434719206 0.25359843624108369
0.001267914553963578328 0.32363451538152366 0.001267914553963578328 0.31527112338411462
0.001596209851982166583 0.40406320182077948 0.001596209851982166583 0.39102425986352718
0.002009509145224797066 0.50370487104284034 0.002009509145224797066 0.48364171024846492
0.002529822128138903281 0.62678381612076561 0.002529822128138903281 0.59625652487366021
0.003184857364431081805 0.77828397399510163 0.003184857364431081805 0.73229568141905332
0.004009497869020606231 0.96400735272811278 0.004009497869020606231 0.89536484552906914
0.005047658755842121536 1.19059766606895145 0.005047658755842121536 1.08904645684619439
0.006354625877790454069 1.46550567786792696 0.006354625877790454069 1.31658803290031279
0.008000000000009777068 1.79686916434101729 0.008000000000009777068 1.58046346150410288
0.010071403294347192059 2.19327605820471883 0.010071403294347192059 1.88178901466708415
0.012679145539706837553 2.66337527189827838 0.012679145539706837553 2.21961922512724907
0.015962098519750611558 3.21531535216489361 0.015962098519750611558 2.59019400912612019
0.020095091452091651263 3.85600836190690011 0.020095091452091651263 2.98627497976940237
0.025298221281360611101 4.59026270887209353 0.025298221281360611101 3.39673637702844422
0.031848573644296607199 5.41985856048943404 0.031848573644296607199 3.80685414234524178
0.040094978690177640601 6.34281384263530601 0.040094978690177640601 4.19923815593050609
0.050476587558421215363 7.35288919991218570 0.050476587558421215363 4.55595744443981321
0.063546258777961384112 8.43983292148624642 0.063546258777961384112 4.86122746020334340
0.079999999999998294697 9.59012358395638742 0.079999999999998294697 5.10427136257738656
0.100714032943542974863 10.78853222848814752 0.100714032943542974863 5.28181479309344226
0.126791455396897845276 12.02001253868056629 0.126791455396897845276 5.39853558023606261
0.159620985197506115583 13.27146780352992117 0.159620985197506115583 5.46606410251736463
0.200950914520760193227 14.53317716066557352 0.200950914520760193227 5.50033078608083237
0.252982212813478213320 15.79933679790912926 0.252982212813478213320 5.51801982419975090
0.318485736442795541734 17.06784859948358246 0.318485736442795541734 5.53369193273159610
0.400949786901833249431 18.33953170932525722 0.400949786901833249431 5.55800737858013338
0.504765875584155310207 19.61708805149373447 0.504765875584155310207 5.59696687472683330
0.635462587779443310865 20.90395971612461778 0.635462587779443310865 5.65339129293456821
0.799999999999997157829 22.20396644594855928 0.799999999999997157829 5.72717570582529500
1.007140329435344483500 23.52027401640467019 1.007140329435344483500 5.81664958637656682
1.267914553968893187630 24.85564310764894458 1.267914553968893187630 5.92061605158639104
1.596209851975103788391 26.21231701288682814 1.596209851975103788391 6.03784672246575038
2.009509145207672986544 27.59201795890089315 2.009509145207672986544 6.16779642641392112
2.529822128134711078928 28.99613241510630246 2.529822128134711078928 6.31071566420625008
3.184857364427998049905 30.42572247111279538 3.184857364427998049905 6.46723443351766036
4.009497869018190385759 31.88147793632865401 4.009497869018190385759 6.63696441732055575
5.009497869018204596614 33.31386256893286912 5.009497869018204596614 6.81062887132844441
6.009497869018204596614 34.50131678965463067 6.009497869018204596614 6.95931713850381861
7.009497869018204596614 35.51646683135901128 7.009497869018204596614 7.08892198421914710
8.009497869018204596614 36.40288682817257637 8.009497869018204596614 7.20352798940744865
9.009497869018204596614 37.18954532775475030 9.009497869018204596614 7.30541823368545451
10.009497869018190385759 37.89613291017543872 10.009497869018190385759 7.39563322815576019
11.009497869018190385759 38.53687659485810713 11.009497869018190385759 7.47859199648836626
12.009497869018190385759 39.12271776491788700 12.009497869018190385759 7.55049296149743565
13.009497869018190385759 39.66237491235062151 13.009497869018190385759 7.61900492546541397
14.009497869018190385759 40.16098072590988721 14.009497869018190385759 7.68600041006526702
15.009497869018190385759 40.62550726128350220 15.009497869018190385759 7.74157661290362498
16.009497869018204596614 41.05997723676133404 16.009497869018204596614 7.79128280637035253
17.009497869018204596614 41.46643139169015768 17.009497869018204596614 7.84644600568572859
18.009497869018204596614 41.84790033538269682 18.009497869018204596614 7.88619840973275021
19.009497869018204596614 42.20912621332106340 19.009497869018204596614 7.92473511337799508
20.009497869018204596614 42.55090143024312255 20.009497869018204596614 7.96165833062149542
21.009497869018204596614 42.87422414752154509 21.009497869018204596614 8.00642695335587007
22.009497869018190385759 43.17976550654806545 22.009497869018190385759 8.04690156890558050
23.009497869018190385759 43.47165127132901574 23.009497869018190385759 8.07268944727674054
24.009497869018190385759 43.75129256834312486 24.009497869018190385759 8.09925730739701599
25.009497869018190385759 44.01846937410165594 25.009497869018190385759 8.13517261250663992
26.009497869018190385759 44.27363847681456122 26.009497869018190385759 8.15784289248176009
27.009497869018204596614 44.51678639407336391 27.009497869018204596614 8.18582251055054932
28.009497869018190385759 44.74932119999077429 28.009497869018190385759 8.20525319152070054
29.009497869018190385759 44.97333308597179524 29.009497869018190385759 8.19757917914584944
30.009497869018190385759 45.18930076953390795 30.009497869018190385759 8.19636763391062217
31.009497869018190385759 45.39691500839639104 31.009497869018190385759 8.19989670223949041
32.009497869018190385759 45.59629667786673934 32.009497869018190385759 8.20915214519332537
33.009497869018218807469 45.78653579228176085 33.009497869018218807469 8.20497948401332167
34.009497869018190385759 45.96860134159402378 34.009497869018190385759 8.21180743801017599
35.009497869018218807469 46.14386077086039251 35.009497869018218807469 8.21418301187724964
36.009497869018190385759 46.31345707446228488 36.009497869018190385759 8.20891062656929016
37.009497869018218807469 46.47847627169347362 37.009497869018218807469 8.20297294288110734
38.009497869018190385759 46.63831476967824585 38.009497869018190385759 8.20759774547938648
39.009497869018190385759 46.79298708336304458 39.009497869018190385759 8.22566741737796292
40.009497869018190385759 46.94256231962447146 40.009497869018190385759 8.24685552406733002
41.009497869018190385759 47.08731512225276106 41.009497869018190385759 8.26244256994359283
42.009497869018190385759 47.22726130530264044 42.009497869018190385759 8.28274106967472079
43.009497869018190385759 47.36277912624733233 43.009497869018190385759 8.29471598401129029
44.009497869018218807469 47.49495177999322948 44.009497869018218807469 8.30136650674552179
46.009497869018218807469 47.74986942598013684 46.009497869018218807469 8.31874356863691666
48.009497869018218807469 47.99299002851481077 48.009497869018218807469 8.33266090909187795
50.009497869018218807469 48.22308763222248018 50.009497869018218807469 8.36297061652410179
52.009497869018190385759 48.44068209092829846 52.009497869018190385759 8.37240363873477200
54.009497869018190385759 48.64599800366146098 54.009497869018190385759 8.36978514037159194
56.009497869018190385759 48.84189125418178179 56.009497869018190385759 8.34607258231590166
58.009497869018190385759 49.02970964567691681 58.009497869018190385759 8.25451400502262622
60.009497869018190385759 49.20932841788095402 60.009497869018190385759 8.19234016815893895
62.009497869018190385759 49.37963341331223432 62.009497869018190385759 8.13166919829247092
64.009497869018190385759 49.54042571339997636 64.009497869018190385759 8.07267747403730240
66.009497869018218807469 49.69248555938839473 66.009497869018218807469 8.01633403913586662
68.009497869018218807469 49.83260031189984574 68.009497869018218807469 7.93783777614471919
70.009497869018218807469 49.96500625760419467 70.009497869018218807469 7.88634248052607667
72.009497869018218807469 50.09151424705708422 72.009497869018218807469 7.84735093495476921
74.009497869018190385759 50.21326280553143562 74.009497869018190385759 7.79555513909674680
76.009497869018190385759 50.32976372044849001 76.009497869018190385759 7.74475032960584464
78.009497869018190385759 50.44083771427735030 78.009497869018190385759 7.73233003584177503
80.009497869018190385759 50.54763436989461667 80.009497869018190385759 7.69503245821914383
82.009497869018190385759 50.65285650318172372 82.009497869018190385759 7.66190753121607138
84.009497869018190385759 50.75459465180703234 84.009497869018190385759 7.65673054988843660
86.009497869018190385759 50.85315350780363985 86.009497869018190385759 7.65210612954831948
88.009497869018218807469 50.94834408503771073 88.009497869018218807469 7.64143745195284918
91.009497869018190385759 51.08507436871168750 91.009497869018190385759 7.61099345475861266
94.009497869018218807469 51.21463542809478042 94.009497869018218807469 7.56218828234262208
97.009497869018190385759 51.33740939311801554 97.009497869018190385759 7.41184536242884917
99.504748934509109403734 51.43187855249252038 99.504748934509109403734 7.67451043878394668
nan nan nan nan

