Time Pressure difference Time.1 Pressure.1 difference.1
(hr) (psi) (hr) (psi)
0.000200000000006639311 0.42626214309124111 0.000200000000006639311 0.34262900666530083
0.000399999999999067768 0.84613944110400996 0.000399999999999067768 0.86888428032448772
0.000600000000005707079 1.26084863494365607 0.000600000000005707079 1.25840319345376739
0.000799999999998135536 1.67095479128185320 0.000799999999998135536 1.64759594960904088
0.001007140329434719206 2.09124389286505385 0.001007140329434719206 2.04859986776000413
0.001267914553963578328 2.61436006956637090 0.001267914553963578328 2.54679954358730098
0.001596209851982166583 3.26407305220848398 0.001596209851982166583 3.15874284921005533
0.002009509145224797066 4.06899091139294455 0.002009509145224797066 3.90691819060088052
0.002529822128138903281 5.06323801460056000 0.002529822128138903281 4.81663473999503644
0.003184857364431081805 6.28707522742918012 0.003184857364431081805 5.91557605146328935
0.004009497869020606231 7.78737189625678550 0.004009497869020606231 7.23286914278951176
0.005047658755842121536 9.61779677121324994 0.005047658755842121536 8.79745340921066266
0.006354625877790454069 11.83853805402684856 0.006354625877790454069 10.63556270327283926
0.008000000000009777068 14.51533371819228080 0.008000000000009777068 12.76718139996282986
0.010071403294347192059 17.71755815768499787 0.010071403294347192059 15.20132688410754085
0.012679145539706837553 21.51507836830327847 0.012679145539706837553 17.93036155298105783
0.015962098519750611558 25.97371932920703230 0.015962098519750611558 20.92391097997193938
0.020095091452091651263 31.14931754852917578 0.020095091452091651263 24.12350257094970374
0.025298221281360611101 37.08071594510738578 0.025298221281360611101 27.43926104568290114
0.031848573644296607199 43.78229493395370753 0.031848573644296607199 30.75224361863265088
0.040094978690177640601 51.23804307253833201 0.040094978690177640601 33.92197072837611671
0.050476587558421215363 59.39755806804062388 0.050476587558421215363 36.80359373086535868
0.063546258777961384112 68.17802531888108319 0.063546258777961384112 39.26960307695513563
0.079999999999998294697 77.47021707664769963 0.079999999999998294697 41.23294210082045197
0.100714032943542974863 87.15111190825581389 0.100714032943542974863 42.66716012545796133
0.126791455396897845276 97.09916378902894962 0.126791455396897845276 43.61004523409444289
0.159620985197506115583 107.20857585039014737 0.159620985197506115583 44.15554907814808416
0.200950914520760193227 117.40082175100158679 0.200950914520760193227 44.43235963130922528
0.252982212813478213320 127.62901757060969032 0.252982212813478213320 44.57525389236361946
0.318485736442795541734 137.87621446770330635 0.318485736442795541734 44.70185514409742211
0.400949786901833249431 148.14902958939308064 0.400949786901833249431 44.89827835509264276
0.504765875584155310207 158.46928941597283824 0.504765875584155310207 45.21299803490269653
0.635462587779443310865 168.86479958181917027 0.635462587779443310865 45.66880153823706223
0.799999999999997157829 179.36641644617822067 0.799999999999997157829 46.26484124861995895
1.007140329435344483500 189.99971353876895819 1.007140329435344483500 46.98762243994820409
1.267914553968893187630 200.78699197897662998 1.267914553968893187630 47.82747654172131746
1.596209851975103788391 211.74637336972639901 1.596209851975103788391 48.77448055491863954
2.009509145207672986544 222.89177007424626709 2.009509145207672986544 49.82423050712495183
2.529822128134711078928 234.23438216578063020 2.529822128134711078928 50.97874997491611282
3.184857364427998049905 245.78278933695804653 3.184857364427998049905 52.24312815825985012
4.009497869018190385759 257.54256395440495453 4.009497869018190385759 53.61422818366761334
5.009497869018204596614 269.11354606466079531 5.009497869018204596614 55.01711135120008578
6.009497869018204596614 278.70594969142882746 6.009497869018204596614 56.21823375947616341
7.009497869018204596614 286.90645862207202299 7.009497869018204596614 57.26519790377029295
8.009497869018204596614 294.06707015883159784 8.009497869018204596614 58.19099953943204184
9.009497869018204596614 300.42179585076883086 9.009497869018204596614 59.01408166899031471
10.009497869018190385759 306.12969866501094884 10.009497869018190385759 59.74284967119575640
11.009497869018190385759 311.30570624283814141 11.009497869018190385759 60.41300097163257732
12.009497869018190385759 316.03820444472728468 12.009497869018190385759 60.99382595459646694
13.009497869018190385759 320.39762233883237741 13.009497869018190385759 61.54727416352530156
14.009497869018190385759 324.42542242649079753 14.009497869018190385759 62.08847206255847340
15.009497869018190385759 328.17792584505576770 15.009497869018190385759 62.53742357611209712
16.009497869018204596614 331.68762861571264011 16.009497869018204596614 62.93895642021049497
17.009497869018204596614 334.97101608599712108 17.009497869018204596614 63.38457163968003272
18.009497869018204596614 338.05256989676331614 18.009497869018204596614 63.70569652862238286
19.009497869018204596614 340.97059769198421009 19.009497869018204596614 64.01700083775661199
20.009497869018204596614 343.73150061618270001 20.009497869018204596614 64.31527120205176118
21.009497869018204596614 346.34334194169741750 21.009497869018204596614 64.67691773257789123
22.009497869018190385759 348.81154323258363092 22.009497869018190385759 65.00387673631539087
23.009497869018190385759 351.16943292620470629 23.009497869018190385759 65.21219444128242060
24.009497869018190385759 353.42841027864682246 24.009497869018190385759 65.42681293631652295
25.009497869018190385759 355.58669791266498805 25.009497869018190385759 65.71694126040519279
26.009497869018190385759 357.64798582051764697 26.009497869018190385759 65.90007461582922588
27.009497869018204596614 359.61216508962388616 27.009497869018204596614 66.12609746804116639
28.009497869018190385759 361.49061031867546490 28.009497869018190385759 66.28306093775314878
29.009497869018190385759 363.30020633511594497 29.009497869018190385759 66.22106930653755796
30.009497869018190385759 365.04482027889105211 30.009497869018190385759 66.21128229268425969
31.009497869018190385759 366.72195405220213615 31.009497869018190385759 66.23979054777838371
32.009497869018190385759 368.33258410089229073 32.009497869018190385759 66.31455717288983465
33.009497869018218807469 369.86935944702611323 33.009497869018218807469 66.28084989429511609
34.009497869018190385759 371.34010771256419048 34.009497869018190385759 66.33600696017595055
35.009497869018218807469 372.75587528960664940 35.009497869018218807469 66.35519714282091286
36.009497869018190385759 374.12589542964065004 36.009497869018190385759 66.31260615525505386
37.009497869018218807469 375.45894113227382149 37.009497869018218807469 66.26464080421143876
38.009497869018190385759 376.75013649880713729 38.009497869018190385759 66.30200053770066404
39.009497869018190385759 377.99959878279207715 39.009497869018190385759 66.44796960600635316
40.009497869018190385759 379.20788623821641750 40.009497869018190385759 66.61912978035640265
41.009497869018190385759 380.37721747194808586 41.009497869018190385759 66.74504388532558607
42.009497869018190385759 381.50772023189790616 42.009497869018190385759 66.90901770346610533
43.009497869018190385759 382.60245012921677699 43.009497869018190385759 67.00575255834120014
44.009497869018218807469 383.67015734775782221 44.009497869018218807469 67.05947631230365857
46.009497869018218807469 385.72941395674581599 46.009497869018218807469 67.19985039039509900
48.009497869018218807469 387.69337257409620179 48.009497869018218807469 67.31227640625783692
50.009497869018218807469 389.55212977904716354 50.009497869018218807469 67.55712201160876873
52.009497869018190385759 391.30988501578019623 52.009497869018190385759 67.63332314415431767
54.009497869018190385759 392.96845262332772108 54.009497869018190385759 67.61217058706426997
56.009497869018190385759 394.55090278768722101 56.009497869018190385759 67.42061757902062880
58.009497869018190385759 396.06812323148380983 58.009497869018190385759 66.68099594682340125
60.009497869018190385759 397.51910612569452041 60.009497869018190385759 66.17874792090891845
62.009497869018190385759 398.89485116691292887 62.009497869018190385759 65.68864024245637268
64.009497869018190385759 400.19375146605921145 64.009497869018190385759 65.21209771995758331
66.009497869018218807469 401.42210990943436855 66.009497869018218807469 64.75694840989442014
68.009497869018218807469 402.55397439456595521 68.009497869018218807469 64.12284578541905944
70.009497869018218807469 403.62356617470885567 70.009497869018218807469 63.70686035049970997
72.009497869018218807469 404.64551352700800635 72.009497869018218807469 63.39188177143149261
74.009497869018190385759 405.62901360093366065 74.009497869018190385759 62.97346885801590588
76.009497869018190385759 406.57012255424803016 76.009497869018190385759 62.56306125634721838
78.009497869018190385759 407.46739216064673883 78.009497869018190385759 62.46272857078434271
80.009497869018190385759 408.33010889430494217 80.009497869018190385759 62.16143407655151520
82.009497869018190385759 409.18010643976481333 82.009497869018190385759 61.89384677560482118
84.009497869018190385759 410.00195992162866787 84.009497869018190385759 61.85202647331752956
86.009497869018190385759 410.79813068022627931 86.009497869018190385759 61.81466982775751262
88.009497869018218807469 411.56709206194528861 88.009497869018218807469 61.72848691655661213
91.009497869018190385759 412.67161638474908614 91.009497869018190385759 61.48255650172192333
94.009497869018218807469 413.71822681757817008 94.009497869018218807469 61.08830221829899898
97.009497869018190385759 414.71001025378149052 97.009497869018190385759 59.87381331837054432
99.504748934509109403734 415.47314393185365589 99.504748934509109403734 61.99565463830155920
nan nan nan nan

