Time Pressure difference Time.1 Pressure.1 difference.1
(hr) (psi) (hr) (psi)
0.000200000000006639311 0.23827806451328562 0.000200000000006639311 0.19152762654984901
0.000399999999999067768 0.47298703767709649 0.000399999999999067768 0.48570127081968462
0.000600000000005707079 0.70480707059713077 0.000600000000005707079 0.70344008299446570
0.000799999999998135536 0.93405403226393724 0.000799999999998135536 0.92099657531337109
0.001007140329434719206 1.16899320123404382 0.001007140329434719206 1.14515543865114355
0.001267914553963578328 1.46141210851969272 0.001267914553963578328 1.42364616653139242
0.001596209851982166583 1.82459789572195707 0.001596209851982166583 1.76571892344623982
0.002009509145224797066 2.27454230830282578 0.002009509145224797066 2.18394459784072437
0.002529822128138903281 2.83032066967033202 0.002529822128138903281 2.69247087013262210
0.003184857364431081805 3.51443857007163096 0.003184857364431081805 3.30677268640791233
0.004009497869020606231 4.35309570216288488 0.004009497869020606231 4.04313188059220341
0.005047658755842121536 5.37629258584260938 0.005047658755842121536 4.91772540669609626
0.006354625877790454069 6.61767407662235740 0.006354625877790454069 5.94521783606547505
0.008000000000009777068 8.11398732022740532 0.008000000000009777068 7.13678031835446358
0.010071403294347192059 9.90401220033068341 0.010071403294347192059 8.49745351935605164
0.012679145539706837553 12.02680396216566372 0.012679145539706837553 10.02296806346523361
0.015962098519750611558 14.51915838711959772 0.015962098519750611558 11.69634482246013540
0.020095091452091651263 17.41228775923584848 0.020095091452091651263 13.48489795552120718
0.025298221281360611101 20.72790504475054618 0.025298221281360611101 15.33838770251906958
0.031848573644296607199 24.47404881221009987 0.031848573644296607199 17.19032573652773266
0.040094978690177640601 28.64176875815005374 0.040094978690177640601 18.96218479787368949
0.050476587558421215363 33.20289029335346243 0.050476587558421215363 20.57299533504852818
0.063546258777961384112 38.11112053608633232 0.063546258777961384112 21.95148024998072245
0.079999999999998294697 43.30540180880306167 0.079999999999998294697 23.04897537163851240
0.100714032943542974863 48.71696584426678811 0.100714032943542974863 23.85069492506257660
0.126791455396897845276 54.27786911997943520 0.126791455396897845276 24.37776222950347105
0.159620985197506115583 59.92897180031479820 0.159620985197506115583 24.68269571292997355
0.200950914520760193227 65.62637811613048200 0.200950914520760193227 24.83743120589625875
0.252982212813478213320 71.34388022805840990 0.252982212813478213320 24.91730826865200044
0.318485736442795541734 77.07200383204305183 0.318485736442795541734 24.98807763374111346
0.400949786901833249431 82.81444787492186776 0.400949786901833249431 25.09787706890091386
0.504765875584155310207 88.58341323252639654 0.504765875584155310207 25.27380354368835569
0.635462587779443310865 94.39444309312523274 0.635462587779443310865 25.52859505715765920
0.799999999999997157829 100.26478598248645824 0.799999999999997157829 25.86177779661734633
1.007140329435344483500 106.20873735532732951 1.007140329435344483500 26.26580828848168636
1.267914553968893187630 112.23876340797725959 1.267914553968893187630 26.73528185794479484
1.596209851975103788391 118.36499401131707998 1.596209851975103788391 27.26465160613440375
2.009509145207672986544 124.59520609566183680 2.009509145207672986544 27.85145573802536134
2.529822128134711078928 130.93566043696438328 2.529822128134711078928 28.49682542118134876
3.184857364427998049905 137.39115303361873544 3.184857364427998049905 29.20360548885318508
4.009497869018190385759 143.96479880623408576 4.009497869018190385759 29.97004244696313435
5.009497869018204596614 150.43291066283745749 5.009497869018204596614 30.75424599709250373
6.009497869018204596614 155.79500862828419372 6.009497869018204596614 31.42566645355630683
7.009497869018204596614 160.37904553535554442 7.009497869018204596614 32.01091333498958136
8.009497869018204596614 164.38178583346677897 8.009497869018204596614 32.52843107716800830
9.009497869018204596614 167.93404062064254845 9.009497869018204596614 32.98852921148587569
10.009497869018190385759 171.12472517251094928 10.009497869018190385759 33.39590629589085324
11.009497869018190385759 174.01808337365613966 11.009497869018190385759 33.77051698414278036
12.009497869018190385759 176.66352240720732425 12.009497869018190385759 34.09519477926185260
13.009497869018190385759 179.10041171358327006 13.009497869018190385759 34.40456911655476091
14.009497869018190385759 181.35192859043684166 14.009497869018190385759 34.70709560170097063
15.009497869018190385759 183.44955622673330708 15.009497869018190385759 34.95805689264292937
16.009497869018204596614 185.41145970975040314 16.009497869018204596614 35.18251142251612151
17.009497869018204596614 187.24685425310087794 17.009497869018204596614 35.43160774442462468
18.009497869018204596614 188.96942495196248046 18.009497869018204596614 35.61111469394945317
19.009497869018204596614 190.60058555702795502 19.009497869018204596614 35.78513199634750919
20.009497869018204596614 192.14391427094159326 20.009497869018204596614 35.95186339921269081
21.009497869018204596614 193.60391841615196995 21.009497869018204596614 36.15402171124760144
22.009497869018190385759 194.98362861550612024 22.009497869018190385759 36.33678989708926110
23.009497869018190385759 196.30167527209508194 23.009497869018190385759 36.45323828535902777
24.009497869018190385759 197.56443050392442728 24.009497869018190385759 36.57320877871465115
25.009497869018190385759 198.77090076742777569 25.009497869018190385759 36.73538882835029540
26.009497869018190385759 199.92314874686576331 26.009497869018190385759 36.83775931136295156
27.009497869018204596614 201.02111356073754678 27.009497869018204596614 36.96410477420482010
28.009497869018190385759 202.07115354370833415 28.009497869018190385759 37.05184644296065954
29.009497869018190385759 203.08270721634139022 29.009497869018190385759 37.01719348083047834
30.009497869018190385759 204.05793628742654278 30.009497869018190385759 37.01172259687765376
31.009497869018190385759 204.99544433478996552 31.009497869018190385759 37.02765854605019769
32.009497869018190385759 205.89577718599198874 32.009497869018190385759 37.06945265563861369
33.009497869018218807469 206.75482568702233266 33.009497869018218807469 37.05061048249765321
34.009497869018190385759 207.57696543313551274 34.009497869018190385759 37.08144296226470260
35.009497869018218807469 208.36837129341645891 35.009497869018218807469 37.09217016300819836
36.009497869018190385759 209.13420460186875971 36.009497869018190385759 37.06836204810194602
37.009497869018218807469 209.87936941436583993 37.009497869018218807469 37.04154969519750296
38.009497869018190385759 210.60114013182834469 38.009497869018190385759 37.06243356943035394
39.009497869018190385759 211.29958229831123617 39.009497869018190385759 37.14402943159736026
40.009497869018190385759 211.97500797455424504 40.009497869018190385759 37.23970697586653955
41.009497869018190385759 212.62865734892261571 41.009497869018190385759 37.31009222990153518
42.009497869018190385759 213.26060183175727047 42.009497869018190385759 37.40175264274991207
43.009497869018190385759 213.87254949196062626 43.009497869018190385759 37.45582686530097760
44.009497869018218807469 214.46939163153191998 44.009497869018218807469 37.48585813202274153
46.009497869018218807469 215.62050412669154298 46.009497869018218807469 37.56432642712607617
48.009497869018218807469 216.71834559751221150 48.009497869018218807469 37.62717191761801416
50.009497869018218807469 217.75738008925461031 50.009497869018218807469 37.76403919024164679
52.009497869018190385759 218.73995506684809698 52.009497869018190385759 37.80663518116170252
54.009497869018190385759 219.66708473528376544 54.009497869018190385759 37.79481102449047114
56.009497869018190385759 220.55166519466462205 56.009497869018190385759 37.68773400452023736
58.009497869018190385759 221.39978261875981502 58.009497869018190385759 37.27428980393030145
60.009497869018190385759 222.21087363699368211 60.009497869018190385759 36.99353607184270487
62.009497869018190385759 222.97990713198805679 62.009497869018190385759 36.71956872353943169
64.009497869018190385759 223.70598486207177302 64.009497869018190385759 36.45318421869969683
66.009497869018218807469 224.39263010411323762 66.009497869018218807469 36.19875839547289331
68.009497869018218807469 225.02533578342274723 68.009497869018218807469 35.84429870790349781
70.009497869018218807469 225.62323138199394634 70.009497869018218807469 35.61176526362557127
72.009497869018218807469 226.19449402186714337 72.009497869018218807469 35.43569406565512736
74.009497869018190385759 226.74426485622791461 74.009497869018190385759 35.20180367498374352
76.009497869018190385759 227.27033930015022634 76.009497869018190385759 34.97238820712639296
78.009497869018190385759 227.77190780353365085 78.009497869018190385759 34.91630281809801062
80.009497869018190385759 228.25416145155534764 80.009497869018190385759 34.74788094414581963
82.009497869018190385759 228.72930514717995720 82.009497869018190385759 34.59830119564757211
84.009497869018190385759 229.18871647456614937 84.009497869018190385759 34.57492388933997063
86.009497869018190385759 229.63377130867581855 86.009497869018190385759 34.55404174124162608
88.009497869018218807469 230.06361625899839396 88.009497869018218807469 34.50586599397458087
91.009497869018190385759 230.68103894621370387 91.009497869018190385759 34.36839231914436255
94.009497869018218807469 231.26608810499050151 94.009497869018218807469 34.14800646245339522
97.009497869018190385759 231.82048929079854815 97.009497869018190385759 33.46911421471777714
99.504748934509109403734 232.24707658859901471 99.504748934509109403734 34.65521120013375622
nan nan nan nan

