Time Pressure difference Time.1 Pressure.1 difference.1
(hr) (psi) (hr) (psi)
0.000200000000006639311 0.05029398593533019 0.000200000000006639311 0.04042624643439720
0.000399999999999067768 0.09983463425018299 0.000399999999999067768 0.10251826131488154
0.000600000000005707079 0.14876550625060547 0.000600000000005707079 0.14847697253516404
0.000799999999998135536 0.19715327324602136 0.000799999999998135536 0.19439720101770117
0.001007140329434719206 0.24674250960303343 0.001007140329434719206 0.24171100954228289
0.001267914553963578328 0.30846414747301476 0.001267914553963578328 0.30049278947548425
0.001596209851982166583 0.38512273923543039 0.001596209851982166583 0.37269499768242437
0.002009509145224797066 0.48009370521270722 0.002009509145224797066 0.46097100508056815
0.002529822128138903281 0.59740332474010471 0.002529822128138903281 0.56830700027020742
0.003184857364431081805 0.74180191271408125 0.003184857364431081805 0.69796932135253520
0.004009497869020606231 0.91881950806898249 0.004009497869020606231 0.85339461839489406
0.005047658755842121536 1.13478840047196949 0.005047658755842121536 1.03799740418152875
0.006354625877790454069 1.39681009921786781 0.006354625877790454069 1.25487296885811062
0.008000000000009777068 1.71264092226253228 0.008000000000009777068 1.50637923674609797
0.010071403294347192059 2.09046624297637296 0.010071403294347192059 1.79358015460456466
0.012679145539706837553 2.53852955602804675 0.012679145539706837553 2.11557457394940895
0.015962098519750611558 3.06459744503216447 0.015962098519750611558 2.46877866494833320
0.020095091452091651263 3.67525796994251408 0.020095091452091651263 2.84629334009271195
0.025298221281360611101 4.37509414439371458 0.025298221281360611101 3.23751435935523624
0.031848573644296607199 5.16580269046649221 0.031848573644296607199 3.62840785442280866
0.040094978690177640601 6.04549444376177636 0.040094978690177640601 4.00239886737126316
0.050476587558421215363 7.00822251866630275 0.050476587558421215363 4.34239693923169678
0.063546258777961384112 8.04421575329157967 0.063546258777961384112 4.63335742300631193
0.079999999999998294697 9.14058654095843082 0.079999999999998294697 4.86500864245657194
0.100714032943542974863 10.28281978027776411 0.100714032943542974863 5.03422972466718743
0.126791455396897845276 11.45657445092991544 0.126791455396897845276 5.14547922491249743
0.159620985197506115583 12.64936775023945614 0.159620985197506115583 5.20984234771186294
0.200950914520760193227 13.85193448125937543 0.200950914520760193227 5.24250278048329310
0.252982212813478213320 15.05874288550713835 0.252982212813478213320 5.25936264494038763
0.318485736442795541734 16.26779319638279020 0.318485736442795541734 5.27430012338480303
0.400949786901833249431 17.47986616045063357 0.400949786901833249431 5.29747578270918940
0.504765875584155310207 18.69753704907996550 0.504765875584155310207 5.33460905247401307
0.635462587779443310865 19.92408660443127744 0.635462587779443310865 5.38838857607826061
0.799999999999997157829 21.16315551879471712 0.799999999999997157829 5.45871434461473370
1.007140329435344483500 22.41776117188570083 1.007140329435344483500 5.54399413701516508
1.267914553968893187630 23.69053483697789986 1.267914553968893187630 5.64308717416827932
1.596209851975103788391 24.98361465290775740 1.596209851975103788391 5.75482265735016885
2.009509145207672986544 26.29864211707741006 2.009509145207672986544 5.87868096892576819
2.529822128134711078928 27.63693870814819675 2.529822128134711078928 6.01490086744658203
3.184857364427998049905 28.99951673027938170 3.184857364427998049905 6.16408281944652003
4.009497869018190385759 30.38703365806324896 4.009497869018190385759 6.32585671025865448
5.009497869018204596614 31.75227526101414099 5.009497869018204596614 6.49138064298492345
6.009497869018204596614 32.88406756513956708 6.009497869018204596614 6.63309914763645203
7.009497869018204596614 33.85163244863905874 7.009497869018204596614 6.75662876620887420
8.009497869018204596614 34.69650150810198852 8.009497869018204596614 6.86586261490397476
9.009497869018204596614 35.44628539051625182 9.009497869018204596614 6.96297675398144911
10.009497869018190385759 36.11975168001096392 10.009497869018190385759 7.04896292058595897
11.009497869018190385759 36.73046050447413080 11.009497869018190385759 7.12803299665297363
12.009497869018190385759 37.28884036968735671 12.009497869018190385759 7.19656360392724359
13.009497869018190385759 37.80320108833418402 13.009497869018190385759 7.26186406958422292
14.009497869018190385759 38.27843475438286447 14.009497869018190385759 7.32571914084345721
15.009497869018190385759 38.72118660841083937 15.009497869018190385759 7.37869020917376783
16.009497869018204596614 39.13529080378814484 16.009497869018204596614 7.42606642482174273
17.009497869018204596614 39.52269242020468454 17.009497869018204596614 7.47864384916921043
18.009497869018204596614 39.88628000716163768 18.009497869018204596614 7.51653285927652792
19.009497869018204596614 40.23057342207164311 19.009497869018204596614 7.55326315493840106
20.009497869018204596614 40.55632792570047940 20.009497869018204596614 7.58845559637361333
21.009497869018204596614 40.86449489060647267 21.009497869018204596614 7.63112568991731433
22.009497869018190385759 41.15571399842863087 22.009497869018190385759 7.66970305786313045
23.009497869018190385759 41.43391761798547179 23.009497869018190385759 7.69428212943564382
24.009497869018190385759 41.70045072920203921 24.009497869018190385759 7.71960462111278023
25.009497869018190385759 41.95510362219064149 25.009497869018190385759 7.75383639629539090
26.009497869018190385759 42.19831167321387966 26.009497869018190385759 7.77544400689667725
27.009497869018204596614 42.43006203185117897 27.009497869018204596614 7.80211208036849335
28.009497869018190385759 42.65169676874120341 28.009497869018190385759 7.82063194816816765
29.009497869018190385759 42.86520809756687100 29.009497869018190385759 7.81331765512338627
30.009497869018190385759 43.07105229596200502 30.009497869018190385759 7.81216290107106204
31.009497869018190385759 43.26893461737780910 31.009497869018190385759 7.81552654432201344
32.009497869018190385759 43.45897027109173649 32.009497869018190385759 7.82434813838738918
33.009497869018218807469 43.64029192701855919 33.009497869018218807469 7.82037107070019832
34.009497869018190385759 43.81382315370679947 34.009497869018190385759 7.82687896435344932
35.009497869018218807469 43.98086729722631105 35.009497869018218807469 7.82914318319550251
36.009497869018190385759 44.14251377409686938 36.009497869018190385759 7.82411794094885416
37.009497869018218807469 44.29979769645784415 37.009497869018218807469 7.81845858618355471
38.009497869018190385759 44.45214376484958052 38.009497869018190385759 7.82286660116004118
39.009497869018190385759 44.59956581383040231 39.009497869018190385759 7.84008925718837091
40.009497869018190385759 44.74212971089207258 40.009497869018190385759 7.86028417137667468
41.009497869018190385759 44.88009722589716688 41.009497869018190385759 7.87514057447748606
42.009497869018190385759 45.01348343161658505 42.009497869018190385759 7.89448758203371792
43.009497869018190385759 45.14264885470448974 43.009497869018190385759 7.90590117226076128
44.009497869018218807469 45.26862591530604618 44.009497869018218807469 7.91223995174182537
46.009497869018218807469 45.51159429663731970 46.009497869018218807469 7.92880246385706133
48.009497869018218807469 45.74331862092817858 48.009497869018218807469 7.94206742897819673
50.009497869018218807469 45.96263039946204998 50.009497869018218807469 7.97095636887453551
52.009497869018190385759 46.17002511791603325 52.009497869018190385759 7.97994721816907848
54.009497869018190385759 46.36571684723983111 54.009497869018190385759 7.97745146191667409
56.009497869018190385759 46.55242760164200888 56.009497869018190385759 7.95485043001984327
58.009497869018190385759 46.73144200603581311 58.009497869018190385759 7.86758366103719098
60.009497869018190385759 46.90264114829277986 60.009497869018190385759 7.80832422277648774
62.009497869018190385759 47.06496309706322734 62.009497869018190385759 7.75049720462251113
64.009497869018190385759 47.21821825808435591 64.009497869018190385759 7.69427071744180324
66.009497869018218807469 47.36315029879207117 66.009497869018218807469 7.64056838105137270
68.009497869018218807469 47.49669717227953925 68.009497869018218807469 7.56575163038793530
70.009497869018218807469 47.62289658927899438 70.009497869018218807469 7.51667017675141658
72.009497869018218807469 47.74347451672628040 72.009497869018218807469 7.47950635987876389
74.009497869018190385759 47.85951611152215435 74.009497869018190385759 7.43013849195158649
76.009497869018190385759 47.97055604605247225 76.009497869018190385759 7.38171515790557020
78.009497869018190385759 48.07642344642059840 78.009497869018190385759 7.36987706541169185
80.009497869018190385759 48.17821400880580285 80.009497869018190385759 7.33432781174012138
82.009497869018190385759 48.27850385459507976 82.009497869018190385759 7.30275561569031773
84.009497869018190385759 48.37547302750358114 84.009497869018190385759 7.29782130536241613
86.009497869018190385759 48.46941193712534357 86.009497869018190385759 7.29341365472574132
88.009497869018218807469 48.56014045605157037 88.009497869018218807469 7.28324507139255939
91.009497869018190385759 48.69046150767832870 91.009497869018190385759 7.25422813656680265
94.009497869018218807469 48.81394939240283293 94.009497869018218807469 7.20771070660781188
97.009497869018190385759 48.93096832781561289 97.009497869018190385759 7.06441511106499664
99.504748934509109403734 49.02100924534443038 99.504748934509109403734 7.31476776196594880
nan nan nan nan

