Time Pressure difference Time.1 Pressure.1 difference.1
(hr) (psi) (hr) (psi)
0.000200000000006639311 0.18221263756898315 0.000200000000006639311 0.14646230265576690
0.000399999999999067768 0.36169596998836789 0.000399999999999067768 0.37141861886211180
0.000600000000005707079 0.53897011280957063 0.000600000000005707079 0.53792476934870903
0.000799999999998135536 0.71427661290771671 0.000799999999998135536 0.70429149876904851
0.001007140329434719206 0.89393597741426878 0.001007140329434719206 0.87570710014499198
0.001267914553963578328 1.11755043592682402 0.001267914553963578328 1.08867059793577070
0.001596209851982166583 1.39528074378737910 0.001596209851982166583 1.35025564734124215
0.002009509145224797066 1.73935588281980813 0.002009509145224797066 1.67007528070173028
0.002529822128138903281 2.16436286504201858 0.002529822128138903281 2.05894831245435794
0.003184857364431081805 2.68751184770183560 0.003184857364431081805 2.52870852490016818
0.004009497869020606231 3.32883788988926455 0.004009497869020606231 3.09180673221756708
0.005047658755842121536 4.11128256564434835 0.005047658755842121536 3.76061354629701450
0.006354625877790454069 5.06057429388768476 0.006354625877790454069 4.54634305110889247
0.008000000000009777068 6.20481383311507617 0.008000000000009777068 5.45753789050635518
0.010071403294347192059 7.57365638848817024 0.010071403294347192059 6.49805269127227536
0.012679145539706837553 9.19696773577374316 0.012679145539706837553 7.66462263676753164
0.015962098519750611558 11.10288582544439784 0.015962098519750611558 8.94426368776363390
0.020095091452091651263 13.31527887470976346 0.020095091452091651263 10.31198078951621788
0.025298221281360611101 15.85075091657394708 0.025298221281360611101 11.72935530192634701
0.031848573644296607199 18.71544909169007909 0.031848573644296607199 13.14554321028591133
0.040094978690177640601 21.90252905035004005 0.040094978690177640601 14.50049425719752882
0.050476587558421215363 25.39044551844676789 0.050476587558421215363 15.73229055033122670
0.063546258777961384112 29.14379805700719572 0.063546258777961384112 16.78642607351467220
0.079999999999998294697 33.11589550084939759 0.079999999999998294697 17.62568704890004057
0.100714032943542974863 37.25415035149813292 0.100714032943542974863 18.23876670740079575
0.126791455396897845276 41.50660579763133029 0.126791455396897845276 18.64181817550265308
0.159620985197506115583 45.82803725906425996 0.159620985197506115583 18.87500260400527452
0.200950914520760193227 50.18487738292331102 0.200950914520760193227 18.99332974568537225
0.252982212813478213320 54.55708488027996594 0.252982212813478213320 19.05441220543976755
0.318485736442795541734 58.93741469509174635 0.318485736442795541734 19.10852995521379327
0.400949786901833249431 63.32869543376377663 0.400949786901833249431 19.19249422915952508
0.504765875584155310207 67.74025717781429989 0.504765875584155310207 19.32702623929109365
0.635462587779443310865 72.18398589474281835 0.635462587779443310865 19.52186680841468203
0.799999999999997157829 76.67307163366612599 0.799999999999997157829 19.77665360917796988
1.007140329435344483500 81.21844621289737631 1.007140329435344483500 20.08561810295658390
1.267914553968893187630 85.82964260610026486 1.267914553968893187630 20.44462730313425780
1.596209851975103788391 90.51440718512482420 1.596209851975103788391 20.84943946351454258
2.009509145207672986544 95.27868701432963405 2.009509145207672986544 21.29817203496056877
2.529822128134711078928 100.12726974591394935 2.529822128134711078928 21.79169002796220411
3.184857364427998049905 105.06382290806136837 3.184857364427998049905 22.33216890324067094
4.009497869018190385759 110.09072849888488577 4.009497869018190385759 22.91826775356004475
5.009497869018204596614 115.03693168334631025 5.009497869018204596614 23.51795282130603582
6.009497869018204596614 119.13735953927614730 6.009497869018204596614 24.03139199389600122
7.009497869018204596614 122.64279952703657273 7.009497869018204596614 24.47893372675673973
8.009497869018204596614 125.70371857853342590 8.009497869018204596614 24.87468258842259416
9.009497869018204596614 128.42014870990311692 9.009497869018204596614 25.22652233819508538
10.009497869018190385759 130.86008395544953942 10.009497869018190385759 25.53804599097536254
11.009497869018190385759 133.07265199161938085 11.009497869018190385759 25.82451298787389149
12.009497869018190385759 135.09563478198205644 12.009497869018190385759 26.07279600767083139
13.009497869018190385759 136.95913836921073425 13.009497869018190385759 26.30937638324775563
14.009497869018190385759 138.68088656915759316 14.009497869018190385759 26.54072016600662209
15.009497869018190385759 140.28495476161958777 15.009497869018190385759 26.73263174143283294
16.009497869018204596614 141.78523389569150481 16.009497869018204596614 26.90427344074762317
17.009497869018204596614 143.18877089943009651 17.009497869018204596614 27.09475886338353590
18.009497869018204596614 144.50603084561836909 18.009497869018204596614 27.23202888360840390
19.009497869018204596614 145.75338895537430517 19.009497869018204596614 27.36510093838338875
20.009497869018204596614 146.93358150130828221 20.009497869018204596614 27.49260142292735054
21.009497869018204596614 148.05005525941032829 21.009497869018204596614 27.64719307330699039
22.009497869018190385759 149.10512776479879449 22.009497869018190385759 27.78695698012707993
23.009497869018190385759 150.11304579630800049 23.009497869018190385759 27.87600574762749517
24.009497869018190385759 151.07868215005987622 24.009497869018190385759 27.96774788960532021
25.009497869018190385759 152.00127705744480977 25.009497869018190385759 28.09176792756198893
26.009497869018190385759 152.88240786525031467 26.009497869018190385759 28.17005123810107747
27.009497869018204596614 153.72202801703457453 27.009497869018204596614 28.26666835674486578
28.009497869018190385759 154.52499976871814624 28.009497869018190385759 28.33376492696991988
29.009497869018190385759 155.29854081249635556 29.009497869018190385759 28.30726560298800720
30.009497869018190385759 156.04430421979677135 30.009497869018190385759 28.30308198584761925
31.009497869018190385759 156.76122213836879382 31.009497869018190385759 28.31526829992074212
32.009497869018190385759 157.44971196575858130 32.009497869018190385759 28.34722850137070083
33.009497869018218807469 158.10663140772294355 33.009497869018218807469 28.33281978073350160
34.009497869018190385759 158.73532650769186603 34.009497869018190385759 28.35639755937889106
35.009497869018218807469 159.34051922437731719 35.009497869018218807469 28.36460071288862750
36.009497869018190385759 159.92615646025259935 36.009497869018190385759 28.34639450737207866
37.009497869018218807469 160.49598837569152465 37.009497869018218807469 28.32589094338632307
38.009497869018190385759 161.04793068904518805 38.009497869018190385759 28.34186096485850825
39.009497869018190385759 161.58203352223802085 39.009497869018190385759 28.40425780063327821
40.009497869018190385759 162.09853550995325122 40.009497869018190385759 28.47742298154500062
41.009497869018190385759 162.59838503152906242 41.009497869018190385759 28.53124699933646724
42.009497869018190385759 163.08163669487319680 42.009497869018190385759 28.60134025622051723
43.009497869018190385759 163.54959667032284187 43.009497869018190385759 28.64269113228898433
44.009497869018218807469 164.00600536528912698 44.009497869018218807469 28.66565621860562985
46.009497869018218807469 164.88626786158764048 46.009497869018218807469 28.72566138544935299
48.009497869018218807469 165.72579369221520551 48.009497869018218807469 28.77371970170789339
50.009497869018218807469 166.52034948001823977 50.009497869018218807469 28.87838291018478998
52.009497869018190385759 167.27173034523679007 52.009497869018190385759 28.91095631500600760
54.009497869018190385759 167.98071185639349778 54.009497869018190385759 28.90191431284565482
56.009497869018190385759 168.65715573709647401 56.009497869018190385759 28.82003188580959474
58.009497869018190385759 169.30571612022811223 58.009497869018190385759 28.50386867359375387
60.009497869018190385759 169.92596219299517202 60.009497869018190385759 28.28917464317383335
62.009497869018190385759 170.51404663034381315 62.009497869018190385759 28.07967020035368577
64.009497869018190385759 171.06928254158430036 64.009497869018190385759 27.87596440253505747
66.009497869018218807469 171.59436419726304734 66.009497869018218807469 27.68140347889103836
68.009497869018218807469 172.07819795202914293 68.009497869018218807469 27.41034607074973195
70.009497869018218807469 172.53541223328949172 70.009497869018218807469 27.23252637806660914
72.009497869018218807469 172.97226013436900871 72.009497869018218807469 27.09788369726568291
74.009497869018190385759 173.39267312535073984 74.009497869018190385759 26.91902633969345260
76.009497869018190385759 173.79496534717370082 76.009497869018190385759 26.74359098192018180
78.009497869018190385759 174.17851773211398836 78.009497869018190385759 26.70070215501612765
80.009497869018190385759 174.54729993354234807 80.009497869018190385759 26.57190895728798097
82.009497869018190385759 174.91064511254938907 82.009497869018190385759 26.45752444373049528
84.009497869018190385759 175.26195965702117974 84.009497869018190385759 26.43964768008351029
86.009497869018190385759 175.60229570663446452 86.009497869018190385759 26.42367897859654136
88.009497869018218807469 175.93100066864585074 88.009497869018218807469 26.38683870127468012
91.009497869018190385759 176.40314742945753324 91.009497869018190385759 26.28171177346333209
94.009497869018218807469 176.85053796263977688 94.009497869018218807469 26.11318141246436397
97.009497869018190385759 177.27449181061066952 97.009497869018190385759 25.59402851713712224
99.504748934509109403734 177.60070562657574555 99.504748934509109403734 26.50104385892581149
nan nan nan nan

