Time Pressure difference Time.1 Pressure.1 difference.1
(hr) (psi) (hr) (psi)
0.000200000000006639311 0.35040891840189065 0.000200000000006639311 0.28165827433801327
0.000399999999999067768 0.69556917305455368 0.000399999999999067768 0.71426657473483035
0.000600000000005707079 1.03648098617225126 0.000600000000005707079 1.03447071028597892
0.000799999999998135536 1.37360887097637829 0.000799999999998135536 1.35440672840201626
0.001007140329434719206 1.71910764887359369 0.001007140329434719206 1.68405211566344626
0.001267914553963578328 2.14913545370543080 0.001267914553963578328 2.09359730372263630
0.001596209851982166583 2.68323219959111370 0.001596209851982166583 2.59664547565623494
0.002009509145224797066 3.34491515926886152 0.002009509145224797066 3.21168323211871254
0.002529822128138903281 4.16223627892695891 0.002529822128138903281 3.95951598548915040
0.003184857364431081805 5.16829201481122169 0.003184857364431081805 4.86290100942340064
0.004009497869020606231 6.40161132671012467 0.004009497869020606231 5.94578217734147518
0.005047658755842121536 7.90631262623913234 0.005047658755842121536 7.23194912749425978
0.006354625877790454069 9.73187364209170269 0.006354625877790454069 8.74296740597864108
0.008000000000009777068 11.93233429445206717 0.008000000000009777068 10.49526517405068304
0.010071403294347192059 14.56472382401571330 0.010071403294347192059 12.49625517552360598
0.012679145539706837553 17.68647641494950662 0.012679145539706837553 14.73965891686063756
0.015962098519750611558 21.35170351046999571 0.015962098519750611558 17.20050709185314020
0.020095091452091651263 25.60630552828800788 0.020095091452091651263 19.83073228753118755
0.025298221281360611101 30.48221330110374794 0.025298221281360611101 22.55645250370451294
0.031848573644296607199 35.99124825325014854 0.031848573644296607199 25.27989078901136821
0.040094978690177640601 42.12024817375007757 0.040094978690177640601 27.88556587922601437
0.050476587558421215363 48.82777984316685860 0.050476587558421215363 30.25440490448313469
0.063546258777961384112 56.04576549424460552 0.063546258777961384112 32.28158860291282650
0.079999999999998294697 63.68441442471038982 0.079999999999998294697 33.89555201711546317
0.100714032943542974863 71.64259682980409139 0.100714032943542974863 35.07455136038613830
0.126791455396897845276 79.82039576467563791 0.126791455396897845276 35.84965033750509633
0.159620985197506115583 88.13084088281588890 0.159620985197506115583 36.29808193077936807
0.200950914520760193227 96.50937958254482396 0.200950914520760193227 36.52563412631802464
0.252982212813478213320 104.91747092361531202 0.252982212813478213320 36.64310039507647332
0.318485736442795541734 113.34118210594566278 0.318485736442795541734 36.74717299079575383
0.400949786901833249431 121.78595275723805003 0.400949786901833249431 36.90864274838369141
0.504765875584155310207 130.26972534195058984 0.504765875584155310207 37.16735815248287622
0.635462587779443310865 138.81535748989003309 0.635462587779443310865 37.54205155464362065
0.799999999999997157829 147.44821468012716537 0.799999999999997157829 38.03202617149609921
1.007140329435344483500 156.18931964018727854 1.007140329435344483500 38.62618865953189129
1.267914553968893187630 165.05700501173129169 1.267914553968893187630 39.31659096756587246
1.596209851975103788391 174.06616766370157734 1.596209851975103788391 40.09507589137412253
2.009509145207672986544 183.22824425832624229 2.009509145207672986544 40.95802314415494294
2.529822128134711078928 192.55244181906530798 2.529822128134711078928 41.90709620761963095
3.184857364427998049905 202.04581328473341273 3.184857364427998049905 42.94647866007821335
4.009497869018190385759 211.71293942093248575 4.009497869018190385759 44.07359183376931355
5.009497869018204596614 221.22486862181980882 5.009497869018204596614 45.22683234866544666
6.009497869018204596614 229.11030680630028655 6.009497869018204596614 46.21421537287692161
7.009497869018204596614 235.85153755199343095 7.009497869018204596614 47.07487255145527172
8.009497869018204596614 241.73792034333354195 8.009497869018204596614 47.83592805465883657
9.009497869018204596614 246.96182444212141149 9.009497869018204596614 48.51254295806747052
10.009497869018190385759 251.65400760663371216 10.009497869018190385759 49.11162690572184886
11.009497869018190385759 255.90894613772962884 11.009497869018190385759 49.66252497668055810
12.009497869018190385759 259.79929765765780303 12.009497869018190385759 50.13999232244390925
13.009497869018190385759 263.38295840232837008 13.009497869018190385759 50.59495458316876437
14.009497869018190385759 266.69401263299533866 14.009497869018190385759 51.03984647308966061
15.009497869018190385759 269.77875915696074571 15.009497869018190385759 51.40890719506313644
16.009497869018204596614 272.66391133786822820 16.009497869018204596614 51.73898738605312531
17.009497869018204596614 275.36302096044249765 17.009497869018204596614 52.10530550650679515
18.009497869018204596614 277.89621316465070322 18.009497869018204596614 52.36928631463154460
19.009497869018204596614 280.29497876033514103 19.009497869018204596614 52.62519411227574295
20.009497869018204596614 282.56457981020821535 20.009497869018204596614 52.87038735178336424
21.009497869018204596614 284.71164472963522485 21.009497869018204596614 53.16767898712883067
22.009497869018190385759 286.74063031692077175 22.009497869018190385759 53.43645573101361634
23.009497869018190385759 288.67893422366921641 23.009497869018190385759 53.60770336082210719
24.009497869018190385759 290.53592721165358626 24.009497869018190385759 53.78413055693330591
25.009497869018190385759 292.31014818739379280 25.009497869018190385759 54.02263062992690124
26.009497869018190385759 294.00463051009671744 26.009497869018190385759 54.17317545788669264
27.009497869018204596614 295.61928464814343442 27.009497869018204596614 54.35897760912474297
28.009497869018190385759 297.16346109368868156 28.009497869018190385759 54.48800947494215308
29.009497869018190385759 298.65104002403148797 29.009497869018190385759 54.43704923651540639
30.009497869018190385759 300.08520042268611405 30.009497869018190385759 54.42900381893773698
31.009497869018190385759 301.46388872763230893 31.009497869018190385759 54.45243903830910881
32.009497869018190385759 302.78790762645883206 32.009497869018190385759 54.51390096417442521
33.009497869018218807469 304.05121424562111088 33.009497869018218807469 54.48619188602597063
34.009497869018190385759 305.26024328402280617 34.009497869018190385759 54.53153376803632568
35.009497869018218807469 306.42407543149477078 35.009497869018218807469 54.54730906324735429
36.009497869018190385759 307.55030088510113728 36.009497869018190385759 54.51229712956169493
37.009497869018218807469 308.64613149171447049 37.009497869018218807469 54.47286719881984851
38.009497869018190385759 309.70755901739460114 38.009497869018190385759 54.50357877857405242
39.009497869018190385759 310.73467985045772366 39.009497869018190385759 54.62357269352553857
40.009497869018190385759 311.72795290375626109 40.009497869018190385759 54.76427496450961740
41.009497869018190385759 312.68920198370972230 41.009497869018190385759 54.86778269103167105
42.009497869018190385759 313.61853210552533255 42.009497869018190385759 55.00257741580869464
43.009497869018190385759 314.51845513523625186 43.009497869018190385759 55.08209833132497124
44.009497869018218807469 315.39616416401753440 44.009497869018218807469 55.12626195885697911
46.009497869018218807469 317.08897665689931955 46.009497869018218807469 55.24165651047952252
48.009497869018218807469 318.70344940810622347 48.009497869018218807469 55.33407634943825570
50.009497869018218807469 320.23144130772737981 50.009497869018218807469 55.53535175035536753
52.009497869018190385759 321.67640451007071078 52.009497869018190385759 55.59799291347309236
54.009497869018190385759 323.03983049306441444 54.009497869018190385759 55.58060444778010378
56.009497869018190385759 324.34068410980091812 56.009497869018190385759 55.42313824194152971
58.009497869018190385759 325.58791561582330587 58.009497869018190385759 54.81513206460337528
60.009497869018190385759 326.78069652499067388 60.009497869018190385759 54.40225892918045503
62.009497869018190385759 327.91162813527660091 62.009497869018190385759 53.99936576991093062
64.009497869018190385759 328.97938950304677519 64.009497869018190385759 53.60762385102895422
66.009497869018218807469 329.98916191781353291 66.009497869018218807469 53.23346822863661032
68.009497869018218807469 330.91961144620989899 68.009497869018218807469 52.71220398221102243
70.009497869018218807469 331.79886967940285558 70.009497869018218807469 52.37024303474347420
72.009497869018218807469 332.63896179686344112 72.009497869018218807469 52.11131480243401626
74.009497869018190385759 333.44744831798220730 74.009497869018190385759 51.76735834556433247
76.009497869018190385759 334.22108720610327737 76.009497869018190385759 51.42998265753881526
78.009497869018190385759 334.95868794637306110 78.009497869018190385759 51.34750414426179077
80.009497869018190385759 335.66788448758137520 80.009497869018190385759 51.09982491786149694
82.009497869018190385759 336.36662521644109347 82.009497869018190385759 50.87985469948171868
84.009497869018190385759 337.04223010965608864 84.009497869018190385759 50.84547630785289840
86.009497869018190385759 337.69672251275858343 86.009497869018190385759 50.81476726653180975
88.009497869018218807469 338.32884743970350883 88.009497869018218807469 50.74392057937438949
91.009497869018190385759 339.23682197972601671 91.009497869018190385759 50.54175341050640924
94.009497869018218807469 340.09718838969189392 94.009497869018218807469 50.21765656243147191
97.009497869018190385759 340.91248425117430543 97.009497869018190385759 49.21928560987907986
99.504748934509109403734 341.53981851264563829 99.504748934509109403734 50.96354588254964568
nan nan nan nan

