Time Pressure difference Time.1 Pressure.1 difference.1
(hr) (psi) (hr) (psi)
0.000200000000006639311 0.31495578077534642 0.000200000000006639311 0.25316108422852018
0.000399999999999067768 0.62519393907491649 0.000399999999999067768 0.64199960364401221
0.000600000000005707079 0.93161349815952932 0.000600000000005707079 0.92980661489233873
0.000799999999998135536 1.23463197344229769 0.000799999999998135536 1.21737263588134170
0.001007140329434719206 1.54517440439932430 0.001007140329434719206 1.51366566631396826
0.001267914553963578328 1.93169351368346942 0.001267914553963578328 1.88177451769893400
0.001596209851982166583 2.41175223586777765 0.001596209851982166583 2.33392605106042783
0.002009509145224797066 3.00648844903695300 0.002009509145224797066 2.88673645804552503
0.002529822128138903281 3.74111590247082004 0.002529822128138903281 3.55890613283965918
0.003184857364431081805 4.64538246978326352 0.003184857364431081805 4.37088984846997430
0.004009497869020606231 5.75391888659592254 0.004009497869020606231 5.34420892175163154
0.005047658755842121536 7.10637981934905394 0.005047658755842121536 6.50024603930072242
0.006354625877790454069 8.74723701477418913 0.006354625877790454069 7.85838482137374150
0.008000000000009777068 10.72506282466044603 0.008000000000009777068 9.43339128585261300
0.010071403294347192059 13.09111647240941778 0.010071403294347192059 11.23192818129416004
0.012679145539706837553 15.89702115414285011 0.012679145539706837553 13.24835224997826799
0.015962098519750611558 19.19141350823420566 0.015962098519750611558 15.46022049197152981
0.020095091452091651263 23.01554991013180995 0.020095091452091651263 17.82432878549862210
0.025298221281360611101 27.39813054358030797 0.025298221281360611101 20.27427025038852904
0.031848573644296607199 32.34978078292130732 0.031848573644296607199 22.72216066212315866
0.040094978690177640601 37.85867012322948000 0.040094978690177640601 25.06420274321020614
0.050476587558421215363 43.88755741197585536 0.050476587558421215363 27.19337099650013556
0.063546258777961384112 50.37525275012103521 0.063546258777961384112 29.01545140308870785
0.079999999999998294697 57.24105014173968442 0.079999999999998294697 30.46611969538378162
0.100714032943542974863 64.39405173878863309 0.100714032943542974863 31.52583204627648783
0.126791455396897845276 71.74444984024962935 0.126791455396897845276 32.22250924453400245
0.159620985197506115583 79.21407345231921227 0.159620985197506115583 32.62557011190052236
0.200950914520760193227 86.74490117772265307 0.200950914520760193227 32.83009937941996981
0.252982212813478213320 94.30229151252011377 0.252982212813478213320 32.93568082569225908
0.318485736442795541734 101.87372132816761905 0.318485736442795541734 33.02922372349171809
0.400949786901833249431 109.46407989003513705 0.400949786901833249431 33.17435654090017039
0.504765875584155310207 117.08949430735323460 0.504765875584155310207 33.40689603352578274
0.635462587779443310865 124.77050955561881551 0.635462587779443310865 33.74367927970320835
0.799999999999997157829 132.52992472425543724 0.799999999999997157829 34.18407999414473153
1.007140329435344483500 140.38663553541536544 1.007140329435344483500 34.71812721868513307
1.267914553968893187630 148.35711979877962108 1.267914553968893187630 35.33867705790627411
1.596209851975103788391 156.45476717066824790 1.596209851975103788391 36.03839762471744734
2.009509145207672986544 164.68985719218969166 2.009509145207672986544 36.81403492015808609
2.529822128134711078928 173.07066535266574192 2.529822128134711078928 37.66708412073105450
3.184857364427998049905 181.60353099945450595 3.184857364427998049905 38.60130552505853530
4.009497869018190385759 190.29257143246164219 4.009497869018190385759 39.61438136588206760
5.009497869018204596614 198.84211720831805792 5.009497869018204596614 40.65094107574164894
6.009497869018204596614 205.92973458825107969 6.009497869018204596614 41.53842417044466373
7.009497869018204596614 211.98891139967409458 7.009497869018204596614 42.31200309330802867
8.009497869018204596614 217.27973075565509475 8.009497869018204596614 42.99605768677570694
9.009497869018204596614 221.97509867503617897 9.009497869018204596614 43.60421508231005561
10.009497869018190385759 226.19254330760961125 10.009497869018190385759 44.14268583055469719
11.009497869018190385759 230.01698217555932047 11.009497869018190385759 44.63784597903993756
12.009497869018190385759 233.51372165935364933 12.009497869018190385759 45.06700486393781802
13.009497869018190385759 236.73480025809277549 13.009497869018190385759 45.47593564887169038
14.009497869018190385759 239.71085370777464618 14.009497869018190385759 45.87581494757706224
15.009497869018190385759 242.48349646578591887 15.009497869018190385759 46.20753540826851946
16.009497869018204596614 245.07673913191919723 16.009497869018204596614 46.50421925052304317
17.009497869018204596614 247.50276236915067329 17.009497869018204596614 46.83347459643669453
18.009497869018204596614 249.77965512681549853 18.009497869018204596614 47.07074675809235487
19.009497869018204596614 251.93572208576009075 19.009497869018204596614 47.30076270797490423
20.009497869018204596614 253.97569291176364459 20.009497869018204596614 47.52114816089704874
21.009497869018204596614 255.90552538051920806 21.009497869018204596614 47.78836087784285525
22.009497869018190385759 257.72922536720875542 22.009497869018190385759 48.02994373940517647
23.009497869018190385759 259.47141852574503673 23.009497869018190385759 48.18386513843304897
24.009497869018190385759 261.14052751729803958 24.009497869018190385759 48.34244205352593582
25.009497869018190385759 262.73523907666930199 25.009497869018190385759 48.55681153089900448
26.009497869018190385759 264.25827965848691292 26.009497869018190385759 48.69212476450051241
27.009497869018204596614 265.70956878962539349 27.009497869018204596614 48.85912810984859078
28.009497869018190385759 267.09751091244487498 28.009497869018190385759 48.97510498688917835
29.009497869018190385759 268.43458185689416950 29.009497869018190385759 48.92930072552677956
30.009497869018190385759 269.72363896815551243 30.009497869018190385759 48.92206931490402866
31.009497869018190385759 270.96283645636600568 31.009497869018190385759 48.94313344149195188
32.009497869018190385759 272.15289579601710557 32.009497869018190385759 48.99837686662266378
33.009497869018218807469 273.28838551018179714 33.009497869018218807469 48.97347129520451148
34.009497869018190385759 274.37508925763927436 34.009497869018190385759 49.01422564562323458
35.009497869018218807469 275.42116897607297688 35.009497869018218807469 49.02840485214233013
36.009497869018190385759 276.43344691319680351 36.009497869018190385759 48.99693530233545147
37.009497869018218807469 277.41840524667043155 37.009497869018218807469 48.96149475282160068
38.009497869018190385759 278.37244128151706946 38.009497869018190385759 48.98909904333009280
39.009497869018190385759 279.29564165382316787 39.009497869018190385759 49.09695239747471618
40.009497869018190385759 280.18841884525858177 40.009497869018190385759 49.22341890927688013
41.009497869018190385759 281.05241213594615601 41.009497869018190385759 49.31645408935082031
42.009497869018190385759 281.88771591602511535 42.009497869018190385759 49.43761075962098772
43.009497869018190385759 282.69658790978877505 43.009497869018190385759 49.50908602956738491
44.009497869018218807469 283.48549343683458801 44.009497869018218807469 49.54878133713732780
46.009497869018218807469 285.00703313631896663 46.009497869018218807469 49.65250067530159583
48.009497869018218807469 286.45815923269776704 48.009497869018218807469 49.73556980114214809
50.009497869018218807469 287.83155430482787551 50.009497869018218807469 49.91648086737824030
52.009497869018190385759 289.13032123022827591 52.009497869018190385759 49.97278421869817322
54.009497869018190385759 290.35580058435431283 54.009497869018190385759 49.95715505659293854
56.009497869018190385759 291.52503842339757512 56.009497869018190385759 49.81562072569803235
58.009497869018190385759 292.64607944763412206 58.009497869018190385759 49.26913046747880287
60.009497869018190385759 293.71817899422694609 60.009497869018190385759 48.89803037869866387
62.009497869018190385759 294.73468693570742971 62.009497869018190385759 48.53590052730818627
64.009497869018190385759 295.69441597685613488 64.009497869018190385759 48.18379367316014594
66.009497869018218807469 296.60202318259950971 66.009497869018218807469 47.84749379609220199
68.009497869018218807469 297.43833311165224131 68.009497869018218807469 47.37896922636378605
70.009497869018218807469 298.22863110007506293 70.009497869018218807469 47.07160668064002351
72.009497869018218807469 298.98372566212196944 72.009497869018218807469 46.83887589301127718
74.009497869018190385759 299.71041237051576900 74.009497869018190385759 46.52971973648370607
76.009497869018190385759 300.40577720642693293 76.009497869018190385759 46.22647852983488548
78.009497869018190385759 301.06875010709291018 78.009497869018190385759 46.15234490143059531
80.009497869018190385759 301.70619264530847659 80.009497869018190385759 45.92972498499551648
82.009497869018190385759 302.33423725336587040 82.009497869018190385759 45.73201057694592464
84.009497869018190385759 302.94148682797322181 84.009497869018190385759 45.70111046964660773
86.009497869018190385759 303.52975999970294652 86.009497869018190385759 45.67350846074153026
88.009497869018218807469 304.09792875756880903 88.009497869018218807469 45.60982979134357151
91.009497869018190385759 304.91403763824786211 91.009497869018190385759 45.42811718309047109
94.009497869018218807469 305.68735521144066070 94.009497869018218807469 45.13681131023252391
97.009497869018190385759 306.42016231517317237 97.009497869018190385759 44.23945200699719749
99.504748934509109403734 306.98402511018969108 99.504748934509109403734 45.80723418149167969
nan nan nan nan

