Time Pressure difference Time.1 Pressure.1 difference.1
(hr) (psi) (hr) (psi)
0.000200000000006639311 0.02226127246317893 0.000200000000006639311 0.01789358448735614
0.000399999999999067768 0.04418910040581871 0.000399999999999067768 0.04537693533609510
0.000600000000005707079 0.06584702735682536 0.000600000000005707079 0.06571931571228572
0.000799999999998135536 0.08726456356791108 0.000799999999998135536 0.08604466274553986
0.001007140329434719206 0.10921389769314596 0.001007140329434719206 0.10698684028920717
0.001267914553963578328 0.13653331117658030 0.001267914553963578328 0.13300500517767336
0.001596209851982166583 0.17046416326814132 0.001596209851982166583 0.16496335962992553
0.002009509145224797066 0.21250049247119826 0.002009509145224797066 0.20403634651107114
0.002529822128138903281 0.26442442242594799 0.002529822128138903281 0.25154572143107540
0.003184857364431081805 0.32833855152918351 0.003184857364431081805 0.30893724059866307
0.004009497869020606231 0.40669060193217260 0.004009497869020606231 0.37773204420757606
0.005047658755842121536 0.50228339037283898 0.005047658755842121536 0.45944147398198820
0.006354625877790454069 0.61826020785053171 0.006354625877790454069 0.55543557637981944
0.008000000000009777068 0.75805417870636660 0.008000000000009777068 0.66675802282204333
0.010071403294347192059 0.92528833705511582 0.010071403294347192059 0.79387974056267607
0.012679145539706837553 1.12361144283208603 0.012679145539706837553 0.93640186060055808
0.015962098519750611558 1.35646116419456431 0.015962098519750611558 1.09273809760008200
0.020095091452091651263 1.62675352767947334 0.020095091452091651263 1.25983475709021664
0.025298221281360611101 1.93651708030541458 0.025298221281360611101 1.43299815905887495
0.031848573644296607199 2.28650283020648004 0.031848573644296607199 1.60601659130189889
0.040094978690177640601 2.67587458986176996 0.040094978690177640601 1.77155359703318194
0.050476587558421215363 3.10200013121295326 0.050476587558421215363 1.92204454687304604
0.063546258777961384112 3.56055451375201004 0.063546258777961384112 2.05083033477328547
0.079999999999998294697 4.04583338698160144 0.079999999999998294697 2.15336448108733514
0.100714032943542974863 4.55141203389343652 0.100714032943542974863 2.22826561583629612
0.126791455396897845276 5.07094278975586388 0.126791455396897845276 2.27750719791208889
0.159620985197506115583 5.59890047961418524 0.159620985197506115583 2.30599579324951298
0.200950914520760193227 6.13118411465578905 0.200950914520760193227 2.32045205037785118
0.252982212813478213320 6.66534521161791371 0.252982212813478213320 2.32791461333426986
0.318485736442795541734 7.20049862790713568 0.318485736442795541734 2.33452628412114205
0.400949786901833249431 7.73698993987159334 0.400949786901833249431 2.34478436283849367
0.504765875584155310207 8.27595902172391895 0.504765875584155310207 2.36122040027538249
0.635462587779443310865 8.81885800524007379 0.635462587779443310865 2.38502445170677113
0.799999999999997157829 9.36729834438454922 0.799999999999997157829 2.41615225089504637
1.007140329435344483500 9.92261560067071891 1.007140329435344483500 2.45389904425261429
1.267914553968893187630 10.48597443603939894 1.267914553968893187630 2.49775989676300858
1.596209851975103788391 11.05832123981162951 1.596209851975103788391 2.54721658604023871
2.009509145207672986544 11.64038257641131402 2.009509145207672986544 2.60203911739337279
2.529822128134711078928 12.23274336262297268 2.529822128134711078928 2.66233317083701149
3.184857364427998049905 12.83585166750071060 3.184857364427998049905 2.72836452664026297
4.009497869018190385759 13.44999850438865074 4.009497869018190385759 2.79996936355710968
5.009497869018204596614 14.05428577126855316 5.009497869018204596614 2.87323405509168772
6.009497869018204596614 14.55524302063554742 6.009497869018204596614 2.93596191780629834
7.009497869018204596614 14.98350944447958177 7.009497869018204596614 2.99063896209245250
8.009497869018204596614 15.35746788063530666 8.009497869018204596614 3.03898837053126725
9.009497869018204596614 15.68933943514653606 9.009497869018204596614 3.08197331733605129
10.009497869018190385759 15.98743107148026255 10.009497869018190385759 3.12003276812821140
11.009497869018190385759 16.25774481345576561 11.009497869018190385759 3.15503099851852919
12.009497869018190385759 16.50489655707473347 12.009497869018190385759 3.18536421813173032
13.009497869018190385759 16.73256441614791612 13.009497869018190385759 3.21426770293072162
14.009497869018190385759 16.94291374374323311 14.009497869018190385759 3.24253142299628427
15.009497869018190385759 17.13888587585397971 15.009497869018190385759 3.26597763356871695
16.009497869018204596614 17.32217789675868858 16.009497869018204596614 3.28694743393749267
17.009497869018204596614 17.49365074336928672 17.009497869018204596614 3.31021940864866693
18.009497869018204596614 17.65458295398957489 18.009497869018204596614 3.32698995410600418
19.009497869018204596614 17.80697512124482174 19.009497869018204596614 3.34324762595634128
20.009497869018204596614 17.95116154088381677 20.009497869018204596614 3.35882460823094320
21.009497869018204596614 18.08756331223565184 21.009497869018204596614 3.37771137094700791
22.009497869018190385759 18.21646357307496800 22.009497869018190385759 3.39478659938204164
23.009497869018190385759 18.33960288009192752 23.009497869018190385759 3.40566586056987486
24.009497869018190385759 18.45757655226975658 24.009497869018190385759 3.41687417655811565
25.009497869018190385759 18.57029176719913721 25.009497869018190385759 3.43202594590123811
26.009497869018190385759 18.67794123240614468 26.009497869018190385759 3.44158997026574243
27.009497869018204596614 18.78051925999969995 27.009497869018204596614 3.45339387163851308
28.009497869018190385759 18.87861988124610590 28.009497869018190385759 3.46159119017279515
29.009497869018190385759 18.97312489564435012 29.009497869018190385759 3.45835371620215515
30.009497869018190385759 19.06423626214711575 30.009497869018190385759 3.45784259555604390
31.009497869018190385759 19.15182351916723036 31.009497869018190385759 3.45933142125728521
32.009497869018190385759 19.23593766097503277 32.009497869018190385759 3.46323606125343453
33.009497869018218807469 19.31619478736886819 33.009497869018218807469 3.46147571981812030
34.009497869018190385759 19.39300369098497967 34.009497869018190385759 3.46435626291054310
35.009497869018218807469 19.46694126270672953 35.009497869018218807469 3.46535845813571441
36.009497869018190385759 19.53848970328877854 36.009497869018190385759 3.46313417058391915
37.009497869018218807469 19.60810717712068296 37.009497869018218807469 3.46062921027796699
38.009497869018190385759 19.67553904345800930 38.009497869018190385759 3.46258029887411656
39.009497869018190385759 19.74079142579378754 39.009497869018190385759 3.47020344170632811
40.009497869018190385759 19.80389347859157212 40.009497869018190385759 3.47914217421590521
41.009497869018190385759 19.86496106720038313 41.009497869018190385759 3.48571795919495298
42.009497869018190385759 19.92400086317455177 42.009497869018190385759 3.49428138876902272
43.009497869018190385759 19.98117244388559399 43.009497869018190385759 3.49933330575476331
44.009497869018218807469 20.03693278218464258 44.009497869018218807469 3.50213899503326687
46.009497869018218807469 20.14447616408536845 46.009497869018218807469 3.50946994301869930
48.009497869018218807469 20.24704266827968624 48.009497869018218807469 3.51534132102313635
50.009497869018218807469 20.34411509484385761 50.009497869018218807469 3.52812822884610577
52.009497869018190385759 20.43591275711037270 52.009497869018190385759 3.53210778509123147
54.009497869018190385759 20.52253040779467952 54.009497869018190385759 3.53100310609426549
56.009497869018190385759 20.60517287285793842 56.009497869018190385759 3.52099937066452062
58.009497869018190385759 20.68440875676994750 58.009497869018190385759 3.48237309586892030
60.009497869018190385759 20.76018542629352837 60.009497869018190385759 3.45614350844205198
62.009497869018190385759 20.83203284624110196 62.009497869018190385759 3.43054794302963595
64.009497869018190385759 20.89986709784061603 64.009497869018190385759 3.40566080935948667
66.009497869018218807469 20.96401734536698314 66.009497869018218807469 3.38189092276044345
68.009497869018218807469 21.02312825658274775 68.009497869018218807469 3.34877531181105326
70.009497869018218807469 21.07898701492677063 70.009497869018218807469 3.32705073397193862
72.009497869018218807469 21.13235757297720951 72.009497869018218807469 3.31060117568404300
74.009497869018190385759 21.18372024608357407 74.009497869018190385759 3.28874982430644014
76.009497869018190385759 21.23286906956420950 76.009497869018190385759 3.26731654530246596
78.009497869018190385759 21.27972841071075649 78.009497869018190385759 3.26207673387074859
80.009497869018190385759 21.32478324979928885 80.009497869018190385759 3.24634181831120117
82.009497869018190385759 21.36917383727978859 82.009497869018190385759 3.23236723973178020
84.009497869018190385759 21.41209461873108921 84.009497869018190385759 3.23018320073418463
86.009497869018190385759 21.45367413610466301 86.009497869018190385759 3.22823227340319718
88.009497869018218807469 21.49383266087528455 88.009497869018218807469 3.22373142504260812
91.009497869018190385759 21.55151574930024339 91.009497869018190385759 3.21088786372629009
94.009497869018218807469 21.60617432122748482 94.009497869018218807469 3.19029818161329359
97.009497869018190385759 21.65796958772166292 97.009497869018190385759 3.12687226227467052
99.504748934509109403734 21.69782376433278159 99.504748934509109403734 3.23768409136197732
nan nan nan nan

