Time Pressure difference Time.1 Pressure.1 difference.1
(hr) (psi) (hr) (psi)
0.000200000000006639311 0.03050618819028224 0.000200000000006639311 0.02452083800119174
0.000399999999999067768 0.06055543388945527 0.000399999999999067768 0.06218320768279700
0.000600000000005707079 0.09023481526676071 0.000600000000005707079 0.09005980301313229
0.000799999999998135536 0.11958477229676705 0.000799999999998135536 0.11791305635499906
0.001007140329434719206 0.14966348943134816 0.001007140329434719206 0.14661159595187651
0.001267914553963578328 0.18710120420494336 0.001267914553963578328 0.18226611820644126
0.001596209851982166583 0.23359903855263814 0.001596209851982166583 0.22606090023360162
0.002009509145224797066 0.29120437857164205 0.002009509145224797066 0.27960536373739381
0.002529822128138903281 0.36235939369481762 0.002529822128138903281 0.34471080344258481
0.003184857364431081805 0.44994542246591812 0.003184857364431081805 0.42335844082039020
0.004009497869020606231 0.55731675079594023 0.004009497869020606231 0.51763280132149314
0.005047658755842121536 0.68831427569611259 0.005047658755842121536 0.62960498286420608
0.006354625877790454069 0.84724547001739536 0.006354625877790454069 0.76115245652049335
0.008000000000009777068 1.03881498563465047 0.008000000000009777068 0.91370543868205945
0.010071403294347192059 1.26798772114960312 0.010071403294347192059 1.08790927410440807
0.012679145539706837553 1.53976382906619236 0.012679145539706837553 1.28321736452669088
0.015962098519750611558 1.85885418797032909 0.015962098519750611558 1.49745591152603796
0.020095091452091651263 2.22925483422742676 0.020095091452091651263 1.72644022267918595
0.025298221281360611101 2.65374562856667895 0.025298221281360611101 1.96373821796956927
0.031848573644296607199 3.13335573028295400 0.031848573644296607199 2.20083755104334244
0.040094978690177640601 3.66693925277353605 0.040094978690177640601 2.42768455889732371
0.050476587558421215363 4.25088906869923200 0.050476587558421215363 2.63391289756676672
0.063546258777961384112 4.87927840773423593 0.063546258777961384112 2.81039712543005793
0.079999999999998294697 5.54429019697478598 0.079999999999998294697 2.95090688149005187
0.100714032943542974863 6.23712019459471012 0.100714032943542974863 3.05354917725714659
0.126791455396897845276 6.94906974892470242 0.126791455396897845276 3.12102838232397373
0.159620985197506115583 7.67256732391573593 0.159620985197506115583 3.16006830926785121
0.200950914520760193227 8.40199304600978358 0.200950914520760193227 3.17987873570298119
0.252982212813478213320 9.13399158629121466 0.252982212813478213320 3.19010521086548104
0.318485736442795541734 9.86734997157644500 0.318485736442795541734 3.19916564861045449
0.400949786901833249431 10.60254176945366389 0.400949786901833249431 3.21322301574163927
0.504765875584155310207 11.34112902976981552 0.504765875584155310207 3.23574647445145036
0.635462587779443310865 12.08510171088454577 0.635462587779443310865 3.26836684122779753
0.799999999999997157829 12.83666810156401006 0.799999999999997157829 3.31102345493024819
1.007140329435344483500 13.59765841573394951 1.007140329435344483500 3.36275054212395297
1.267914553968893187630 14.36966867160954564 1.267914553968893187630 3.42285615482338246
1.596209851975103788391 15.15399577307519685 1.596209851975103788391 3.49063013642551168
2.009509145207672986544 15.95163538248957735 2.009509145207672986544 3.56575730902054788
2.529822128134711078928 16.76338905248332978 2.529822128134711078928 3.64838249336923814
3.184857364427998049905 17.58987080361208655 3.184857364427998049905 3.73886990687739740
4.009497869018190385759 18.43147943194000504 4.009497869018190385759 3.83699505376344607
5.009497869018204596614 19.25957679766431241 5.009497869018204596614 3.93739481623675713
6.009497869018204596614 19.94607376901908324 6.009497869018204596614 4.02335522069752027
7.009497869018204596614 20.53295738687942773 7.009497869018204596614 4.09828302212669371
8.009497869018204596614 21.04541894753727149 8.009497869018204596614 4.16453961887618096
9.009497869018204596614 21.50020589260821779 9.009497869018204596614 4.22344491634940322
10.009497869018190385759 21.90870183869517263 10.009497869018190385759 4.27560046002754923
11.009497869018190385759 22.27913178140234152 11.009497869018190385759 4.32356099796983617
12.009497869018190385759 22.61782120784315353 12.009497869018190385759 4.36512874336570444
13.009497869018190385759 22.92981049620270184 13.009497869018190385759 4.40473722253469191
14.009497869018190385759 23.21806698216665055 14.009497869018190385759 4.44346898706898230
15.009497869018190385759 23.48662138542952604 15.009497869018190385759 4.47559897933490891
16.009497869018204596614 23.73779934000264902 16.009497869018204596614 4.50433537243286075
17.009497869018204596614 23.97278064832087452 17.009497869018204596614 4.53622659703706255
18.009497869018204596614 24.19331738139312193 18.009497869018204596614 4.55920845562674604
19.009497869018204596614 24.40215109207624167 19.009497869018204596614 4.58148748742165335
20.009497869018204596614 24.59973988935930578 20.009497869018204596614 4.60283372239055222
21.009497869018204596614 24.78666083528589326 21.009497869018204596614 4.62871558240886305
22.009497869018190385759 24.96330193347310100 22.009497869018190385759 4.65211496952353798
23.009497869018190385759 25.13204839123708823 23.009497869018190385759 4.66702358670686568
24.009497869018190385759 25.29371601607336828 24.009497869018190385759 4.68238313083890034
25.009497869018190385759 25.44817760690252229 25.009497869018190385759 4.70314666660540048
26.009497869018190385759 25.59569724440842009 26.009497869018190385759 4.71625292221601722
27.009497869018204596614 25.73626713407366751 27.009497869018204596614 4.73242863891203669
28.009497869018190385759 25.87070131874466483 28.009497869018190385759 4.74366200134790450
29.009497869018190385759 26.00020819032744868 29.009497869018190385759 4.73922546294369340
30.009497869018190385759 26.12506450738678865 30.009497869018190385759 4.73852503835457917
31.009497869018190385759 26.24509148922916424 31.009497869018190385759 4.74056528098220475
32.009497869018190385759 26.36035901689171013 32.009497869018190385759 4.74591608393989084
33.009497869018218807469 26.47034100491289621 33.009497869018218807469 4.74350376419520181
34.009497869018190385759 26.57559765060904056 34.009497869018190385759 4.74745117509963332
35.009497869018218807469 26.67691950815366653 35.009497869018218807469 4.74882455374153434
36.009497869018190385759 26.77496737117350989 36.009497869018190385759 4.74577645598537057
37.009497869018218807469 26.87036909457279066 37.009497869018218807469 4.74234373260313991
38.009497869018190385759 26.96277572622023655 38.009497869018190385759 4.74501744660527081
39.009497869018190385759 27.05219565756926059 39.009497869018190385759 4.75546397567163481
40.009497869018190385759 27.13866884103289934 40.009497869018190385759 4.76771334985142570
41.009497869018190385759 27.22235405505237793 41.009497869018190385759 4.77672461074863985
42.009497869018190385759 27.30326044212808867 42.009497869018190385759 4.78845968090569762
43.009497869018190385759 27.38160668236173834 43.009497869018190385759 4.79538267825652742
44.009497869018218807469 27.45801899780858690 44.009497869018218807469 4.79922751171225404
46.009497869018218807469 27.60539326189476483 46.009497869018218807469 4.80927362561821692
48.009497869018218807469 27.74594736023512453 48.009497869018218807469 4.81731958806874250
50.009497869018218807469 27.87897253737861902 50.009497869018218807469 4.83484238767799734
52.009497869018190385759 28.00476933381792222 52.009497869018190385759 4.84029585364353920
54.009497869018190385759 28.12346759586678147 54.009497869018190385759 4.83878203427732689
56.009497869018190385759 28.23671838132384693 56.009497869018190385759 4.82507321165138059
58.009497869018190385759 28.34530088890696931 58.009497869018190385759 4.77214090915370548
60.009497869018190385759 28.44914299158742210 60.009497869018190385759 4.73619665971688608
62.009497869018190385759 28.54760056707113591 62.009497869018190385759 4.70112125526283453
64.009497869018190385759 28.64055861555936033 64.009497869018190385759 4.66701666467781529
66.009497869018218807469 28.72846821402141515 66.009497869018218807469 4.63444311637542317
68.009497869018218807469 28.80947205531710154 68.009497869018218807469 4.58906246433366594
70.009497869018218807469 28.88601924267742405 70.009497869018218807469 4.55929174655413760
72.009497869018218807469 28.95915667407987470 72.009497869018218807469 4.53674975927072577
74.009497869018190385759 29.02954255944786155 74.009497869018190385759 4.50680531479030666
76.009497869018190385759 29.09689465088428406 76.009497869018190385759 4.47743378430337913
78.009497869018190385759 29.16110930356659381 78.009497869018190385759 4.47025330197102644
80.009497869018190385759 29.22285112009532426 80.009497869018190385759 4.44869063990794267
82.009497869018190385759 29.28368266590193514 82.009497869018190385759 4.42954029148429118
84.009497869018190385759 29.34250003307594312 84.009497869018190385759 4.42654734915425330
86.009497869018190385759 29.39947937169898040 86.009497869018190385759 4.42387385614512141
88.009497869018218807469 29.45451142416242618 88.009497869018218807469 4.41770602691024017
91.009497869018190385759 29.53355861941144056 91.009497869018190385759 4.40010559103232257
94.009497869018218807469 29.60846110686729205 94.009497869018218807469 4.37189010072932849
97.009497869018190385759 29.67943980539635618 97.009497869018190385759 4.28497310015417820
99.504748934509109403734 29.73405478815973879 99.504748934509109403734 4.43682634742196846
nan nan nan nan

