Time Pressure difference Time.1 Pressure.1 difference.1
(hr) (psi) (hr) (psi)
0.000200000000006639311 0.50788680878956383 0.000200000000006639311 0.40823881645227333
0.000399999999999067768 1.00816614259201187 0.000399999999999067768 1.03526637655683640
0.000600000000005707079 1.50228773525201587 0.000600000000005707079 1.49937401773214840
0.000799999999998135536 1.99092485769752714 0.000799999999998135536 1.96309304634268700
0.001007140329434719206 2.49169485107325572 0.001007140329434719206 2.44088494882043028
0.001267914553963578328 3.11498221054716495 0.001267914553963578328 3.03448456257210308
0.001596209851982166583 3.88910831752500252 0.001596209851982166583 3.76360850118644885
0.002009509145224797066 4.84815938378733868 0.002009509145224797066 4.65505146114147461
0.002529822128138903281 6.03279423016236915 0.002529822128138903281 5.73896905190897932
0.003184857364431081805 7.49098324970285301 0.003184857364431081805 7.04834593365838735
0.004009497869020606231 9.27857077000808594 0.004009497869020606231 8.61788663821729095
0.005047658755842121536 11.45950253591365708 0.005047658755842121536 10.48207214714461877
0.006354625877790454069 14.10549214947879726 0.006354625877790454069 12.67215981666551095
0.008000000000009777068 17.29486570678229285 0.008000000000009777068 15.21196081697698865
0.010071403294347192059 21.11028206022042042 0.010071403294347192059 18.11221926617068689
0.012679145539706837553 25.63498699202093078 0.012679145539706837553 21.36383504184977156
0.015962098519750611558 30.94741026458709854 0.015962098519750611558 24.93061733783890332
0.020095091452091651263 37.11408048335390930 0.020095091452091651263 28.74289668028050215
0.025298221281360611101 44.18127857289390192 0.025298221281360611101 32.69358762889877568
0.031848573644296607199 52.16613864471080575 0.031848573644296607199 36.64097112007294754
0.040094978690177640601 61.04958323536481402 0.040094978690177640601 40.41766725083112277
0.050476587558421215363 70.77155854915478983 0.050476587558421215363 43.85109040273319891
0.063546258777961384112 81.23339186930512312 0.063546258777961384112 46.78931430445718576
0.079999999999998294697 92.30493949558022848 0.079999999999998294697 49.12861186480735398
0.100714032943542974863 103.83962269919840082 0.100714032943542974863 50.83746738352439110
0.126791455396897845276 115.69262068480045968 0.126791455396897845276 51.96090495977210111
0.159620985197506115583 127.73787760897550925 0.159620985197506115583 52.61086698672963280
0.200950914520760193227 139.88183017140616471 0.200950914520760193227 52.94068381602801310
0.252982212813478213320 152.06861667987536180 0.252982212813478213320 53.11094080792260286
0.318485736442795541734 164.27804277002948652 0.318485736442795541734 53.26178485254161643
0.400949786901833249431 176.51799270225561145 0.400949786901833249431 53.49582101883378726
0.504765875584155310207 188.81447249562720003 0.504765875584155310207 53.87080616924576759
0.635462587779443310865 201.20061226769945506 0.635462587779443310865 54.41389119449522127
0.799999999999997157829 213.71317704225486978 0.799999999999997157829 55.12406616856846142
1.007140329435344483500 226.38263740789494705 1.007140329435344483500 55.98525226887445427
1.267914553968893187630 239.23556491112108802 1.267914553968893187630 56.98592949651901307
1.596209851975103788391 252.29355124903571550 1.596209851975103788391 58.11427470373285331
2.009509145207672986544 265.57317285442110233 2.009509145207672986544 59.36504060423398244
2.529822128134711078928 279.08777449539820736 2.529822128134711078928 60.74063826798515464
3.184857364427998049905 292.84757878446066570 3.184857364427998049905 62.24713142260748100
4.009497869018190385759 306.85922513716332105 4.009497869018190385759 63.88078251671035446
5.009497869018204596614 320.64592722597888041 5.009497869018204596614 65.55230288653628179
6.009497869018204596614 332.07517410042578376 6.009497869018204596614 66.98342745809925702
7.009497869018204596614 341.84599325183046403 7.009497869018204596614 68.23087409810928250
8.009497869018204596614 350.37778572116110354 8.009497869018204596614 69.33395689804669360
9.009497869018204596614 357.94937377963947256 9.009497869018204596614 70.31465049922250898
10.009497869018190385759 364.75027926043856041 10.009497869018190385759 71.18296982099920456
11.009497869018190385759 370.91743722550927487 11.009497869018190385759 71.98144796620051977
12.009497869018190385759 376.55615848733464190 12.009497869018190385759 72.67349475441281470
13.009497869018190385759 381.75035853137472941 13.009497869018190385759 73.33292240760459890
14.009497869018190385759 386.54943948688264754 14.009497869018190385759 73.97775394687818107
15.009497869018190385759 391.02050738985371936 15.009497869018190385759 74.51267489919739262
16.009497869018204596614 395.20228090382789787 16.009497869018204596614 74.99109701131463623
17.009497869018204596614 399.11440214501783430 17.009497869018204596614 75.52204280472514597
18.009497869018204596614 402.78604072805848091 18.009497869018204596614 75.90465969367772914
19.009497869018204596614 406.26283980321522904 19.009497869018204596614 76.27557546626319152
20.009497869018204596614 409.55242626609003764 20.009497869018204596614 76.63096143223188506
21.009497869018204596614 412.66440741989481467 21.009497869018204596614 77.06185942605026185
22.009497869018190385759 415.60524300052514945 22.009497869018190385759 77.45142760071620103
23.009497869018190385759 418.41464348654176320 23.009497869018190385759 77.69963593003862456
24.009497869018190385759 421.10619097030257763 24.009497869018190385759 77.95535158369627027
25.009497869018190385759 423.67776772572841537 25.009497869018190385759 78.30103639537641413
26.009497869018190385759 426.13377033934017390 26.009497869018190385759 78.51923784013693819
27.009497869018204596614 428.47406904295610275 27.009497869018204596614 78.78854166404903481
28.009497869018190385759 430.71221654991114747 28.009497869018190385759 78.97556196838674225
29.009497869018190385759 432.86833095247857273 29.009497869018190385759 78.90169959927879972
30.009497869018190385759 434.94701990676384185 30.009497869018190385759 78.89003847638974776
31.009497869018190385759 436.94530695581534019 31.009497869018190385759 78.92400575905509186
32.009497869018190385759 438.86435552446738484 32.009497869018190385759 79.01308939748575710
33.009497869018218807469 440.69540700071195261 33.009497869018218807469 78.97292753362822282
34.009497869018190385759 442.44778791284244335 34.009497869018190385759 79.03864659084794653
35.009497869018218807469 444.13465991953131606 35.009497869018218807469 79.06151148931853356
36.009497869018190385759 445.76702434169953904 36.009497869018190385759 79.01076478072940290
37.009497869018218807469 447.35533411504968626 37.009497869018218807469 78.95361457523064530
38.009497869018190385759 448.89377965815310745 38.009497869018190385759 78.99812830023910237
39.009497869018190385759 450.38250067736930760 39.009497869018190385759 79.17204889226289310
40.009497869018190385759 451.82216232638552356 40.009497869018190385759 79.37598441914805392
41.009497869018190385759 453.21540805168280031 41.009497869018190385759 79.52600973570707765
42.009497869018190385759 454.56239006353791865 42.009497869018190385759 79.72138279561919205
43.009497869018190385759 455.86674909013061097 43.009497869018190385759 79.83664134610867791
44.009497869018218807469 457.13891088243485683 44.009497869018218807469 79.90065262742564300
46.009497869018218807469 459.59249322505883129 46.009497869018218807469 80.06790684813032044
48.009497869018218807469 461.93252902445505015 48.009497869018218807469 80.20186125000934396
50.009497869018218807469 464.14721846014134599 50.009497869018218807469 80.49359218404448768
52.009497869018190385759 466.24156512518487716 52.009497869018190385759 80.58438502282217542
54.009497869018190385759 468.21773078524154243 54.009497869018190385759 80.55918197607658726
56.009497869018190385759 470.10320332149967726 56.009497869018190385759 80.33094860479054944
58.009497869018190385759 471.91095533964033848 58.009497869018190385759 79.44969729834276961
60.009497869018190385759 473.63978602210414692 60.009497869018190385759 78.85127411852978696
62.009497869018190385759 475.27897160313028735 62.009497869018190385759 78.26731603356502376
64.009497869018190385759 476.82659749147478578 64.009497869018190385759 77.69952068760903785
66.009497869018218807469 478.29017350911334461 66.009497869018218807469 77.15721512668271487
68.009497869018218807469 479.63877800203607649 68.009497869018218807469 76.40168859539292612
70.009497869018218807469 480.91318522944033020 70.009497869018218807469 75.90604637506349661
72.009497869018218807469 482.13082462792442584 72.009497869018218807469 75.53075274893964774
74.009497869018190385759 483.30265450324009180 74.009497869018190385759 75.03221821380618906
76.009497869018190385759 484.42397580931674383 76.009497869018190385759 74.54322192245625445
78.009497869018190385759 485.49306299991945934 78.009497869018190385759 74.42367659497709553
80.009497869018190385759 486.52098081023564191 80.009497869018190385759 74.06468741035925518
82.009497869018190385759 487.53374384312405709 82.009497869018190385759 73.74585998795467390
84.009497869018190385759 488.51297352364269955 84.009497869018190385759 73.69603154267620937
86.009497869018190385759 489.46160251261005669 86.009497869018190385759 73.65152149690257488
88.009497869018218807469 490.37781181848799861 88.009497869018218807469 73.54883547504617525
91.009497869018190385759 491.69384079884997618 91.009497869018190385759 73.25581200205164123
94.009497869018218807469 492.94086599541219584 94.009497869018218807469 72.78606221754773742
97.009497869018190385759 494.12256540876092004 97.009497869018190385759 71.33901161337767860
99.504748934509109403734 495.03183106774048383 99.504748934509109403734 73.86716297329547842
nan nan nan nan

