Time Pressure difference Time.1 Pressure.1 difference.1
(hr) (psi) (hr) (psi)
0.000200000000006639311 0.56312774416115607 0.000200000000006639311 0.45264141499497196
0.000399999999999067768 1.11782057693237680 0.000399999999999067768 1.14786840127973910
0.000600000000005707079 1.66568591424858248 0.000600000000005707079 1.66245528264782028
0.000799999999998135536 2.20747025618086168 0.000799999999998135536 2.17661128352606381
0.001007140329434719206 2.76270711571921046 0.001007140329434719206 2.70637081176031513
0.001267914553963578328 3.45378709383719773 0.001267914553963578328 3.36453401986484790
0.001596209851982166583 4.31211198193113088 0.001596209851982166583 4.17296202323107934
0.002009509145224797066 5.37547542066031170 0.002009509145224797066 5.16136387655783668
0.002529822128138903281 6.68895853766379567 0.002529822128138903281 6.36317510138609332
0.003184857364431081805 8.30574928497897602 0.003184857364431081805 7.81496797514395869
0.004009497869020606231 10.28776596739533034 0.004009497869020606231 9.55522171088053618
0.005047658755842121536 12.70590946757959294 0.005047658755842121536 11.62216765665547946
0.006354625877790454069 15.63969340599678226 0.006354625877790454069 14.05046291360802613
0.008000000000009777068 19.17596311320179225 0.008000000000009777068 16.86650850323909978
0.010071403294347192059 23.40636793365348822 0.010071403294347192059 20.08221714090029053
0.012679145539706837553 28.42320797978943858 0.012679145539706837553 23.68749891815485853
0.015962098519750611558 34.31344352388472174 0.015962098519750611558 27.64222669114281317
0.020095091452091651263 41.15083923722519899 0.020095091452091651263 31.86915329972659094
0.025298221281360611101 48.98670984624437352 0.025298221281360611101 36.24954602360042344
0.031848573644296607199 57.84005307522318162 0.031848573644296607199 40.62627155034062554
0.040094978690177640601 67.68971647687365589 0.040094978690177640601 44.81374469532087090
0.050476587558421215363 78.46911443031285671 0.050476587558421215363 48.62060835238112588
0.063546258777961384112 90.06884195898604162 0.063546258777961384112 51.87841180185755974
0.079999999999998294697 102.34460012253457251 0.079999999999998294697 54.47214594750555250
0.100714032943542974863 115.13386737589694064 0.100714032943542974863 56.36686724504408375
0.126791455396897845276 128.27607131123164663 0.126791455396897845276 57.61249689533172358
0.159620985197506115583 141.63144546579587768 0.159620985197506115583 58.33315284405249201
0.200950914520760193227 155.09625001147790613 0.200950914520760193227 58.69884260770638207
0.252982212813478213320 168.60854739018648729 0.252982212813478213320 58.88761781138171614
0.318485736442795541734 182.14594677261385414 0.318485736442795541734 59.05486859462000382
0.400949786901833249431 195.71718996045547101 0.400949786901833249431 59.31435999328486020
0.504765875584155310207 209.35111154953469281 0.504765875584155310207 59.73013086622542289
0.635462587779443310865 223.08444509551742385 0.635462587779443310865 60.33228520428610153
0.799999999999997157829 236.95795441535727832 0.799999999999997157829 61.11970323560431950
1.007140329435344483500 251.00542426881858660 1.007140329435344483500 62.07455730461241927
1.267914553968893187630 265.25631628944108797 1.267914553968893187630 63.18407442552351228
1.596209851975103788391 279.73457062190163924 1.596209851975103788391 64.43514549131417368
2.009509145207672986544 294.45856665514548922 2.009509145207672986544 65.82195248813604849
2.529822128134711078928 309.44310061746256224 2.529822128134711078928 67.34716872895107542
3.184857364427998049905 324.69950699640685343 3.184857364427998049905 69.01751747019628169
4.009497869018190385759 340.23514735175734813 4.009497869018190385759 70.82885464109280349
5.009497869018204596614 355.52137710283045635 5.009497869018204596614 72.68217998620824005
6.009497869018204596614 368.19374011459547091 6.009497869018204596614 74.26896258747044044
7.009497869018204596614 379.02729446590944917 7.009497869018204596614 75.65208930033870161
8.009497869018204596614 388.48705786940422513 8.009497869018204596614 76.87515026195761436
9.009497869018204596614 396.88217904463272134 9.009497869018204596614 77.96251021261196001
10.009497869018190385759 404.42279340077845973 10.009497869018190385759 78.92527335672475886
11.009497869018190385759 411.26072991075136542 11.009497869018190385759 79.81059896252428132
12.009497869018190385759 417.51275364748306629 12.009497869018190385759 80.57791707348044952
13.009497869018190385759 423.27190726774176710 13.009497869018190385759 81.30906818895121546
14.009497869018190385759 428.59296618431955039 14.009497869018190385759 82.02403562616525790
15.009497869018190385759 433.55033530400987729 15.009497869018190385759 82.61713791583088096
16.009497869018204596614 438.18694457356235716 16.009497869018204596614 83.14759619923360390
17.009497869018204596614 442.52457250819344381 17.009497869018204596614 83.73629096692738472
18.009497869018204596614 446.59556139166221556 18.009497869018204596614 84.16052365386670431
19.009497869018204596614 450.45051880778572695 19.009497869018204596614 84.57178253808078239
20.009497869018204596614 454.09790120087581045 20.009497869018204596614 84.96582249710125723
21.009497869018204596614 457.54836082433143929 21.009497869018204596614 85.44358764284469032
22.009497869018190385759 460.80906001519264237 22.009497869018190385759 85.87552768066423425
23.009497869018190385759 463.92402841121435131 23.009497869018190385759 86.15073269515646359
24.009497869018190385759 466.90832537778675260 24.009497869018190385759 86.43426157737752646
25.009497869018190385759 469.75960285174113551 25.009497869018190385759 86.81754522409428887
26.009497869018190385759 472.48273561975543089 26.009497869018190385759 87.05947961820378111
27.009497869018204596614 475.07757979925168002 27.009497869018204596614 87.35807460478164899
28.009497869018190385759 477.55916218115152105 28.009497869018190385759 87.56543640325996591
29.009497869018190385759 479.94978902685528510 29.009497869018190385759 87.48354030244711055
30.009497869018190385759 482.25456914986966694 30.009497869018190385759 87.47061084313993717
31.009497869018190385759 484.47020235523029896 31.009497869018190385759 87.50827261921206457
32.009497869018190385759 486.59797860910919098 32.009497869018190385759 87.60704554948500800
33.009497869018218807469 488.62818665825699327 33.009497869018218807469 87.56251543095467582
34.009497869018190385759 490.57116744232371275 34.009497869018190385759 87.63538250251484385
35.009497869018218807469 492.44151416402581845 35.009497869018218807469 87.66073432987751346
36.009497869018190385759 494.25142471652725362 36.009497869018190385759 87.60446809291913439
37.009497869018218807469 496.01248896197876093 37.009497869018218807469 87.54110187480931415
38.009497869018190385759 497.71826543266007548 38.009497869018190385759 87.59045719003782438
39.009497869018190385759 499.36890903026494470 39.009497869018190385759 87.78329446983045159
40.009497869018190385759 500.96515725474239389 40.009497869018190385759 88.00941129590604817
41.009497869018190385759 502.50994107029117686 41.009497869018190385759 88.17575430111678259
42.009497869018190385759 504.00342924252663579 42.009497869018190385759 88.39237735293490061
43.009497869018190385759 505.44965848792077168 43.009497869018190385759 88.52017214187048921
44.009497869018218807469 506.86018852711532645 44.009497869018218807469 88.59114568917486565
46.009497869018218807469 509.58063778038172131 46.009497869018218807469 88.77659152154708977
48.009497869018218807469 512.17519046055656418 48.009497869018218807469 88.92511563921489426
50.009497869018218807469 514.63076332512423505 50.009497869018218807469 89.24857704821816640
52.009497869018190385759 516.95290418912543373 52.009497869018190385759 89.34924508212263561
54.009497869018190385759 519.14400994532468303 54.009497869018190385759 89.32130079490308106
56.009497869018190385759 521.23455822822131722 56.009497869018190385759 89.06824333940249971
58.009497869018190385759 523.23893262495835188 58.009497869018190385759 88.09114164735083818
60.009497869018190385759 525.15580170957332484 60.009497869018190385759 87.42763023207116646
62.009497869018190385759 526.97327533269151445 62.009497869018190385759 86.78015722552746070
64.009497869018190385759 528.68923066019033286 64.009497869018190385759 86.15060491824182520
66.009497869018218807469 530.31199432909795632 66.009497869018218807469 85.54931482390307451
68.009497869018218807469 531.80728145355624292 68.009497869018218807469 84.71161251729441233
70.009497869018218807469 533.22030115536983885 70.009497869018218807469 84.16206115936422805
72.009497869018218807469 534.57037860531238493 72.009497869018218807469 83.74594825897042938
74.009497869018190385759 535.86966400278072342 74.009497869018190385759 83.19319000004809084
76.009497869018190385759 537.11294720416128712 76.009497869018190385759 82.65100742376237974
78.009497869018190385759 538.29831498205351181 78.009497869018190385759 82.51845960124893509
80.009497869018190385759 539.43803554121916477 80.009497869018190385759 82.12042451505742235
82.009497869018190385759 540.56095299489243189 82.009497869018190385759 81.76691943469650425
84.009497869018190385759 541.64668979975317598 84.009497869018190385759 81.71167133709066377
86.009497869018190385759 542.69849759109206389 86.009497869018190385759 81.66232010127346541
88.009497869018218807469 543.71435953251182127 88.009497869018218807469 81.54846530755931155
91.009497869018190385759 545.17352802859500116 91.009497869018190385759 81.22357077500207367
94.009497869018218807469 546.55618745919900903 94.009497869018218807469 80.70272807562515993
97.009497869018190385759 547.86641586718133112 97.009497869018190385759 79.09828722717037408
99.504748934509109403734 548.87457892738109422 99.504748934509109403734 81.90141608889742031
nan nan nan nan

