Time Pressure difference Time.1 Pressure.1 difference.1
(hr) (psi) (hr) (psi)
0.000200000000006639311 0.62414012054172052 0.000200000000006639311 0.50168309099735542
0.000399999999999067768 1.23893144471128736 0.000399999999999067768 1.27223481664533322
0.000600000000005707079 1.84615554478210409 0.000600000000005707079 1.84257488867408492
0.000799999999998135536 2.44663980077439591 0.000799999999998135536 2.41243739623606190
0.001007140329434719206 3.06203409458190690 0.001007140329434719206 2.99959400366406781
0.001267914553963578328 3.82798950224708490 0.001267914553963578328 3.72906625627773058
0.001596209851982166583 4.77931005903640660 0.001596209851982166583 4.62508382369828208
0.002009509145224797066 5.95788417780359580 0.002009509145224797066 5.72057460403262397
0.002529822128138903281 7.41367732505343113 0.002529822128138903281 7.05259670827126239
0.003184857364431081805 9.20564012991080993 0.003184857364431081805 8.66168485678474021
0.004009497869020606231 11.40239946898720902 0.004009497869020606231 10.59048731352352135
0.005047658755842121536 14.08253801897181745 0.005047658755842121536 12.88137762238389250
0.006354625877790454069 17.33418434603157365 0.006354625877790454069 15.57276782664901305
0.008000000000009777068 21.25359308447109541 0.008000000000009777068 18.69391938060321579
0.010071403294347192059 25.94234337595269224 0.010071403294347192059 22.25803568910910712
0.012679145539706837553 31.50273563792182330 0.012679145539706837553 26.25393364720824252
0.015962098519750611558 38.03115189982538169 0.015962098519750611558 30.63713851419489131
0.020095091452091651263 45.60934890568005073 0.020095091452091651263 35.32203374508496552
0.025298221281360611101 54.29420110337773764 0.025298221281360611101 40.17702245953956464
0.031848573644296607199 64.10676453578908252 0.031848573644296607199 45.02794665242731043
0.040094978690177640601 75.02359498242071822 0.040094978690177640601 49.66911381311551565
0.050476587558421215363 86.97089256771131716 0.050476587558421215363 53.88843414751466554
0.063546258777961384112 99.82739877445450816 0.063546258777961384112 57.49920605271766760
0.079999999999998294697 113.43318051648414269 0.079999999999998294697 60.37395971048565713
0.100714032943542974863 127.60810776508635911 0.100714032943542974863 62.47396559955836892
0.126791455396897845276 142.17421080908107456 0.126791455396897845276 63.85455365997967903
0.159620985197506115583 156.97658011362736374 0.159620985197506115583 64.65328946258820508
0.200950914520760193227 171.90023610349749106 0.200950914520760193227 65.05860007911235243
0.252982212813478213320 186.87653056276892016 0.252982212813478213320 65.26782823311268089
0.318485736442795541734 201.88064671576674414 0.318485736442795541734 65.45319989184091014
0.400949786901833249431 216.92227349936283076 0.400949786901833249431 65.74080602476813340
0.504765875584155310207 232.03336960907432740 0.504765875584155310207 66.20162381512831473
0.635462587779443310865 247.25464851728648341 0.635462587779443310865 66.86901888674169925
0.799999999999997157829 262.63129061848530910 0.799999999999997157829 67.74175014546480611
1.007140329435344483500 278.20074110028650693 1.007140329435344483500 68.80005838886033587
1.267914553968893187630 293.99565363266015083 1.267914553968893187630 70.02978673517027630
1.596209851975103788391 310.04256216805197255 1.596209851975103788391 71.41640576416520503
2.009509145207672986544 326.36183742012457287 2.009509145207672986544 72.95346710617715758
2.529822128134711078928 342.96987872242925732 2.529822128134711078928 74.64393371568954194
3.184857364427998049905 359.87924860363108337 3.184857364427998049905 76.49525728395107649
4.009497869018190385759 377.09810621563735822 4.009497869018190385759 78.50284474861970807
5.009497869018204596614 394.04053069815910249 5.009497869018204596614 80.55696961868174810
6.009497869018204596614 408.08588765263368714 6.009497869018204596614 82.31567302886547566
7.009497869018204596614 420.09320923966828332 7.009497869018204596614 83.84865534459210323
8.009497869018204596614 430.57789576447879654 8.009497869018204596614 85.20422949970998161
9.009497869018204596614 439.88259082984916404 9.009497869018204596614 86.40940004531077534
10.009497869018190385759 448.24019707816881919 10.009497869018190385759 87.47647427677985377
11.009497869018190385759 455.81899347355602004 11.009497869018190385759 88.45772095846395189
12.009497869018190385759 462.74839606316936624 12.009497869018190385759 89.30817456021185308
13.009497869018190385759 469.13152826014720631 13.009497869018190385759 90.11854263402059928
14.009497869018190385759 475.02910014865290123 14.009497869018190385759 90.91097360030323671
15.009497869018190385759 480.52357807486896490 15.009497869018190385759 91.56833587450068990
16.009497869018204596614 485.66254325356771915 16.009497869018204596614 92.15626694409932895
17.009497869018204596614 490.47013380483519995 17.009497869018204596614 92.80874416100151336
18.009497869018204596614 494.98219615444844521 18.009497869018204596614 93.27894056512019461
19.009497869018204596614 499.25482099193817476 19.009497869018204596614 93.73475751292410507
20.009497869018204596614 503.29738097959443621 20.009497869018204596614 94.17148994188237054
21.009497869018204596614 507.12168249490321159 21.009497869018204596614 94.70101880766240754
22.009497869018190385759 510.73566388213885148 22.009497869018190385759 95.17975761971131021
23.009497869018190385759 514.18812519368850644 23.009497869018190385759 95.48477986857020028
24.009497869018190385759 517.49575740993361705 24.009497869018190385759 95.79902783905532715
25.009497869018190385759 520.65595806554608771 25.009497869018190385759 96.22383855730510049
26.009497869018190385759 523.67413010857228528 26.009497869018190385759 96.49198546263582443
27.009497869018204596614 526.55011406739913582 27.009497869018204596614 96.82293188260571526
28.009497869018190385759 529.30056481864085072 28.009497869018190385759 97.05276040595578024
29.009497869018190385759 531.95020540751011140 29.009497869018190385759 96.96199122833449735
30.009497869018190385759 534.50469816464328687 30.009497869018190385759 96.94766091984909906
31.009497869018190385759 536.96038533368857770 31.009497869018190385759 96.98940318117647053
32.009497869018190385759 539.31869664289251887 32.009497869018190385759 97.09887771736480033
33.009497869018218807469 541.56886866808270042 33.009497869018218807469 97.04952295934508300
34.009497869018190385759 543.72236274354179386 34.009497869018190385759 97.13028485271411228
35.009497869018218807469 545.79535318033310887 35.009497869018218807469 97.15838343736058391
36.009497869018190385759 547.80135945887423077 36.009497869018190385759 97.09602100488987730
37.009497869018218807469 549.75322715112440619 37.009497869018218807469 97.02578934001559219
38.009497869018190385759 551.64381688510059121 38.009497869018190385759 97.08049208324837309
39.009497869018190385759 553.47330034540345878 39.009497869018190385759 97.29422242117371411
40.009497869018190385759 555.24249493680815704 40.009497869018190385759 97.54483799560888713
41.009497869018190385759 556.95464918039590430 41.009497869018190385759 97.72920352261405696
42.009497869018190385759 558.60995012678279181 42.009497869018190385759 97.96929671474630652
43.009497869018190385759 560.21287185264418440 43.009497869018190385759 98.11093749838353517
44.009497869018218807469 561.77622652273248605 44.009497869018218807469 98.18960071259937195
46.009497869018218807469 564.79142430417130072 46.009497869018218807469 98.39513877278353959
48.009497869018218807469 567.66708518102677772 48.009497869018218807469 98.55975481535237748
50.009497869018218807469 570.38870839988146599 50.009497869018218807469 98.91826182357414154
52.009497869018190385759 572.96244285676118579 52.009497869018190385759 99.02983678940972823
54.009497869018190385759 575.39094513705822465 54.009497869018190385759 98.99886486345775438
56.009497869018190385759 577.70799499086888318 56.009497869018190385759 98.71838976270525734
58.009497869018190385759 579.92953440277233312 58.009497869018190385759 97.63542346565824914
60.009497869018190385759 582.05408769274811220 60.009497869018190385759 96.90002355150494395
62.009497869018190385759 584.06847646683377207 62.009497869018190385759 96.18239973605312798
64.009497869018190385759 585.97034789130907484 64.009497869018190385759 95.48463824759747354
66.009497869018218807469 587.76893075714087900 66.009497869018218807469 94.81820105665391907
68.009497869018218807469 589.42622556419030388 68.009497869018218807469 93.88973744596175663
70.009497869018218807469 590.99233964072459457 70.009497869018218807469 93.28064465247250325
72.009497869018218807469 592.48869195347208461 72.009497869018218807469 92.81944777751188269
74.009497869018190385759 593.92874912167656021 74.009497869018190385759 92.20680062962870238
76.009497869018190385759 595.30673650592984814 76.009497869018190385759 91.60587499236913800
78.009497869018190385759 596.62053358918683443 78.009497869018190385759 91.45896620519098974
80.009497869018190385759 597.88373778140976356 80.009497869018190385759 91.01780579487331124
82.009497869018190385759 599.12831832669633059 82.009497869018190385759 90.62600001766509195
84.009497869018190385759 600.33168986590510485 84.009497869018190385759 90.56476603539917392
86.009497869018190385759 601.49745633448992521 86.009497869018190385759 90.51006781356370823
88.009497869018218807469 602.62338238083668784 88.009497869018218807469 90.38387736137978834
91.009497869018190385759 604.24064526741790360 91.009497869018190385759 90.02378195706671704
94.009497869018218807469 605.77310967293351496 94.009497869018218807469 89.44650827708382224
97.009497869018190385759 607.22529547797398664 97.009497869018190385759 87.66823342747873937
99.504748934509109403734 608.34268850370062864 99.504748934509109403734 90.77506878374137500
nan nan nan nan

