Time Pressure difference Time.1 Pressure.1 difference.1
(hr) (psi) (hr) (psi)
0.000200000000006639311 0.31907823863889812 0.000200000000006639311 0.25647471098543800
0.000399999999999067768 0.63337710581673479 0.000399999999999067768 0.65040273981736318
0.000600000000005707079 0.94380739211449693 0.000600000000005707079 0.94197685854276203
0.000799999999998135536 1.25079207780672563 0.000799999999998135536 1.23330683268607144
0.001007140329434719206 1.56539920026842538 0.001007140329434719206 1.53347804414530287
0.001267914553963578328 1.95697746019765106 0.001267914553963578328 1.90640507421331828
0.001596209851982166583 2.44331967351002577 0.001596209851982166583 2.36447482136226572
0.002009509145224797066 3.04584039208717527 0.002009509145224797066 2.92452096665868622
0.002529822128138903281 3.79008338810525469 0.002529822128138903281 3.60548867384541394
0.003184857364431081805 4.70618590525162972 0.003184857364431081805 4.42810044858083796
0.004009497869020606231 5.82923196102780672 0.004009497869020606231 5.41415930030858927
0.005047658755842121536 7.19939526201069135 0.005047658755842121536 6.58532779374183175
0.006354625877790454069 8.86172964585762024 0.006354625877790454069 7.96124326144407934
0.008000000000009777068 10.86544322812458852 0.008000000000009777068 9.55686499378262155
0.010071403294347192059 13.26246616445666149 0.010071403294347192059 11.37894294806502415
0.012679145539706837553 16.10509734725990327 0.012679145539706837553 13.42176000194133323
0.015962098519750611558 19.44261002012208905 0.015962098519750611558 15.66257939893450590
0.020095091452091651263 23.31680056340578844 0.020095091452091651263 18.05763151829310686
0.025298221281360611101 27.75674481771093838 0.025298221281360611101 20.53964027984387286
0.031848573644296607199 32.77320723295954252 0.031848573644296607199 23.01957114199388243
0.040094978690177640601 38.35420245468536393 0.040094978690177640601 25.39226822414227414
0.050476587558421215363 44.46200188071900072 0.050476587558421215363 27.54930517184699212
0.063546258777961384112 51.03461469711214704 0.063546258777961384112 29.39523479841709275
0.079999999999998294697 57.99027854673627758 0.079999999999998294697 30.86489089558514110
0.100714032943542974863 65.23690581913926678 0.100714032943542974863 31.93847382698690751
0.126791455396897845276 72.68351331983404862 0.126791455396897845276 32.64426983673994442
0.159620985197506115583 80.25090687447000448 0.159620985197506115583 33.05260636990968948
0.200950914520760193227 87.88030564339963746 0.200950914520760193227 33.25981272208253614
0.252982212813478213320 95.53661469985677002 0.252982212813478213320 33.36677612445787133
0.318485736442795541734 103.20714700000227992 0.318485736442795541734 33.46154340573637143
0.400949786901833249431 110.89685580482615990 0.400949786901833249431 33.60857586735173896
0.504765875584155310207 118.62207931137618289 0.504765875584155310207 33.84415907061382001
0.635462587779443310865 126.40363140844104350 0.635462587779443310865 34.18535047446371777
0.799999999999997157829 134.26460960284518364 0.799999999999997157829 34.63151559616232333
1.007140329435344483500 142.22415694294696209 1.007140329435344483500 35.17255296762080263
1.267914553968893187630 150.29896691656472285 1.267914553968893187630 35.80122518693646327
1.596209851975103788391 158.50260443730002180 1.596209851975103788391 36.51010439991008383
2.009509145207672986544 166.84548359522881356 2.009509145207672986544 37.29589401597167608
2.529822128134711078928 175.33598819759595244 2.529822128134711078928 38.16010878199716672
3.184857364427998049905 183.98054056751018948 3.184857364427998049905 39.10655821517710251
4.009497869018190385759 192.78331189623733621 4.009497869018190385759 40.13289421098523491
5.009497869018204596614 201.44476272151592866 5.009497869018204596614 41.18302145631417943
6.009497869018204596614 208.62514996244283338 6.009497869018204596614 42.08212082189027825
7.009497869018204596614 214.76363537087402733 7.009497869018204596614 42.86582512332515194
8.009497869018204596614 220.12370628910605319 8.009497869018204596614 43.55883331094816668
9.009497869018204596614 224.88053190376703583 9.009497869018204596614 44.17495088181673424
10.009497869018190385759 229.15317869121707872 10.009497869018190385759 44.72046967650436500
11.009497869018190385759 233.02767565953263329 11.009497869018190385759 45.22211097876559194
12.009497869018190385759 236.57018398473783805 12.009497869018190385759 45.65688712655479975
13.009497869018190385759 239.83342329812015237 13.009497869018190385759 46.07117040867367308
14.009497869018190385759 242.84843032698634602 14.009497869018190385759 46.47628372961341370
15.009497869018190385759 245.65736422057369737 15.009497869018190385759 46.81234608115160967
16.009497869018204596614 248.28454985354119344 16.009497869018204596614 47.11291321977072499
17.009497869018204596614 250.74232732162641923 17.009497869018204596614 47.44647819063089855
18.009497869018204596614 253.04902234051724008 18.009497869018204596614 47.68685600885272180
19.009497869018204596614 255.23331007117582203 19.009497869018204596614 47.91988263870756271
20.009497869018204596614 257.29998208600136422 20.009497869018204596614 48.14315271797685369
21.009497869018204596614 259.25507414204435008 21.009497869018204596614 48.41386298357377882
22.009497869018190385759 261.10264454740786277 22.009497869018190385759 48.65860792447592331
23.009497869018190385759 262.86764128131761709 23.009497869018190385759 48.81454400150154527
24.009497869018190385759 264.55859724919980636 24.009497869018190385759 48.97519653066633083
25.009497869018190385759 266.17418199652092881 25.009497869018190385759 49.19237189125108500
26.009497869018190385759 267.71715766448807017 26.009497869018190385759 49.32945624047565047
27.009497869018204596614 269.18744272666236839 27.009497869018204596614 49.49864549348534837
28.009497869018190385759 270.59355163119420240 28.009497869018190385759 49.61614039247673702
29.009497869018190385759 271.94812350423569569 29.009497869018190385759 49.56973659889755623
30.009497869018190385759 273.25405309077535776 30.009497869018190385759 49.56241053630329674
31.009497869018190385759 274.50947044139689979 31.009497869018190385759 49.58375037135441943
32.009497869018190385759 275.71510647397542471 32.009497869018190385759 49.63971687796589549
33.009497869018218807469 276.86545861895382359 33.009497869018218807469 49.61448531739305423
34.009497869018190385759 277.96638623745138830 34.009497869018190385759 49.65577310171778436
35.009497869018218807469 279.02615809879642939 35.009497869018218807469 49.67013789994523876
36.009497869018190385759 280.05168574713911767 36.009497869018190385759 49.63825644503616985
37.009497869018218807469 281.04953620539646408 37.009497869018218807469 49.60235201398419491
38.009497869018190385759 282.01605962289812624 38.009497869018190385759 49.63031761719566504
39.009497869018190385759 282.95134376971094525 39.009497869018190385759 49.73958266445737308
40.009497869018190385759 283.85580652647917077 40.009497869018190385759 49.86770449709463549
41.009497869018190385759 284.73110862987215341 41.009497869018190385759 49.96195741512766375
42.009497869018190385759 285.57734570550195485 42.009497869018190385759 50.08469990568932673
43.009497869018190385759 286.39680502902689341 43.009497869018190385759 50.15711071581826985
44.009497869018218807469 287.19603654464657438 44.009497869018218807469 50.19732559547682627
46.009497869018218807469 288.73749168522363107 46.009497869018218807469 50.30240251660136153
48.009497869018218807469 290.20761157867548263 48.009497869018218807469 50.38655893466495428
50.009497869018218807469 291.59898302609531129 50.009497869018218807469 50.56983794679418764
52.009497869018190385759 292.91474951858202758 52.009497869018190385759 50.62687825297432198
54.009497869018190385759 294.15626917839040289 54.009497869018190385759 50.61104452068447301
56.009497869018190385759 295.34081117763048496 56.009497869018190385759 50.46765764619146211
58.009497869018190385759 296.47652551370259744 58.009497869018190385759 49.91401437412118725
60.009497869018190385759 297.56265777687389118 60.009497869018190385759 49.53805695433608491
62.009497869018190385759 298.59247079612242715 62.009497869018190385759 49.17118718342478445
64.009497869018190385759 299.56476173571547861 64.009497869018190385759 48.81447160081931003
66.009497869018218807469 300.48424861692672039 66.009497869018218807469 48.47376989289968918
68.009497869018218807469 301.33150501101937380 68.009497869018218807469 47.99911280262509905
70.009497869018218807469 302.13214721395036122 70.009497869018218807469 47.68772718693112012
72.009497869018218807469 302.89712521267330203 72.009497869018218807469 47.45195018480462323
74.009497869018190385759 303.63332352719788787 74.009497869018190385759 47.13874748172563756
76.009497869018190385759 304.33778999708698620 76.009497869018190385759 46.83153714933534673
78.009497869018190385759 305.00944055352084661 78.009497869018190385759 46.75643318548073069
80.009497869018190385759 305.65522658045648541 80.009497869018190385759 46.53089939579388812
82.009497869018190385759 306.29149166767700763 82.009497869018190385759 46.33059710282218191
84.009497869018190385759 306.90668953514563100 84.009497869018190385759 46.29929254385664450
86.009497869018190385759 307.50266261750016383 86.009497869018190385759 46.27132925211249415
88.009497869018218807469 308.07826813921241182 88.009497869018218807469 46.20681709227738310
91.009497869018190385759 308.90505907330350510 91.009497869018190385759 46.02272604674348599
94.009497869018218807469 309.68849860426058740 94.009497869018218807469 45.72760726979054624
97.009497869018190385759 310.43089742401053854 97.009497869018190385759 44.81850242593694844
99.504748934509109403734 311.00214062210318389 99.504748934509109403734 46.40680530952167260
nan nan nan nan

