Time Pressure difference Time.1 Pressure.1 difference.1
(hr) (psi) (hr) (psi)
0.000200000000006639311 0.41389476950058618 0.000200000000006639311 0.33268812639454742
0.000399999999999067768 0.82158994087855519 0.000399999999999067768 0.84367487180443490
0.000600000000005707079 1.22426695307875333 0.000600000000005707079 1.22189246250249739
0.000799999999998135536 1.62247447818856916 0.000799999999998135536 1.59979335919485210
0.001007140329434719206 2.03056950525775060 0.001007140329434719206 1.98916273426599988
0.001267914553963578328 2.53850823002382642 0.001267914553963578328 2.47290787404414925
0.001596209851982166583 3.16937073928173918 0.001596209851982166583 3.06709653830454121
0.002009509145224797066 3.95093508224227863 0.002009509145224797066 3.79356466476139698
0.002529822128138903281 4.91633555769725561 0.002529822128138903281 4.67688711697777215
0.003184857364431081805 6.10466492102407798 0.003184857364431081805 5.74394425113069929
0.004009497869020606231 7.56143267296113475 0.004009497869020606231 7.02301800711863589
0.005047658755842121536 9.33875044322833858 0.005047658755842121536 8.54220814588733646
0.006354625877790454069 11.49506016077655346 0.006354625877790454069 10.32698738306182840
0.008000000000009777068 14.09419250779985511 0.008000000000009777068 12.39676027617280774
0.010071403294347192059 17.20350908154326319 0.010071403294347192059 14.76028258379494318
0.012679145539706837553 20.89084978895212075 0.012679145539706837553 17.41013829709186211
0.015962098519750611558 25.22012979354338569 0.015962098519750611558 20.31683425908300222
0.020095091452091651263 30.24556558870724743 0.020095091452091651263 23.42359437256624943
0.025298221281360611101 36.00487312271548035 0.025298221281360611101 26.64315095731686256
0.031848573644296607199 42.51201558383900192 0.031848573644296607199 29.86001217902049021
0.040094978690177640601 49.75144607817068021 0.040094978690177640601 32.93777428557990561
0.050476587558421215363 57.67422466181120910 0.050476587558421215363 35.73579120482478544
0.063546258777961384112 66.19993947790774769 0.063546258777961384112 38.13025289096997739
0.079999999999998294697 75.22253186165791305 0.079999999999998294697 40.03662850021638064
0.100714032943542974863 84.62254966720389859 0.100714032943542974863 41.42923478332669163
0.126791455396897845276 94.28197335027569181 0.126791455396897845276 42.34476345747660986
0.159620985197506115583 104.09807558393781335 0.159620985197506115583 42.87444030412057572
0.200950914520760193227 113.99460835397060521 0.200950914520760193227 43.14321960332153338
0.252982212813478213320 123.92604800859973579 0.252982212813478213320 43.28196799606679690
0.318485736442795541734 133.87593745219933794 0.318485736442795541734 43.40489609736345500
0.400949786901833249431 143.85070184502001212 0.400949786901833249431 43.59562037573792281
0.504765875584155310207 153.87153440390397918 0.504765875584155310207 43.90120892363859895
0.635462587779443310865 163.96543402335245787 0.635462587779443310865 44.34378795395551975
0.799999999999997157829 174.16236181040900988 0.799999999999997157829 44.92253444256715511
1.007140329435344483500 184.48714931617413981 1.007140329435344483500 45.62434519314119541
1.267914553968893187630 194.96145062562140993 1.267914553968893187630 46.43983215463075709
1.596209851975103788391 205.60286156983104888 1.596209851975103788391 47.35936022934073009
2.009509145207672986544 216.42489086512887297 2.009509145207672986544 48.37865321968418897
2.529822128134711078928 227.43841363099005548 2.529822128134711078928 49.49967599111777616
3.184857364427998049905 238.65176063279099594 3.184857364427998049905 50.72737008790414848
4.009497869018190385759 250.07034256307790088 4.009497869018190385759 52.05868964835811141
5.009497869018204596614 261.30560952506715466 5.009497869018204596614 53.42087020948248011
6.009497869018204596614 270.61970356885348110 6.009497869018204596614 54.58714380513932696
7.009497869018204596614 278.58228670847222475 7.009497869018204596614 55.60373181371893025
8.009497869018204596614 285.53514355847863726 8.009497869018204596614 56.50267266691467682
9.009497869018204596614 291.70549616457634556 9.009497869018204596614 57.30187427047028592
10.009497869018190385759 297.24779251418857484 10.009497869018190385759 58.00949813334675298
11.009497869018190385759 302.27362579091828820 11.009497869018190385759 58.66020597245562129
12.009497869018190385759 306.86881746857466169 12.009497869018190385759 59.22417916674550753
13.009497869018190385759 311.10175321875016152 13.009497869018190385759 59.76156988411933924
14.009497869018190385759 315.01269256885564118 14.009497869018190385759 60.28706571644943324
15.009497869018190385759 318.65632258069246063 15.009497869018190385759 60.72299155746280519
16.009497869018204596614 322.06419645084673675 16.009497869018204596614 61.11287451246744951
17.009497869018204596614 325.25232122856971273 17.009497869018204596614 61.54556085709743485
18.009497869018204596614 328.24446825565803465 18.009497869018204596614 61.85736877634126785
19.009497869018204596614 331.07783373573710151 19.009497869018204596614 62.15964104555864367
20.009497869018204596614 333.75863309346948427 20.009497869018204596614 62.44925753081235342
21.009497869018204596614 336.29469565712213353 21.009497869018204596614 62.80041141538511340
22.009497869018190385759 338.69128569198642253 22.009497869018190385759 63.11788418110313614
23.009497869018190385759 340.98076465948696523 23.009497869018190385759 63.32015785207693881
24.009497869018190385759 343.17420108294140846 24.009497869018190385759 63.52854950489533792
25.009497869018190385759 345.26986915310988024 25.009497869018190385759 63.81026017934895833
26.009497869018190385759 347.27135180251423208 26.009497869018190385759 63.98808018790381169
27.009497869018204596614 349.17854327851296148 27.009497869018204596614 64.20754531713087943
28.009497869018190385759 351.00248816242759631 28.009497869018190385759 64.35995472099048698
29.009497869018190385759 352.75958139309130956 29.009497869018190385759 64.29976168642525636
30.009497869018190385759 354.45357791103157297 30.009497869018190385759 64.29025862848645545
31.009497869018190385759 356.08205209710922645 31.009497869018190385759 64.31793975819098819
32.009497869018190385759 357.64595206701727648 32.009497869018190385759 64.39053713886013952
33.009497869018218807469 359.13814012071009074 33.009497869018218807469 64.35780782772950204
34.009497869018190385759 360.56621677312813290 34.009497869018190385759 64.41136459189232255
35.009497869018218807469 361.94090792143623503 35.009497869018218807469 64.42999799941217987
36.009497869018190385759 363.27117892781359387 36.009497869018190385759 64.38864272715287029
37.009497869018218807469 364.56554825609566706 37.009497869018218807469 64.34206902072367029
38.009497869018190385759 365.81928147466379642 38.009497869018190385759 64.37834481610393311
39.009497869018190385759 367.03249243512891553 39.009497869018190385759 64.52007880505840376
40.009497869018190385759 368.20572319455442312 40.009497869018190385759 64.68627301690311526
41.009497869018190385759 369.34112799017009365 41.009497869018190385759 64.80853390799505576
42.009497869018190385759 370.43883086346761502 42.009497869018190385759 64.96775026526108832
43.009497869018190385759 371.50179877150253560 43.009497869018190385759 65.06167849958855243
44.009497869018218807469 372.53852802432191993 44.009497869018218807469 65.11384353728517738
46.009497869018218807469 374.53803831003170899 46.009497869018218807469 65.25014486649581613
48.009497869018218807469 376.44501553616305500 48.009497869018218807469 65.35930900568941126
50.009497869018218807469 378.24984361524502674 50.009497869018218807469 65.59705077336093382
52.009497869018190385759 379.95660015071882754 52.009497869018190385759 65.67104104132586428
54.009497869018190385759 381.56704684121956461 54.009497869018190385759 65.65050219478968074
56.009497869018190385759 383.10358452498837778 56.009497869018190385759 65.46450681754035372
58.009497869018190385759 384.57678503327827002 58.009497869018190385759 64.74634422689621260
60.009497869018190385759 385.98566977775374198 60.009497869018190385759 64.25866819399668373
62.009497869018190385759 387.32149958566787973 62.009497869018190385759 63.78278027410656392
64.009497869018190385759 388.58271418948106657 64.009497869018190385759 63.32006393698009106
66.009497869018218807469 389.77543360645273651 66.009497869018218807469 62.87812011947195856
68.009497869018218807469 390.87445869646444407 68.009497869018218807469 62.26241505663514175
70.009497869018218807469 391.91301783308290396 70.009497869018218807469 61.85849883162641305
72.009497869018218807469 392.90531487535400856 72.009497869018218807469 61.55265889605146157
74.009497869018190385759 393.86028013088724720 74.009497869018190385759 61.14638562229011143
76.009497869018190385759 394.77408418226787035 76.009497869018190385759 60.74788539784584884
78.009497869018190385759 395.64532082136292956 78.009497869018190385759 60.65046371863392238
80.009497869018190385759 396.48300708886091570 80.009497869018190385759 60.35791084415640739
82.009497869018190385759 397.30834319683162903 82.009497869018190385759 60.09808719797605647
84.009497869018190385759 398.10635180011144030 84.009497869018190385759 60.05748025068742635
86.009497869018190385759 398.87942282683479789 86.009497869018190385759 60.02120745364462806
88.009497869018218807469 399.62607391701453707 88.009497869018218807469 59.93752501375515607
91.009497869018190385759 400.69855207958227084 91.009497869018190385759 59.69872991076286439
94.009497869018218807469 401.71479663911844682 94.009497869018218807469 59.31591433962493909
97.009497869018190385759 402.67780492726944885 97.009497869018190385759 58.13666206155129146
99.504748934509109403734 403.41879739611323430 99.504748934509109403734 60.19694125421158049
nan nan nan nan

