Time Pressure difference Time.1 Pressure.1 difference.1
(hr) (psi) (hr) (psi)
0.000200000000006639311 0.08822059828000542 0.000200000000006639311 0.07091161259804099
0.000399999999999067768 0.17511976827491116 0.000399999999999067768 0.17982711410971022
0.000600000000005707079 0.26094933063630799 0.000600000000005707079 0.26044321411905824
0.000799999999998135536 0.34582623339875879 0.000799999999998135536 0.34099181162121350
0.001007140329434719206 0.43281063159876360 0.001007140329434719206 0.42398488559056180
0.001267914553963578328 0.54107645540348492 0.001267914553963578328 0.52709390940781664
0.001596209851982166583 0.67554316554411564 0.001596209851982166583 0.65374368445933451
0.002009509145224797066 0.84213158127474874 0.002009509145224797066 0.80858848432165231
0.002529822128138903281 1.04790419257690504 0.002529822128138903281 0.99686637752315066
0.003184857364431081805 1.30119351902306057 0.003184857364431081805 1.22430684237247966
0.004009497869020606231 1.61169979284231357 0.004009497869020606231 1.49693810111891246
0.005047658755842121536 1.99053047295902852 0.005047658755842121536 1.82074954503973130
0.006354625877790454069 2.45014230518544052 0.006354625877790454069 2.20117061750521037
0.008000000000009777068 3.00414063413263799 0.008000000000009777068 2.64233734970217204
0.010071403294347192059 3.66688340981101479 0.010071403294347192059 3.14611600889653165
0.012679145539706837553 4.45283053270493401 0.012679145539706837553 3.71092589200961953
0.015962098519750611558 5.37560535440068055 0.015962098519750611558 4.33048060900773191
0.020095091452091651263 6.44676398006309892 0.020095091452091651263 4.99267848180197049
0.025298221281360611101 7.67434546639553172 0.025298221281360611101 5.67891863034443034
0.031848573644296607199 9.06132603081827348 0.031848573644296607199 6.36458426923345133
0.040094978690177640601 10.60439189315590269 0.040094978690177640601 7.02060129194631433
0.050476587558421215363 12.29311163110318539 0.050476587558421215363 7.61699135242281233
0.063546258777961384112 14.11034566560981851 0.063546258777961384112 8.12736466002746560
0.079999999999998294697 16.03348786692708572 0.079999999999998294697 8.53370368430906900
0.100714032943542974863 18.03707731950362003 0.100714032943542974863 8.83053410720309984
0.126791455396897845276 20.09595846310656952 0.126791455396897845276 9.02567667320716716
0.159620985197506115583 22.18823523402658893 0.159620985197506115583 9.13857592139621744
0.200950914520760193227 24.29765556548775862 0.200950914520760193227 9.19586553297889253
0.252982212813478213320 26.41451620900432573 0.252982212813478213320 9.22543939358395981
0.318485736442795541734 28.53530937726161554 0.318485736442795541734 9.25164120003563895
0.400949786901833249431 30.66140457652816309 0.400949786901833249431 9.29229358606366063
0.504765875584155310207 32.79731908609108615 0.504765875584155310207 9.35742899368392500
0.635462587779443310865 34.94880765039584958 0.635462587779443310865 9.45176356787498229
0.799999999999997157829 37.12225640182024478 0.799999999999997157829 9.57512188317666357
1.007140329435344483500 39.32295812117655487 1.007140329435344483500 9.72471102722332326
1.267914553968893187630 41.55552832060057966 1.267914553968893187630 9.89852996124599649
1.596209851975103788391 43.82371750592016468 1.596209851975103788391 10.09452498912242646
2.009509145207672986544 46.13040502503742601 2.009509145207672986544 10.31178465041077352
2.529822128134711078928 48.47790888150584721 2.529822128134711078928 10.55072775109482386
3.184857364427998049905 50.86800475639170571 3.184857364427998049905 10.81240756853733842
4.009497869018190385759 53.30184592479946559 4.009497869018190385759 11.09617488520780526
5.009497869018204596614 55.69661398243463424 5.009497869018204596614 11.38652014425224301
6.009497869018204596614 57.68188900770383043 6.009497869018204596614 11.63510834093607116
7.009497869018204596614 59.37909298367834765 7.009497869018204596614 11.85179144236638571
8.009497869018204596614 60.86107641585102357 8.009497869018204596614 12.04339835729057917
9.009497869018204596614 62.17627109483997572 9.009497869018204596614 12.21374610944286943
10.009497869018190385759 63.35759720919955384 10.009497869018190385759 12.36457430332291096
11.009497869018190385759 64.42884055702840840 11.009497869018190385759 12.50327099412898590
12.009497869018190385759 65.40829376322209043 12.009497869018190385759 12.62348042000352422
13.009497869018190385759 66.31053305658618058 13.009497869018190385759 12.73802385976249063
14.009497869018190385759 67.14413965113058680 14.009497869018190385759 12.85003193557786716
15.009497869018190385759 67.92076995245835747 15.009497869018190385759 12.94294839969824906
16.009497869018204596614 68.64714944271035790 16.009497869018204596614 13.02605094190043289
17.009497869018204596614 69.32668998298198915 17.009497869018204596614 13.11827691575582833
18.009497869018204596614 69.96445837321793704 18.009497869018204596614 13.18473796627194261
19.009497869018204596614 70.56838288789614921 19.009497869018204596614 13.24916651767883558
20.009497869018204596614 71.13978832868772884 20.009497869018204596614 13.31089752150781180
21.009497869018204596614 71.68034349663757610 21.009497869018204596614 13.38574506264184549
22.009497869018190385759 72.19117045626005336 22.009497869018190385759 13.45341356051401682
23.009497869018190385759 72.67916696925320252 23.009497869018190385759 13.49652766966580053
24.009497869018190385759 73.14669226269866442 24.009497869018190385759 13.54094581080438608
25.009497869018190385759 73.59337848482620359 25.009497869018190385759 13.60099171153453845
26.009497869018190385759 74.01998932842434442 26.009497869018190385759 13.63889358586794209
27.009497869018204596614 74.42650225259140484 27.009497869018204596614 13.68567200982669974
28.009497869018190385759 74.81527138123458087 28.009497869018190385759 13.71815767957366994
29.009497869018190385759 75.18979125310909239 29.009497869018190385759 13.70532769013446561
30.009497869018190385759 75.55086222406450247 30.009497869018190385759 13.70330213794432339
31.009497869018190385759 75.89796727966272272 31.009497869018190385759 13.70920229905664733
32.009497869018190385759 76.23130850830845873 32.009497869018190385759 13.72467624274509035
33.009497869018218807469 76.54936452772108169 33.009497869018218807469 13.71770007483477194
34.009497869018190385759 76.85375536797749874 34.009497869018190385759 13.72911556042326353
35.009497869018218807469 77.14676722628222194 35.009497869018218807469 13.73308722298227558
36.009497869018190385759 77.43031104636663997 36.009497869018190385759 13.72427245379553185
37.009497869018218807469 77.70620251673751966 37.009497869018218807469 13.71434538887935162
38.009497869018190385759 77.97343250555582017 38.009497869018190385759 13.72207748072334965
39.009497869018190385759 78.23202527999758615 39.009497869018190385759 13.75228771342878176
40.009497869018190385759 78.48209637812216499 40.009497869018190385759 13.78771157930006908
41.009497869018190385759 78.72410497001632734 41.009497869018190385759 13.81377117162444534
42.009497869018190385759 78.95807749480285054 42.009497869018190385759 13.84770772586242416
43.009497869018190385759 79.18464635169476651 43.009497869018190385759 13.86772828576887662
44.009497869018218807469 79.40562250717617587 44.009497869018218807469 13.87884712846516955
46.009497869018218807469 79.83181294656053240 46.009497869018218807469 13.90789940381484513
48.009497869018218807469 80.23828020392321037 48.009497869018218807469 13.93116745738798379
50.009497869018218807469 80.62297463512196316 50.009497869018218807469 13.98184149950123256
52.009497869018190385759 80.98676537077074045 52.009497869018190385759 13.99761233350969647
54.009497869018190385759 81.33002791237150575 54.009497869018190385759 13.99323453155875541
56.009497869018190385759 81.65753694058517453 56.009497869018190385759 13.95359009855939725
58.009497869018190385759 81.97154581386610062 58.009497869018190385759 13.80051560214720219
60.009497869018190385759 82.27184594864472444 60.009497869018190385759 13.69656871864072656
62.009497869018190385759 82.55657461288139132 62.009497869018190385759 13.59513444089522416
64.009497869018190385759 82.82539923959058115 64.009497869018190385759 13.49650765190611423
66.009497869018218807469 83.07962429460248188 66.009497869018218807469 13.40230847168027672
68.009497869018218807469 83.31387864645756736 68.009497869018218807469 13.27107253199195291
70.009497869018218807469 83.53524483693202285 70.009497869018218807469 13.18497883462953446
72.009497869018218807469 83.74675038179856301 72.009497869018218807469 13.11978984437750384
74.009497869018190385759 83.95029875299786681 74.009497869018190385759 13.03319374817737319
76.009497869018190385759 84.14507372012482733 76.009497869018190385759 12.94825445730977265
78.009497869018190385759 84.33077555355744437 78.009497869018190385759 12.92748927867296693
80.009497869018190385759 84.50932621216755081 80.009497869018190385759 12.86513239108513140
82.009497869018190385759 84.68524446625694679 82.009497869018190385759 12.80975165375186897
84.009497869018190385759 84.85533793348987786 84.009497869018190385759 12.80109638809473083
86.009497869018190385759 85.02011602085920572 86.009497869018190385759 12.79336493533859631
88.009497869018218807469 85.17926276717241763 88.009497869018218807469 12.77552823998366804
91.009497869018190385759 85.40785871018985631 91.009497869018190385759 12.72462968217455703
94.009497869018218807469 85.62446860634595680 94.009497869018218807469 12.64303353454157097
97.009497869018190385759 85.82973132911918412 97.009497869018190385759 12.39167896531073154
99.504748934509109403734 85.98767195494843918 99.504748934509109403734 12.83082213984191000
nan nan nan nan

