Time Pressure difference Time.1 Pressure.1 difference.1
(hr) (psi) (hr) (psi)
0.000200000000006639311 0.63815647727779623 0.000200000000006639311 0.51294942197087601
0.000399999999999067768 1.26675421163346957 0.000399999999999067768 1.30080547963472637
0.000600000000005707079 1.88761478422899387 0.000600000000005707079 1.88395371708552406
0.000799999999998135536 2.50158415561345127 0.000799999999998135536 2.46661366537214288
0.001007140329434719206 3.13079840053685077 0.001007140329434719206 3.06695608829060573
0.001267914553963578328 3.91395492039530213 0.001267914553963578328 3.81281014842663657
0.001596209851982166583 4.88663934702005154 0.001596209851982166583 4.72894964272453144
0.002009509145224797066 6.09168078417435055 0.002009509145224797066 5.84904193331737243
0.002529822128138903281 7.58016677621050938 0.002529822128138903281 7.21097734769082788
0.003184857364431081805 9.41237181050325944 0.003184857364431081805 8.85620089716167591
0.004009497869020606231 11.65846392205561344 0.004009497869020606231 10.82831860061717855
0.005047658755842121536 14.39879052402138271 0.005047658755842121536 13.17065558748366350
0.006354625877790454069 17.72345929171524048 0.006354625877790454069 15.92248652288815869
0.008000000000009777068 21.73088645624917703 0.008000000000009777068 19.11372998756524311
0.010071403294347192059 26.52493232891332298 0.010071403294347192059 22.75788589613004831
0.012679145539706837553 32.21019469451980655 0.012679145539706837553 26.84352000388266646
0.015962098519750611558 38.88522004024417811 0.015962098519750611558 31.32515879786901181
0.020095091452091651263 46.63360112681157688 0.020095091452091651263 36.11526303658621373
0.025298221281360611101 55.51348963542187676 0.025298221281360611101 41.07928055968774572
0.031848573644296607199 65.54641446591908505 0.031848573644296607199 46.03914228398776487
0.040094978690177640601 76.70840490937072786 0.040094978690177640601 50.78453644828454827
0.050476587558421215363 88.92400376143800145 0.050476587558421215363 55.09861034369398425
0.063546258777961384112 102.06922939422429408 0.063546258777961384112 58.79046959683418550
0.079999999999998294697 115.98055709347255515 0.079999999999998294697 61.72978179117028219
0.100714032943542974863 130.47381163827853356 0.100714032943542974863 63.87694765397381502
0.126791455396897845276 145.36702663966809723 0.126791455396897845276 65.28853967347988885
0.159620985197506115583 160.50181374894000896 0.159620985197506115583 66.10521273981937895
0.200950914520760193227 175.76061128679927492 0.200950914520760193227 66.51962544416507228
0.252982212813478213320 191.07322939971354003 0.252982212813478213320 66.73355224891574267
0.318485736442795541734 206.41429400000455985 0.318485736442795541734 66.92308681147274285
0.400949786901833249431 221.79371160965231979 0.400949786901833249431 67.21715173470347793
0.504765875584155310207 237.24415862275236577 0.504765875584155310207 67.68831814122764001
0.635462587779443310865 252.80726281688208701 0.635462587779443310865 68.37070094892743555
0.799999999999997157829 268.52921920569036729 0.799999999999997157829 69.26303119232464667
1.007140329435344483500 284.44831388589392418 1.007140329435344483500 70.34510593524160527
1.267914553968893187630 300.59793383312944570 1.267914553968893187630 71.60245037387292655
1.596209851975103788391 317.00520887460004360 1.596209851975103788391 73.02020879982016766
2.009509145207672986544 333.69096719045762711 2.009509145207672986544 74.59178803194335217
2.529822128134711078928 350.67197639519190488 2.529822128134711078928 76.32021756399433343
3.184857364427998049905 367.96108113502037895 3.184857364427998049905 78.21311643035420502
4.009497869018190385759 385.56662379247467243 4.009497869018190385759 80.26578842197046981
5.009497869018204596614 402.88952544303185732 5.009497869018204596614 82.36604291262835886
6.009497869018204596614 417.25029992488566677 6.009497869018204596614 84.16424164378055650
7.009497869018204596614 429.52727074174805466 7.009497869018204596614 85.73165024665030387
8.009497869018204596614 440.24741257821210638 8.009497869018204596614 87.11766662189633337
9.009497869018204596614 449.76106380753407166 9.009497869018204596614 88.34990176363346848
10.009497869018190385759 458.30635738243415744 10.009497869018190385759 89.44093935300873000
11.009497869018190385759 466.05535131906526658 11.009497869018190385759 90.44422195753118388
12.009497869018190385759 473.14036796947567609 12.009497869018190385759 91.31377425310959950
13.009497869018190385759 479.66684659624030473 13.009497869018190385759 92.14234081734734616
14.009497869018190385759 485.69686065397269203 14.009497869018190385759 92.95256745922682740
15.009497869018190385759 491.31472844114739473 15.009497869018190385759 93.62469216230321933
16.009497869018204596614 496.56909970708238689 16.009497869018204596614 94.22582643954144999
17.009497869018204596614 501.48465464325283847 17.009497869018204596614 94.89295638126179711
18.009497869018204596614 506.09804468103448016 18.009497869018204596614 95.37371201770544360
19.009497869018204596614 510.46662014235164406 19.009497869018204596614 95.83976527741512541
20.009497869018204596614 514.59996417200272845 20.009497869018204596614 96.28630543595370739
21.009497869018204596614 518.51014828408870017 21.009497869018204596614 96.82772596714755764
22.009497869018190385759 522.20528909481572555 22.009497869018190385759 97.31721584895184662
23.009497869018190385759 525.73528256263523417 23.009497869018190385759 97.62908800300309053
24.009497869018190385759 529.11719449839961271 24.009497869018190385759 97.95039306133266166
25.009497869018190385759 532.34836399304185761 25.009497869018190385759 98.38474378250217001
26.009497869018190385759 535.43431532897614034 26.009497869018190385759 98.65891248095130095
27.009497869018204596614 538.37488545332473677 27.009497869018204596614 98.99729098697069674
28.009497869018190385759 541.18710326238840480 28.009497869018190385759 99.23228078495347404
29.009497869018190385759 543.89624700847139138 29.009497869018190385759 99.13947319779511247
30.009497869018190385759 546.50810618155071552 30.009497869018190385759 99.12482107260659348
31.009497869018190385759 549.01894088279379957 31.009497869018190385759 99.16750074270883886
32.009497869018190385759 551.43021294795084941 32.009497869018190385759 99.27943375593179098
33.009497869018218807469 553.73091723790764718 33.009497869018218807469 99.22897063478610846
34.009497869018190385759 555.93277247490277659 34.009497869018190385759 99.31154620343556871
35.009497869018218807469 558.05231619759285877 35.009497869018218807469 99.34027579989047751
36.009497869018190385759 560.10337149427823533 36.009497869018190385759 99.27651289007233970
37.009497869018218807469 562.09907241079292817 37.009497869018218807469 99.20470402796838982
38.009497869018190385759 564.03211924579625247 38.009497869018190385759 99.26063523439133007
39.009497869018190385759 565.90268753942189051 39.009497869018190385759 99.47916532891474617
40.009497869018190385759 567.71161305295834154 40.009497869018190385759 99.73540899418927097
41.009497869018190385759 569.46221725974430683 41.009497869018190385759 99.92391483025532750
42.009497869018190385759 571.15469141100390971 42.009497869018190385759 100.16939981137865345
43.009497869018190385759 572.79361005805378682 43.009497869018190385759 100.31422143163653971
44.009497869018218807469 574.39207308929314877 44.009497869018218807469 100.39465119095365253
46.009497869018218807469 577.47498337044726213 46.009497869018218807469 100.60480503320272305
48.009497869018218807469 580.41522315735096527 48.009497869018218807469 100.77311786932990856
50.009497869018218807469 583.19796605219062258 50.009497869018218807469 101.13967589358837529
52.009497869018190385759 585.82949903716405515 52.009497869018190385759 101.25375650594864396
54.009497869018190385759 588.31253835678080577 54.009497869018190385759 101.22208904136894603
56.009497869018190385759 590.68162235526096993 56.009497869018190385759 100.93531529238292421
58.009497869018190385759 592.95305102740519487 58.009497869018190385759 99.82802874824237449
60.009497869018190385759 595.12531555374778236 60.009497869018190385759 99.07611390867216983
62.009497869018190385759 597.18494159224485429 62.009497869018190385759 98.34237436684956890
64.009497869018190385759 599.12952347143095722 64.009497869018190385759 97.62894320163862005
66.009497869018218807469 600.96849723385344078 66.009497869018218807469 96.94753978579937836
68.009497869018218807469 602.66301002203874759 68.009497869018218807469 95.99822560525019810
70.009497869018218807469 604.26429442790072244 70.009497869018218807469 95.37545437386224023
72.009497869018218807469 605.79425042534660406 72.009497869018218807469 94.90390036960924647
74.009497869018190385759 607.26664705439577574 74.009497869018190385759 94.27749496345127511
76.009497869018190385759 608.67557999417397241 76.009497869018190385759 93.66307429867069345
78.009497869018190385759 610.01888110704169321 78.009497869018190385759 93.51286637096146137
80.009497869018190385759 611.31045316091297082 80.009497869018190385759 93.06179879158777624
82.009497869018190385759 612.58298333535401525 82.009497869018190385759 92.66119420564436382
84.009497869018190385759 613.81337907029126200 84.009497869018190385759 92.59858508771328900
86.009497869018190385759 615.00532523500032767 86.009497869018190385759 92.54265850422498829
88.009497869018218807469 616.15653627842482365 88.009497869018218807469 92.41363418455476619
91.009497869018190385759 617.81011814660701020 91.009497869018190385759 92.04545209348697199
94.009497869018218807469 619.37699720852117480 94.009497869018218807469 91.45521453958109248
97.009497869018190385759 620.86179484802107709 97.009497869018190385759 89.63700485187389688
99.504748934509109403734 622.00428124420636777 99.504748934509109403734 92.81361061904334520
nan nan nan nan

