Time Pressure difference Time.1 Pressure.1 difference.1
(hr) (psi) (hr) (psi)
0.000200000000006639311 0.82036911484677921 0.000200000000006639311 0.65941172462664288
0.000399999999999067768 1.62845018162183752 0.000399999999999067768 1.67222409849683795
0.000600000000005707079 2.42658489703856484 0.000600000000005707079 2.42187848643423287
0.000799999999998135536 3.21586076852116820 0.000799999999998135536 3.17090516414119117
0.001007140329434719206 4.02473437795111977 0.001007140329434719206 3.94266318843559738
0.001267914553963578328 5.03150535632212570 0.001267914553963578328 4.90148074636240683
0.001596209851982166583 6.28192009080743130 0.001596209851982166583 6.07920529006577315
0.002009509145224797066 7.83103666699415868 0.002009509145224797066 7.51911721401910338
0.002529822128138903281 9.74452964125252841 0.002529822128138903281 9.26992566014518538
0.003184857364431081805 12.09988365820509415 0.003184857364431081805 11.38490942206184364
0.004009497869020606231 14.98730181194487798 0.004009497869020606231 13.92012533283474696
0.005047658755842121536 18.51007308966573106 0.005047658755842121536 16.93126913378067755
0.006354625877790454069 22.78403358560292702 0.006354625877790454069 20.46882957399705205
0.008000000000009777068 27.93570028936425587 0.008000000000009777068 24.57126787807159829
0.010071403294347192059 34.09858871740149056 0.010071403294347192059 29.25593858740232633
0.012679145539706837553 41.40716243029354615 0.012679145539706837553 34.50814264065019898
0.015962098519750611558 49.98810586568857417 0.015962098519750611558 40.26942248563264570
0.020095091452091651263 59.94888000152133856 0.020095091452091651263 46.42724382610242628
0.025298221281360611101 71.36424055199583449 0.025298221281360611101 52.80863586161409273
0.031848573644296607199 84.26186355760917479 0.031848573644296607199 59.18468549427367975
0.040094978690177640601 98.61093395972076792 0.040094978690177640601 65.28503070548207177
0.050476587558421215363 114.31444927988475513 0.050476587558421215363 70.83090089402520562
0.063546258777961384112 131.21302745123148270 0.063546258777961384112 75.57689567034884703
0.079999999999998294697 149.09645259432195985 0.079999999999998294697 79.35546884007031565
0.100714032943542974863 167.72796198977667359 0.100714032943542974863 82.11571436137461433
0.126791455396897845276 186.87363243729942042 0.126791455396897845276 83.93035784898253837
0.159620985197506115583 206.32985100800425471 0.159620985197506115583 84.98021534382463926
0.200950914520760193227 225.94548866972260726 0.200950914520760193227 85.51295518985044453
0.252982212813478213320 245.63031427999348466 0.252982212813478213320 85.78796445435550311
0.318485736442795541734 265.35170869509630620 0.318485736442795541734 86.03161676668653968
0.400949786901833249431 285.12240704341610353 0.400949786901833249431 86.40964596386301366
0.504765875584155310207 304.98441580056669409 0.504765875584155310207 87.01534438051872655
0.635462587779443310865 324.99124871162496220 0.635462587779443310865 87.89256775734212113
0.799999999999997157829 345.20229083935646486 0.799999999999997157829 89.03968480150263076
1.007140329435344483500 365.66676009879137155 1.007140329435344483500 90.43072403819819272
1.267914553968893187630 386.42757643922971056 1.267914553968893187630 92.04707767700718080
1.596209851975103788391 407.51961605972491043 1.596209851975103788391 93.86964826333471024
2.009509145207672986544 428.96965420478727538 2.009509145207672986544 95.88996006690392448
2.529822128134711078928 450.79924614110581160 2.529822128134711078928 98.11190759195653754
3.184857364427998049905 473.02490404308173311 3.184857364427998049905 100.54528533359487596
4.009497869018190385759 495.65735229135952977 4.009497869018190385759 103.18405617553051457
5.009497869018204596614 517.92645712637818178 5.009497869018204596614 105.88399573393441244
6.009497869018204596614 536.38765946416174302 6.009497869018204596614 108.19563363767656483
7.009497869018204596614 552.17007026878457054 7.009497869018204596614 110.21058397340705426
8.009497869018204596614 565.95113115674553228 8.009497869018204596614 111.99234921031892043
9.009497869018204596614 578.18121251743718858 9.009497869018204596614 113.57642410182855031
10.009497869018190385759 589.16644133788372528 10.009497869018190385759 114.97898534398409254
11.009497869018190385759 599.12800331068467585 11.009497869018190385759 116.26873494540507181
12.009497869018190385759 608.23600275145770411 12.009497869018190385759 117.38657026078043089
13.009497869018190385759 616.62598496545103899 13.009497869018190385759 118.45171720059509823
14.009497869018190385759 624.37774722313019993 14.009497869018190385759 119.49328762523343528
15.009497869018190385759 631.59968320276698250 15.009497869018190385759 120.35732390373605938
16.009497869018204596614 638.35433360277386328 16.009497869018204596614 121.13009988028908026
17.009497869018204596614 644.67342554268293497 17.009497869018204596614 121.98771524464531524
18.009497869018204596614 650.60407552665287767 18.009497869018204596614 122.60574090131386527
19.009497869018204596614 656.22000909772589239 19.009497869018204596614 123.20486621579850350
20.009497869018204596614 661.53354567331098224 20.009497869018204596614 123.77890685888104372
21.009497869018204596614 666.56020354349902846 21.009497869018204596614 124.47491904045455158
22.009497869018190385759 671.31041685961452004 22.009497869018190385759 125.10417282907893366
23.009497869018190385759 675.84832835894326308 23.009497869018190385759 125.50509375063057860
24.009497869018190385759 680.19587664845948893 24.009497869018190385759 125.91814095093798187
25.009497869018190385759 684.34964105048675265 25.009497869018190385759 126.47651171006415893
26.009497869018190385759 688.31672319422636974 26.009497869018190385759 126.82896371905236776
27.009497869018204596614 692.09691347035936815 27.009497869018204596614 127.26395934371555541
28.009497869018190385759 695.71210303110660789 28.009497869018190385759 127.56604571192337971
29.009497869018190385759 699.19478782096780378 29.009497869018190385759 127.44673880078310901
30.009497869018190385759 702.55241040134740160 30.009497869018190385759 127.42790305845420562
31.009497869018190385759 705.78016302116259340 31.009497869018190385759 127.48276904262958453
32.009497869018190385759 708.87992491370948756 32.009497869018190385759 127.62666225730248470
33.009497869018218807469 711.83754864563047704 33.009497869018218807469 127.56179041551961006
34.009497869018190385759 714.66809898259452893 34.009497869018190385759 127.66794376281447398
35.009497869018218807469 717.39283542197017596 35.009497869018218807469 127.70487651277909436
36.009497869018190385759 720.02952795453086310 36.009497869018190385759 127.62290739744443613
37.009497869018218807469 722.59506078648450966 37.009497869018218807469 127.53059497135470224
38.009497869018190385759 725.08004993484155420 38.009497869018190385759 127.60249619924984188
39.009497869018190385759 727.48472106165991136 39.009497869018190385759 127.88342312954800661
40.009497869018190385759 729.81014856291164961 40.009497869018190385759 128.21283197573430357
41.009497869018190385759 732.06060229127342609 41.009497869018190385759 128.45516182959178764
42.009497869018190385759 734.23632810587707809 42.009497869018190385759 128.77074006759917779
43.009497869018190385759 736.34320672837657185 43.009497869018190385759 128.95691256392552759
44.009497869018218807469 738.39807845458233260 44.009497869018218807469 129.06030740955927172
46.009497869018218807469 742.36125123203487419 46.009497869018218807469 129.33046641865206539
48.009497869018218807469 746.14101684956619920 48.009497869018218807469 129.54683757103779840
50.009497869018218807469 749.71831553220886235 50.009497869018218807469 130.01805880377312974
52.009497869018190385759 753.10122938240090207 52.009497869018190385759 130.16471282095466222
54.009497869018190385759 756.29325021317436040 54.009497869018190385759 130.12400335421460795
56.009497869018190385759 759.33877809235741552 56.009497869018190385759 129.75534717819252251
58.009497869018190385759 762.25876714763330710 58.009497869018190385759 128.33189742183614612
60.009497869018190385759 765.05127774674281227 60.009497869018190385759 127.36528855184600673
62.009497869018190385759 767.69898822258869586 62.009497869018190385759 126.42204456720325823
64.009497869018190385759 770.19880601301520073 64.009497869018190385759 125.50490760417368108
66.009497869018218807469 772.56286143111651654 66.009497869018218807469 124.62894326469042028
68.009497869018218807469 774.74120797406794736 68.009497869018218807469 123.40857167599992295
70.009497869018218807469 776.79970666119027101 70.009497869018218807469 122.60798075192886358
72.009497869018218807469 778.76651055971558435 72.009497869018218807469 122.00178406687493293
74.009497869018190385759 780.65932017974648716 74.009497869018190385759 121.19652130314472060
76.009497869018190385759 782.47054534134770165 76.009497869018190385759 120.40666528059087170
78.009497869018190385759 784.19739883915565315 78.009497869018190385759 120.21356852597759257
80.009497869018190385759 785.85775309445523362 80.009497869018190385759 119.63370774887575010
82.009497869018190385759 787.49362844790334748 82.009497869018190385759 119.11871864937485554
84.009497869018190385759 789.07533872731244173 84.009497869018190385759 119.03823276779679929
86.009497869018190385759 790.60762094163465008 86.009497869018190385759 118.96633748282152965
88.009497869018218807469 792.08753694707070281 88.009497869018218807469 118.80047288582944987
91.009497869018190385759 794.21326557606448659 91.009497869018190385759 118.32716386695031474
94.009497869018218807469 796.22753517116098010 94.009497869018218807469 117.56839595204544935
97.009497869018190385759 798.13628665863166134 97.009497869018190385759 115.23103336901101557
99.504748934509109403734 799.60498687078211333 99.504748934509109403734 119.31465447796917090
nan nan nan nan

