Time Pressure difference Time.1 Pressure.1 difference.1
(hr) (psi) (hr) (psi)
0.000200000000006639311 0.44440095769086840 0.000200000000006639311 0.35720896439573918
0.000399999999999067768 0.88214537476801036 0.000399999999999067768 0.90585807948723196
0.000600000000005707079 1.31450176834551402 0.000600000000005707079 1.31195226551562971
0.000799999999998135536 1.74205925048533627 0.000799999999998135536 1.71770641554985115
0.001007140329434719206 2.18023299468909881 0.001007140329434719206 2.13577433021787666
0.001267914553963578328 2.72560943422876933 0.001267914553963578328 2.65517399225059014
0.001596209851982166583 3.40296977783437704 0.001596209851982166583 3.29315743853814302
0.002009509145224797066 4.24213946081392113 0.002009509145224797066 4.07317002849879017
0.002529822128138903281 5.27869495139207245 0.002529822128138903281 5.02159792042035757
0.003184857364431081805 6.55461034348999672 0.003184857364431081805 6.16730269195108960
0.004009497869020606231 8.11874942375707498 0.004009497869020606231 7.54065080844012936
0.005047658755842121536 10.02706471892445173 0.005047658755842121536 9.17181312875154298
0.006354625877790454069 12.34230563079394827 0.006354625877790454069 11.08813983958232186
0.008000000000009777068 15.13300749343450491 0.008000000000009777068 13.31046571485486574
0.010071403294347192059 18.47149680269286876 0.010071403294347192059 15.84819185789934970
0.012679145539706837553 22.43061361801831310 0.012679145539706837553 18.69335566161855056
0.015962098519750611558 27.07898398151371211 0.015962098519750611558 21.81429017060904130
0.020095091452091651263 32.47482042293467686 0.020095091452091651263 25.15003459524543672
0.025298221281360611101 38.65861875128216241 0.025298221281360611101 28.60688917528642961
0.031848573644296607199 45.64537131412195237 0.031848573644296607199 32.06084973006382910
0.040094978690177640601 53.41838533094421138 0.040094978690177640601 35.36545884447723154
0.050476587558421215363 61.92511373051044643 0.050476587558421215363 38.36970410239155171
0.063546258777961384112 71.07921788564198096 0.063546258777961384112 40.94065001640003487
0.079999999999998294697 80.76682205863269814 0.079999999999998294697 42.98753538170642940
0.100714032943542974863 90.85966986179860783 0.100714032943542974863 44.48278396058383777
0.126791455396897845276 101.23104309920039157 0.126791455396897845276 45.46579183980058758
0.159620985197506115583 111.77064290785355638 0.159620985197506115583 46.03450861338842515
0.200950914520760193227 122.39660139998038346 0.200950914520760193227 46.32309833902451146
0.252982212813478213320 133.06003959489095223 0.252982212813478213320 46.47207320693227928
0.318485736442795541734 143.74328742377579715 0.318485736442795541734 46.60406174597391527
0.400949786901833249431 154.45324361447364936 0.400949786901833249431 46.80884339147956297
0.504765875584155310207 165.21266343367381069 0.504765875584155310207 47.13695539809004487
0.635462587779443310865 176.05053573423703028 0.635462587779443310865 47.61215479518332216
0.799999999999997157829 186.99902991197302526 0.799999999999997157829 48.23355789749740552
1.007140329435344483500 198.08480773190808577 1.007140329435344483500 48.98709573526515015
1.267914553968893187630 209.33111929723096978 1.267914553968893187630 49.86268830945413555
1.596209851975103788391 220.75685734290624396 1.596209851975103788391 50.84999036576623865
2.009509145207672986544 232.37652624761844322 2.009509145207672986544 51.94441052870473641
2.529822128134711078928 244.20180268347337460 2.529822128134711078928 53.14805848448700942
3.184857364427998049905 256.24163143640311091 3.184857364427998049905 54.46623999478154587
4.009497869018190385759 268.50182199501790592 4.009497869018190385759 55.89568470212155660
5.009497869018204596614 280.56518632273150615 5.009497869018204596614 57.35826502571924124
6.009497869018204596614 290.56577733787258921 6.009497869018204596614 58.61049902583684457
7.009497869018204596614 299.11524409535167024 7.009497869018204596614 59.70201483584562396
8.009497869018204596614 306.58056250601595139 8.009497869018204596614 60.66721228579086045
9.009497869018204596614 313.20570205718456691 9.009497869018204596614 61.52531918681967937
10.009497869018190385759 319.15649435288378299 10.009497869018190385759 62.28509859337429333
11.009497869018190385759 324.55275757232061551 11.009497869018190385759 62.98376697042545658
12.009497869018190385759 329.48663867641784009 12.009497869018190385759 63.58930791011121642
13.009497869018190385759 334.03156371495288113 13.009497869018190385759 64.16630710665403114
14.009497869018190385759 338.23075955102234502 14.009497869018190385759 64.73053470351842975
15.009497869018190385759 342.14294396612200444 15.009497869018190385759 65.19859053679772387
16.009497869018204596614 345.80199579084938932 16.009497869018204596614 65.61720988490030493
17.009497869018204596614 349.22510187689056238 17.009497869018204596614 66.08178745413449917
18.009497869018204596614 352.43778563705114948 18.009497869018204596614 66.41657723196802010
19.009497869018204596614 355.47998482781332541 19.009497869018204596614 66.74112853298031212
20.009497869018204596614 358.35837298282882557 20.009497869018204596614 67.05209125320290298
21.009497869018204596614 361.08135649240796283 21.009497869018204596614 67.42912699779397201
22.009497869018190385759 363.65458762545949867 22.009497869018190385759 67.76999915062667412
23.009497869018190385759 366.11281305072407122 23.009497869018190385759 67.98718143878380715
24.009497869018190385759 368.46791709901475542 24.009497869018190385759 68.21093263573425247
25.009497869018190385759 370.71804676001244161 25.009497869018190385759 68.51340684595434993
26.009497869018190385759 372.86704904692260243 26.009497869018190385759 68.70433311011983335
27.009497869018204596614 374.91481041258663254 27.009497869018204596614 68.93997395604290546
28.009497869018190385759 376.87318948117223272 28.009497869018190385759 69.10361672233840125
29.009497869018190385759 378.75978958341875114 29.009497869018190385759 69.03898714936894976
30.009497869018190385759 380.57864241841838293 30.009497869018190385759 69.02878366684103639
31.009497869018190385759 382.32714358633836582 31.009497869018190385759 69.05850503917319827
32.009497869018190385759 384.00631108390894042 32.009497869018190385759 69.13645322280002858
33.009497869018218807469 385.60848112562297274 33.009497869018218807469 69.10131159192469852
34.009497869018190385759 387.14181442373711661 34.009497869018190385759 69.15881576699196387
35.009497869018218807469 388.61782742958985182 35.009497869018218807469 69.17882255315370799
36.009497869018190385759 390.04614629898708245 36.009497869018190385759 69.13441918313823464
37.009497869018218807469 391.43591735066848969 37.009497869018218807469 69.08441275332681641
38.009497869018190385759 392.78205720088402586 38.009497869018190385759 69.12336226270922168
39.009497869018190385759 394.08468809269811572 39.009497869018190385759 69.27554278073003502
40.009497869018190385759 395.34439203558730469 40.009497869018190385759 69.45398636675456316
41.009497869018190385759 396.56348204522248579 41.009497869018190385759 69.58525851874368584
42.009497869018190385759 397.74209130559569303 42.009497869018190385759 69.75620994616679127
43.009497869018190385759 398.88340545386427038 43.009497869018190385759 69.85706117784508251
44.009497869018218807469 399.99654702213047130 44.009497869018218807469 69.91307104899743763
46.009497869018218807469 402.14343157192644185 46.009497869018218807469 70.05941849211403394
48.009497869018218807469 404.19096289639816177 48.009497869018218807469 70.17662859375816709
50.009497869018218807469 406.12881615262369905 50.009497869018218807469 70.43189316103892850
52.009497869018190385759 407.96136948453670357 52.009497869018190385759 70.51133689496940349
54.009497869018190385759 409.69051443708639226 54.009497869018190385759 70.48928422906701030
56.009497869018190385759 411.34030290631221760 56.009497869018190385759 70.28958002919172543
58.009497869018190385759 412.92208592218526064 58.009497869018190385759 69.51848513604991808
60.009497869018190385759 414.43481276934113566 60.009497869018190385759 68.99486485371356537
62.009497869018190385759 415.86910015273895169 62.009497869018190385759 68.48390152936939046
64.009497869018190385759 417.22327280504038072 64.009497869018190385759 67.98708060165790812
66.009497869018218807469 418.50390182047419785 66.009497869018218807469 67.51256323584738084
68.009497869018218807469 419.68393075178153140 68.009497869018218807469 66.85147752096879969
70.009497869018218807469 420.79903707576033867 70.009497869018218807469 66.41779057818054355
72.009497869018218807469 421.86447154943385840 72.009497869018218807469 66.08940865532218822
74.009497869018190385759 422.88982269033510875 74.009497869018190385759 65.65319093708042431
76.009497869018190385759 423.87097883315215086 76.009497869018190385759 65.22531918214923508
78.009497869018190385759 424.80643012492959087 78.009497869018190385759 65.12071702060494260
80.009497869018190385759 425.70585820895621509 80.009497869018190385759 64.80660148406435894
82.009497869018190385759 426.59202586273357838 82.009497869018190385759 64.52762748946034321
84.009497869018190385759 427.44885183318734789 84.009497869018190385759 64.48402759984166721
86.009497869018190385759 428.27890219853378539 86.009497869018190385759 64.44508130978974236
88.009497869018218807469 429.08058534117697036 88.009497869018218807469 64.35523104066540157
91.009497869018190385759 430.23211069899372205 91.009497869018190385759 64.09883550179519318
94.009497869018218807469 431.32325774598569978 94.009497869018218807469 63.68780444035427024
97.009497869018190385759 432.35724473266577661 97.009497869018190385759 62.42163516170545989
99.504748934509109403734 433.15285218427294467 99.504748934509109403734 64.63376760163355073
nan nan nan nan

