Time Pressure difference Time.1 Pressure.1 difference.1
(hr) (psi) (hr) (psi)
0.000200000000006639311 0.69504639579480898 0.000200000000006639311 0.55867747121634159
0.000399999999999067768 1.37968191267056173 0.000399999999999067768 1.41676875882696951
0.000600000000005707079 2.05589052080754753 0.000600000000005707079 2.05190307946136530
0.000799999999998135536 2.72459359584255711 0.000799999999998135536 2.68650558127741101
0.001007140329434719206 3.40990058353044612 0.001007140329434719206 3.34036690236302425
0.001267914553963578328 4.26287338229100676 0.001267914553963578328 4.15271182832513475
0.001596209851982166583 5.32226998648307958 0.001596209851982166583 5.15052267288989718
0.002009509145224797066 6.63473759826741283 0.002009509145224797066 6.37046815217899898
0.002529822128138903281 8.25591807796570976 0.002529822128138903281 7.85381641357024396
0.003184857364431081805 10.25145921996672982 0.003184857364431081805 9.64570717869159111
0.004009497869020606231 12.69778434921561150 0.004009497869020606231 11.79363382470320865
0.005047658755842121536 15.68240363275197069 0.005047658755842121536 14.34478379877096543
0.006354625877790454069 19.30345760066660077 0.006354625877790454069 17.34193299585880510
0.008000000000009777068 23.66813602405433770 0.008000000000009777068 20.81766715699935233
0.010071403294347192059 28.88955807916528329 0.010071403294347192059 24.78668967756799901
0.012679145539706837553 35.08164615953513277 0.012679145539706837553 29.23654698097298521
0.015962098519750611558 42.35173190429695467 0.015962098519750611558 34.11771171395810853
0.020095091452091651263 50.79086014199245369 0.020095091452091651263 39.33484074915010353
0.025298221281360611101 60.46236661842461046 0.025298221281360611101 44.74138696617153954
0.031848573644296607199 71.38969947644676495 0.031848573644296607199 50.14340690620372953
0.040094978690177640601 83.54675108346192758 0.040094978690177640601 55.31184008514713213
0.050476587558421215363 96.85133743009332363 0.050476587558421215363 60.01050196348066379
0.063546258777961384112 111.16842426270166300 0.063546258777961384112 64.03148045236591202
0.079999999999998294697 126.31990908242555349 0.079999999999998294697 67.23282435394902734
0.100714032943542974863 142.10519794711728991 0.100714032943542974863 69.57140422777769118
0.126791455396897845276 158.32610265793309168 0.126791455396897845276 71.10883584592188811
0.159620985197506115583 174.81011497462068860 0.159620985197506115583 71.99831310034591070
0.200950914520760193227 191.42919291314186125 0.200950914520760193227 72.44966957290846210
0.252982212813478213320 208.10688938495931666 0.252982212813478213320 72.68266737188109516
0.318485736442795541734 224.81556827132280318 0.318485736442795541734 72.88909842644899584
0.400949786901833249431 241.56601923376859986 0.400949786901833249431 73.20937843973518966
0.504765875584155310207 258.39383167826900944 0.504765875584155310207 73.72254805304250169
0.635462587779443310865 275.34434438582894700 0.635462587779443310865 74.46576343662252384
0.799999999999997157829 292.46787053022865166 0.799999999999997157829 75.43764250016755568
1.007140329435344483500 309.80610930983021944 1.007140329435344483500 76.61618127055383809
1.267914553968893187630 327.39542405856349205 1.267914553968893187630 77.98561455448948720
1.596209851975103788391 345.26536315411868827 1.596209851975103788391 79.52976229747855541
2.009509145207672986544 363.43861155239767413 2.009509145207672986544 81.24144355417085706
2.529822128134711078928 381.93343165522833260 2.529822128134711078928 83.12395788946669484
3.184857364427998049905 400.76381317418884009 3.184857364427998049905 85.18560355399043260
4.009497869018190385759 419.93884219257898849 4.009497869018190385759 87.42126568439418577
5.009497869018204596614 438.80603352516260429 5.009497869018204596614 89.70875216452934353
6.009497869018204596614 454.44703208873210087 6.009497869018204596614 91.66725543372999141
7.009497869018204596614 467.81846154430701290 7.009497869018204596614 93.37439426088657513
8.009497869018204596614 479.49427493983569093 8.009497869018204596614 94.88397023547624087
9.009497869018204596614 489.85604236401957223 9.009497869018204596614 96.22605579682559096
10.009497869018190385759 499.16312567621707785 10.009497869018190385759 97.41435642711415710
11.009497869018190385759 507.60292139789663679 11.009497869018190385759 98.50707895374519296
12.009497869018190385759 515.31954805977773049 12.009497869018190385759 99.45414947722402133
13.009497869018190385759 522.42784454861828181 13.009497869018190385759 100.35658050261474727
14.009497869018190385759 528.99541799909434303 14.009497869018190385759 101.23903665132843344
15.009497869018190385759 535.11410345721867543 15.009497869018190385759 101.97107944808993807
16.009497869018204596614 540.83688766546572424 16.009497869018204596614 102.62580321515949322
17.009497869018204596614 546.19065098741884867 17.009497869018204596614 103.35240598114171462
18.009497869018204596614 551.21531223011902512 18.009497869018204596614 103.87601967819857407
19.009497869018204596614 555.97333434108838901 19.009497869018204596614 104.38362032152576830
20.009497869018204596614 560.47515477648357773 20.009497869018204596614 104.86996832365500154
21.009497869018204596614 564.73392119313530202 21.009497869018204596614 105.45965502623435839
22.009497869018190385759 568.75847378156277045 22.009497869018190385759 105.99278160292817574
23.009497869018190385759 572.60315658953686579 23.009497869018190385759 106.33245631334831671
24.009497869018190385759 576.28655679864459671 24.009497869018190385759 106.68240484587006733
25.009497869018190385759 579.80577628699529669 25.009497869018190385759 107.15547675536087979
26.009497869018190385759 583.16683181179178064 26.009497869018190385759 107.45408684940818489
27.009497869018204596614 586.36954578443510400 27.009497869018204596614 107.82263088115801963
28.009497869018190385759 589.43246518112846388 28.009497869018190385759 108.07856938206172970
29.009497869018190385759 592.38312174178486202 29.009497869018190385759 107.97748825031172260
30.009497869018190385759 595.22782107370437643 30.009497869018190385759 107.96152992791648728
31.009497869018190385759 597.96248987622129789 31.009497869018190385759 108.00801437481078437
32.009497869018190385759 600.58872030377597184 32.009497869018190385759 108.12992591246833740
33.009497869018218807469 603.09452613896132789 33.009497869018218807469 108.07496414098797288
34.009497869018190385759 605.49267079630874377 34.009497869018190385759 108.16490109754029447
35.009497869018218807469 607.80116609117681037 35.009497869018218807469 108.19619185957064644
36.009497869018190385759 610.03506740268301201 36.009497869018190385759 108.12674465934236423
37.009497869018218807469 612.20867964121248406 37.009497869018218807469 108.04853423201207363
38.009497869018190385759 614.31405235685565458 38.009497869018190385759 108.10945155373630655
39.009497869018190385759 616.35137673867268404 39.009497869018190385759 108.34746301327535889
40.009497869018190385759 618.32156305380351569 40.009497869018190385759 108.62655010607437589
41.009497869018190385759 620.22822887592315055 41.009497869018190385759 108.83186072597575844
42.009497869018190385759 622.07158250578322622 42.009497869018190385759 109.09923002712170614
43.009497869018190385759 623.85660630353913803 43.009497869018190385759 109.25696210189870783
44.009497869018218807469 625.59756797709826515 44.009497869018218807469 109.34456195603867457
46.009497869018218807469 628.95531134533212025 46.009497869018218807469 109.57345044313937876
48.009497869018218807469 632.15766553184357690 48.009497869018218807469 109.75676791194459270
50.009497869018218807469 635.18848240568047459 50.009497869018218807469 110.15600358952841020
52.009497869018190385759 638.05460941644616923 52.009497869018190385759 110.28025417895956650
54.009497869018190385759 640.75900495447831418 54.009497869018190385759 110.24576364583207067
56.009497869018190385759 643.33928636367568288 56.009497869018190385759 109.93342479519226629
58.009497869018190385759 645.81320673915070074 58.009497869018190385759 108.72742665990739397
60.009497869018190385759 648.17912275427568147 60.009497869018190385759 107.90848065246852627
62.009497869018190385759 650.42235886597211447 62.009497869018190385759 107.10933022125863090
64.009497869018190385759 652.54029494369024178 64.009497869018190385759 106.33229860333509009
66.009497869018218807469 654.54320822756903908 66.009497869018218807469 105.59014992174274994
68.009497869018218807469 656.38878223330584660 68.009497869018218807469 104.55620695765621520
70.009497869018218807469 658.13281679938029356 70.009497869018218807469 103.87791736067941883
72.009497869018218807469 659.79916422295502798 72.009497869018218807469 103.36432559635734663
74.009497869018190385759 661.40282101660932312 74.009497869018190385759 102.68207784778995517
76.009497869018190385759 662.93735650528242331 76.009497869018190385759 102.01288324777699756
78.009497869018190385759 664.40040926774690888 78.009497869018190385759 101.84928469085338065
80.009497869018190385759 665.80712146595567447 80.009497869018190385759 101.35800566060528638
82.009497869018190385759 667.19309425284677673 82.009497869018190385759 100.92168826273668003
84.009497869018190385759 668.53317642927083853 84.009497869018190385759 100.85349771181175527
86.009497869018190385759 669.83138136060108536 86.009497869018190385759 100.79258542514426722
88.009497869018218807469 671.08521974510608743 88.009497869018218807469 100.65205893744143850
91.009497869018190385759 672.88621395037421280 91.009497869018190385759 100.25105441189860755
94.009497869018218807469 674.59277602943598140 94.009497869018218807469 99.60819878148171824
97.009497869018190385759 676.20993934997636643 97.009497869018190385759 97.62790063324250411
99.504748934509109403734 677.45427530861240939 99.504748934509109403734 101.08769218585729277
nan nan nan nan

