Time Pressure difference Time.1 Pressure.1 difference.1
(hr) (psi) (hr) (psi)
0.000200000000006639311 0.84592835360079954 0.000200000000006639311 0.67995621051953326
0.000399999999999067768 1.67918581542111078 0.000399999999999067768 1.72432354277161393
0.000600000000005707079 2.50218703955936395 0.000600000000005707079 2.49733399706685733
0.000799999999998135536 3.31605341558062161 0.000799999999998135536 3.26969718433051471
0.001007140329434719206 4.15012811233954615 0.001007140329434719206 4.06549993098987272
0.001267914553963578328 5.18826582471005171 0.001267914553963578328 5.05419019675158765
0.001596209851982166583 6.47763820418937009 0.001596209851982166583 6.26860766593716967
0.002009509145224797066 8.07501871390553383 0.002009509145224797066 7.75338116742070316
0.002529822128138903281 10.04812805218602279 0.002529822128138903281 9.55873741438086633
0.003184857364431081805 12.47686495810897434 0.003184857364431081805 11.73961514274919615
0.004009497869020606231 15.45424287342255809 0.004009497869020606231 14.35381767988788937
0.005047658755842121536 19.08676883416788073 0.005047658755842121536 17.45877601131555323
0.006354625877790454069 23.49388789832020308 0.006354625877790454069 21.10655190243314294
0.008000000000009777068 28.80605879084193433 0.008000000000009777068 25.33680486723764602
0.010071403294347192059 35.16095680809439727 0.010071403294347192059 30.16743014138169343
0.012679145539706837553 42.69723482761927613 0.012679145539706837553 35.58327070282120985
0.015962098519750611558 51.54552423939345118 0.015962098519750611558 41.52404770880310991
0.020095091452091651263 61.81663405181999593 0.020095091452091651263 47.87372076942823185
0.025298221281360611101 73.58764905160575154 0.025298221281360611101 54.45393004423724648
0.031848573644296607199 86.88710754784624157 0.031848573644296607199 61.02863046947215508
0.040094978690177640601 101.68323441474724689 0.040094978690177640601 67.31903668726091894
0.050476587558421215363 117.87600498609222655 0.050476587558421215363 73.03769278117574970
0.063546258777961384112 135.30107152257639314 0.063546258777961384112 77.93155272138484690
0.079999999999998294697 153.74166870530083884 0.079999999999998294697 81.82785028131873162
0.100714032943542974863 172.95365728795061955 0.100714032943542974863 84.67409340177924548
0.126791455396897845276 192.69582601072283978 0.126791455396897845276 86.54527352065936441
0.159620985197506115583 212.75821822533904992 0.159620985197506115583 87.62784014348149242
0.200950914520760193227 232.98499635691999288 0.200950914520760193227 88.17717791435835295
0.252982212813478213320 253.28311804148074771 0.252982212813478213320 88.46075530670226783
0.318485736442795541734 273.61894786047116668 0.318485736442795541734 88.71199879660339604
0.400949786901833249431 294.00561771512053610 0.400949786901833249431 89.10180578786275873
0.504765875584155310207 314.48644282550895923 0.504765875584155310207 89.72637521046453912
0.635462587779443310865 335.11660419912283260 0.635462587779443310865 90.63092916485729234
0.799999999999997157829 355.95733708661282435 0.799999999999997157829 91.81378553401175679
1.007140329435344483500 377.05939282548735036 1.007140329435344483500 93.24816368159933688
1.267914553968893187630 398.46702856949713123 1.267914553968893187630 94.91487607699433227
1.596209851975103788391 420.21620711284197114 1.596209851975103788391 96.79423026952906639
2.009509145207672986544 442.33453790362995051 2.009509145207672986544 98.87748646094816252
2.529822128134711078928 464.84424777967296905 2.529822128134711078928 101.16866049180643472
3.184857364427998049905 487.76236336502705626 3.184857364427998049905 103.67785201232999270
4.009497869018190385759 511.09994316676875314 4.009497869018190385759 106.39883581517015898
5.009497869018204596614 534.06285930820502017 5.009497869018204596614 109.18289409348410857
6.009497869018204596614 553.09923478415078080 6.009497869018204596614 111.56655287663934928
7.009497869018204596614 569.37335889022415358 7.009497869018204596614 113.64428055951319152
8.009497869018204596614 583.58377946414168491 8.009497869018204596614 115.48155808018816515
9.009497869018204596614 596.19489853556842718 9.009497869018204596614 117.11498605876994361
10.009497869018190385759 607.52238071624992699 10.009497869018190385759 118.56124518887203578
11.009497869018190385759 617.79430291131905051 11.009497869018190385759 119.89117794370410763
12.009497869018190385759 627.18606916883982194 12.009497869018190385759 121.04384028900575743
13.009497869018190385759 635.83744781362088361 13.009497869018190385759 122.14217271136742227
14.009497869018190385759 643.83072226224282986 14.009497869018190385759 123.21619407385881573
15.009497869018190385759 651.27766328245115801 15.009497869018190385759 124.10715007561124423
16.009497869018204596614 658.24276007683022272 16.009497869018204596614 124.90400248962471608
17.009497869018204596614 664.75872824803286676 17.009497869018204596614 125.78833752864935036
18.009497869018204596614 670.87415225160384580 18.009497869018204596614 126.42561825602817294
19.009497869018204596614 676.66505460730331833 19.009497869018204596614 127.04340978634098747
20.009497869018204596614 682.14413855358498040 20.009497869018204596614 127.63533511277583443
21.009497869018204596614 687.32740586495469870 21.009497869018204596614 128.35303209598632179
22.009497869018190385759 692.22561577684871281 22.009497869018190385759 129.00189077651756975
23.009497869018190385759 696.90490944349335223 23.009497869018190385759 129.41530270165526417
24.009497869018190385759 701.38790898625074988 24.009497869018190385759 129.84121870920841957
25.009497869018190385759 705.67108715356721405 25.009497869018190385759 130.41698594424704538
26.009497869018190385759 709.76176683143341961 26.009497869018190385759 130.78041887009823085
27.009497869018204596614 713.65973187998861249 27.009497869018204596614 131.22896712226349791
28.009497869018190385759 717.38755548735207412 28.009497869018190385759 131.54046522656622642
29.009497869018190385759 720.97874603448542530 29.009497869018190385759 131.41744121568189030
30.009497869018190385759 724.44097796159041991 30.009497869018190385759 131.39801863112967339
31.009497869018190385759 727.76929372835468257 31.009497869018190385759 131.45459400777681935
32.009497869018190385759 730.96563111705120264 32.009497869018190385759 131.60297032763048719
33.009497869018218807469 734.01540192001698415 33.009497869018218807469 131.53607735308858651
34.009497869018190385759 736.93414025742913509 34.009497869018190385759 131.64553799060064421
35.009497869018218807469 739.74376798285572931 35.009497869018218807469 131.68362140915712644
36.009497869018190385759 742.46260872497350647 36.009497869018190385759 131.59909848218893558
37.009497869018218807469 745.10807273058594546 37.009497869018218807469 131.50390999056276087
38.009497869018190385759 747.67048365140442456 38.009497869018190385759 131.57805135721642387
39.009497869018190385759 750.15007418016386964 39.009497869018190385759 131.86773078484046096
40.009497869018190385759 752.54795218647973343 40.009497869018190385759 132.20740262020441946
41.009497869018190385759 754.86852055361453040 41.009497869018190385759 132.45728244940821128
42.009497869018190385759 757.11203280063307375 42.009497869018190385759 132.78269277322286257
43.009497869018190385759 759.28455286765256460 43.009497869018190385759 132.97466561868100143
44.009497869018218807469 761.40344572301648896 44.009497869018218807469 133.08128181126414802
46.009497869018218807469 765.49009423524410067 46.009497869018218807469 133.35985783471056720
48.009497869018218807469 769.38762139462801315 48.009497869018218807469 133.58297019887919532
50.009497869018218807469 773.07637360406658900 50.009497869018218807469 134.06887269615202740
52.009497869018190385759 776.56468477019427610 52.009497869018190385759 134.22009583346681438
54.009497869018190385759 779.85615549619774356 54.009497869018190385759 134.17811803158210182
56.009497869018190385759 782.99656916860169531 56.009497869018190385759 133.79797608525177566
58.009497869018190385759 786.00753275725810454 58.009497869018190385759 132.33017764301897046
60.009497869018190385759 788.88704619915392868 60.009497869018190385759 131.33345332079798595
62.009497869018190385759 791.61724815716183912 62.009497869018190385759 130.36082183512615984
64.009497869018190385759 794.19494971794347293 64.009497869018190385759 129.41511075566049271
66.009497869018218807469 796.63265912394524548 66.009497869018218807469 128.51185506489684940
68.009497869018218807469 798.87887375014440750 68.009497869018218807469 127.25346184882003797
70.009497869018218807469 801.00150656721723408 70.009497869018218807469 126.42792789093367389
72.009497869018218807469 803.02958777313381233 72.009497869018218807469 125.80284467599364007
74.009497869018190385759 804.98136935117588564 74.009497869018190385759 124.97249332364471286
76.009497869018190385759 806.84902464343997508 76.009497869018190385759 124.15802872149369307
78.009497869018190385759 808.62967960700871117 78.009497869018190385759 123.95891588708845177
80.009497869018190385759 810.34176349237304748 80.009497869018190385759 123.36098909582565852
82.009497869018190385759 812.02860581663196626 82.009497869018190385759 122.82995510980762788
84.009497869018190385759 813.65959551178150377 84.009497869018190385759 122.74696162789901166
86.009497869018190385759 815.23961717197710186 86.009497869018190385759 122.67282638932148586
88.009497869018218807469 816.76564111326081274 88.009497869018218807469 122.50179415161910867
91.009497869018190385759 818.95759847340923443 91.009497869018190385759 122.01373882159901996
94.009497869018218807469 821.03462420664448018 94.009497869018218807469 121.23133090130515654
97.009497869018190385759 823.00284433342312695 97.009497869018190385759 118.82114596643748428
99.504748934509109403734 824.51730304464570054 99.504748934509109403734 123.03199547175515249
nan nan nan nan

