Time Pressure difference Time.1 Pressure.1 difference.1
(hr) (psi) (hr) (psi)
0.000200000000006639311 0.73874444914845661 0.000200000000006639311 0.59380191483967038
0.000399999999999067768 1.46642348013383539 0.000399999999999067768 1.50584200226448939
0.000600000000005707079 2.18514579673020481 0.000600000000005707079 2.18090766215585186
0.000799999999998135536 2.89589070210549426 0.000799999999998135536 2.85540806740754505
0.001007140329434719206 3.62428341974291746 0.001007140329434719206 3.55037810737517168
0.001267914553963578328 4.53088321534133076 0.001267914553963578328 4.41379572737760473
0.001596209851982166583 5.65688482549091187 0.001596209851982166583 5.47433963808938007
0.002009509145224797066 7.05186819459976455 0.002009509145224797066 6.77098394347850885
0.002529822128138903281 8.77497342569071748 0.002529822128138903281 8.34759134823124427
0.003184857364431081805 10.89597563593142304 0.003184857364431081805 10.25213953986674653
0.004009497869020606231 13.49610293819357842 0.004009497869020606231 12.53510783740696688
0.005047658755842121536 16.66836732496532036 0.005047658755842121536 15.24665039584671966
0.006354625877790454069 20.51707949015097654 0.006354625877790454069 18.43223246060438214
0.008000000000009777068 25.15616830077424382 0.008000000000009777068 22.12648846105744127
0.010071403294347192059 30.70586481486606445 0.010071403294347192059 26.34504620533918029
0.012679145539706837553 37.28725380657589739 0.012679145539706837553 31.07466915178148170
0.015962098519750611558 45.01441493030851149 0.015962098519750611558 36.26271612776567821
0.020095091452091651263 53.98411706669660504 0.020095091452091651263 41.80784971677163497
0.025298221281360611101 64.26367792420930414 0.025298221281360611101 47.55430927839822175
0.031848573644296607199 75.87801984685208367 0.031848573644296607199 53.29595799283337954
0.040094978690177640601 88.79939379689429302 0.040094978690177640601 58.78933418302708702
0.050476587558421215363 102.94044879877060339 0.050476587558421215363 63.78340422215737249
0.063546258777961384112 118.15766090080745698 0.063546258777961384112 68.05718444284680402
0.079999999999998294697 134.26173017538943100 0.079999999999998294697 71.45979907608342785
0.100714032943542974863 151.03945119883402981 0.100714032943542974863 73.94540710330819877
0.126791455396897845276 168.28017554152793878 0.126791455396897845276 75.57949812330487305
0.159620985197506115583 185.80054924941890704 0.159620985197506115583 76.52489743524309063
0.200950914520760193227 203.46448024931802934 0.200950914520760193227 77.00463100513165671
0.252982212813478213320 221.19071517072779898 0.252982212813478213320 77.25227753879651971
0.318485736442795541734 238.94988039277012604 0.318485736442795541734 77.47168705824235246
0.400949786901833249431 256.75344393055360115 0.400949786901833249431 77.81210330012187626
0.504765875584155310207 274.63923272091227545 0.504765875584155310207 78.35753624617566970
0.635462587779443310865 292.65543602574467741 0.635462587779443310865 79.14747810108396209
0.799999999999997157829 310.85553024327981575 0.799999999999997157829 80.18045988155412829
1.007140329435344483500 329.28383622966532585 1.007140329435344483500 81.43309420927194253
1.267914553968893187630 347.97900350708522410 1.267914553968893187630 82.88862472220947097
1.596209851975103788391 366.97243818041556551 1.596209851975103788391 84.52985411452050357
2.009509145207672986544 386.28825142461249698 2.009509145207672986544 86.34914996979489388
2.529822128134711078928 405.94585381148823444 2.529822128134711078928 88.35001929888748862
3.184857364427998049905 425.96011459557917078 3.184857364427998049905 90.54128206924724509
4.009497869018190385759 446.34069110860116325 4.009497869018190385759 92.91750184248778055
5.009497869018204596614 466.39407596506015352 5.009497869018204596614 95.34880419859821643
6.009497869018204596614 483.01843505516484356 6.009497869018204596614 97.43043993905345701
7.009497869018204596614 497.23053563902612950 7.009497869018204596614 99.24490777906805761
8.009497869018204596614 509.64041559441614027 8.009497869018204596614 100.84939185170426867
9.009497869018204596614 520.65363458856654688 9.009497869018204596614 102.27585527159637024
10.009497869018190385759 530.54586074245617056 10.009497869018190385759 103.53886519418064438
11.009497869018190385759 539.51627232801342871 11.009497869018190385759 104.70028795083712225
12.009497869018190385759 547.71804870885034688 12.009497869018190385759 105.70690146096409023
13.009497869018190385759 555.27324877290868699 13.009497869018190385759 106.66606895651580089
14.009497869018190385759 562.25373016273840676 14.009497869018190385759 107.60400574091373471
15.009497869018190385759 568.75710165796908768 15.009497869018190385759 108.38207258065074257
16.009497869018204596614 574.83968131465871920 16.009497869018204596614 109.07795928918493189
17.009497869018204596614 580.53003948366222176 17.009497869018204596614 109.85024407960021620
18.009497869018204596614 585.87060469535776974 18.009497869018204596614 110.40677773625850477
19.009497869018204596614 590.92776698649493028 19.009497869018204596614 110.94629158729192397
20.009497869018204596614 595.71262002340370145 20.009497869018204596614 111.46321662870091984
21.009497869018204596614 600.23913806530163129 21.009497869018204596614 112.08997734698218096
22.009497869018190385759 604.51671709167294466 22.009497869018190385759 112.65662196467812350
23.009497869018190385759 608.60311779860614934 23.009497869018190385759 113.01765226187437463
24.009497869018190385759 612.51809595680379061 24.009497869018190385759 113.38960230355822034
25.009497869018190385759 616.25857123742321164 25.009497869018190385759 113.89241657509293759
26.009497869018190385759 619.83093867540389965 26.009497869018190385759 114.20980049474464124
27.009497869018204596614 623.23500951702703787 27.009497869018204596614 114.60151514770768699
28.009497869018190385759 626.49049679987081163 28.009497869018190385759 114.87354468128981466
29.009497869018190385759 629.62666320360517602 29.009497869018190385759 114.76610850804188146
30.009497869018190385759 632.65021077347466871 30.009497869018190385759 114.74914687474871755
31.009497869018190385759 635.55681011754950305 31.009497869018190385759 114.79855383135286218
32.009497869018190385759 638.34815349013433661 32.009497869018190385759 114.92813003270656225
33.009497869018218807469 641.01150109194475135 33.009497869018218807469 114.86971277618651754
34.009497869018190385759 643.56041878231621922 34.009497869018190385759 114.96530413214247801
35.009497869018218807469 646.01405079204550930 35.009497869018218807469 114.99856216628148786
36.009497869018190385759 648.38839904247208779 36.009497869018190385759 114.92474877197005867
37.009497869018218807469 650.69866780370864490 37.009497869018218807469 114.84162120033549570
38.009497869018190385759 652.93640677549547036 38.009497869018190385759 114.90636843671141776
39.009497869018190385759 655.10181916708268091 39.009497869018190385759 115.15934384329148088
40.009497869018190385759 657.19587247474260039 40.009497869018190385759 115.45597733694262388
41.009497869018190385759 659.22241171153871164 41.009497869018190385759 115.67419597921029606
42.009497869018190385759 661.18165827423706560 42.009497869018190385759 115.95837497544609107
43.009497869018190385759 663.07890776746273787 43.009497869018190385759 116.12602377615806404
44.009497869018218807469 664.92932491990529797 44.009497869018218807469 116.21913109443730150
46.009497869018218807469 668.49817196372180206 46.009497869018218807469 116.46240996091682973
48.009497869018218807469 671.90186039920740768 48.009497869018218807469 116.65725272728630557
50.009497869018218807469 675.12322685111473675 50.009497869018218807469 117.08158863133743921
52.009497869018190385759 678.16954927299616429 52.009497869018190385759 117.21365094228679027
54.009497869018190385759 681.04397205126053905 54.009497869018190385759 117.17699196520229066
56.009497869018190385759 683.78647755854501611 56.009497869018190385759 116.84501615242261607
58.009497869018190385759 686.41593503947683530 58.009497869018190385759 115.56319607031676355
60.009497869018190385759 688.93059785033324260 60.009497869018190385759 114.69276235422515242
62.009497869018190385759 691.31486778637133739 62.009497869018190385759 113.84336877609457872
64.009497869018190385759 693.56595998759962640 64.009497869018190385759 113.01748463652222654
66.009497869018218807469 695.69479783143754048 66.009497869018218807469 112.22867654790213976
68.009497869018218807469 697.65640436659782608 68.009497869018218807469 111.12972886602607048
70.009497869018218807469 699.51008760645868279 70.009497869018218807469 110.40879472736507694
72.009497869018218807469 701.28119945879916486 72.009497869018218807469 109.86291308936677069
74.009497869018190385759 702.98567927744022654 74.009497869018190385759 109.13777194735446585
76.009497869018190385759 704.61669208627893113 76.009497869018190385759 108.42650461448182853
78.009497869018190385759 706.17172799988293264 78.009497869018190385759 108.25262050178484685
80.009497869018190385759 707.66688117852459072 80.009497869018190385759 107.73045441506799591
82.009497869018190385759 709.13999104454410372 82.009497869018190385759 107.26670543702499572
84.009497869018190385759 710.56432512529852374 84.009497869018190385759 107.19422769843812659
86.009497869018190385759 711.94414910925104323 86.009497869018190385759 107.12948581367646739
88.009497869018218807469 713.27681719052793596 88.009497869018218807469 106.98012432733987964
91.009497869018190385759 715.19104116196365339 91.009497869018190385759 106.55390836662057552
94.009497869018218807469 717.00489599332684065 94.009497869018218807469 105.87063595279671802
97.009497869018190385759 718.72373150365228867 97.009497869018190385759 103.76583507400388839
99.504748934509109403734 720.04629973489534223 99.504748934509109403734 107.44314614297523747
nan nan nan nan

