Time Pressure difference Time.1 Pressure.1 difference.1
(hr) (psi) (hr) (psi)
0.000200000000006639311 0.35865383412899399 0.000200000000006639311 0.28828552785184891
0.000399999999999067768 0.71193550653819027 0.000399999999999067768 0.73107284708153220
0.000600000000005707079 1.06086877408218649 0.000600000000005707079 1.05881119758682551
0.000799999999998135536 1.40592907970523417 0.000799999999998135536 1.38627512201147551
0.001007140329434719206 1.75955724061179608 0.001007140329434719206 1.72367687132611547
0.001267914553963578328 2.19970334673379364 0.001267914553963578328 2.14285841675140398
0.001596209851982166583 2.74636707487561038 0.001596209851982166583 2.65774301625991116
0.002009509145224797066 3.42361904536930561 0.002009509145224797066 3.28725224934503490
0.002529822128138903281 4.26017125019582821 0.002529822128138903281 4.05268106750065904
0.003184857364431081805 5.28989888574795675 0.003184857364431081805 4.97732220964512795
0.004009497869020606231 6.55223747557389125 0.004009497869020606231 6.08568293445539155
0.005047658755842121536 8.09234351156240450 0.005047658755842121536 7.40211263637647665
0.006354625877790454069 9.96085890425856668 0.006354625877790454069 8.94868428611931321
0.008000000000009777068 12.21309510138035215 0.008000000000009777068 10.74221258991069838
0.010071403294347192059 14.90742320811019894 0.010071403294347192059 12.79028470906533776
0.012679145539706837553 18.10262880118361295 0.012679145539706837553 15.08647442078676981
0.015962098519750611558 21.85409653424575893 0.015962098519750611558 17.60522490577909593
0.020095091452091651263 26.20880683483596485 0.020095091452091651263 20.29733775312015709
0.025298221281360611101 31.19944184936500875 0.025298221281360611101 23.08719256261520769
0.031848573644296607199 36.83810115332661894 0.031848573644296607199 25.87471174875281221
0.040094978690177640601 43.11131283666184544 0.040094978690177640601 28.54169684109015748
0.050476587558421215363 49.97666878065313512 0.050476587558421215363 30.96627325517685492
0.063546258777961384112 57.36448938822682919 0.063546258777961384112 33.04115539356960340
0.079999999999998294697 65.18287123470356903 0.079999999999998294697 34.69309441751817502
0.100714032943542974863 73.32830499050537298 0.100714032943542974863 35.89983492180699187
0.126791455396897845276 81.69852272384447645 0.126791455396897845276 36.69317152191698739
0.159620985197506115583 90.20450772711743070 0.159620985197506115583 37.15215444679771650
0.200950914520760193227 98.78018851389882116 0.200950914520760193227 37.38506081164315020
0.252982212813478213320 107.38611729828861030 0.252982212813478213320 37.50529099260768362
0.318485736442795541734 116.00803344961497032 0.318485736442795541734 37.61181235528506761
0.400949786901833249431 124.65150458682010992 0.400949786901833249431 37.77708140128684988
0.504765875584155310207 133.33489534999648640 0.504765875584155310207 38.04188422665895075
0.635462587779443310865 142.08160119553451750 0.635462587779443310865 38.42539394416464660
0.799999999999997157829 150.91758443730660133 0.799999999999997157829 38.92689737553129703
1.007140329435344483500 159.86436245525047184 1.007140329435344483500 39.53504015740322330
1.267914553968893187630 168.94069924730143839 1.267914553968893187630 40.24168722562625078
1.596209851975103788391 178.16184219696515356 1.596209851975103788391 41.03848944175940261
2.009509145207672986544 187.53949706440448608 2.009509145207672986544 41.92174133578211581
2.529822128134711078928 197.08308750892564376 2.529822128134711078928 42.89314553015185538
3.184857364427998049905 206.79983242084480821 3.184857364427998049905 43.95698404031534778
4.009497869018190385759 216.69442034848381695 4.009497869018190385759 45.11061752397565527
5.009497869018204596614 226.43015964821557873 5.009497869018204596614 46.29099310981051474
6.009497869018204596614 234.50113755468379395 6.009497869018204596614 47.30160867576814354
7.009497869018204596614 241.40098549439326803 7.009497869018204596614 48.18251661148951115
8.009497869018204596614 247.42587141023545882 8.009497869018204596614 48.96147930300374895
9.009497869018204596614 252.77269089958306836 9.009497869018204596614 49.65401455708082068
10.009497869018190385759 257.57527837384867553 10.009497869018190385759 50.26719459762118447
11.009497869018190385759 261.93033310567625449 11.009497869018190385759 50.83105497613185975
12.009497869018190385759 265.91222230842629415 12.009497869018190385759 51.31975684767787982
13.009497869018190385759 269.58020448238312383 13.009497869018190385759 51.78542410277273689
14.009497869018190385759 272.96916587141873833 14.009497869018190385759 52.24078403716235641
15.009497869018190385759 276.12649466653630270 15.009497869018190385759 52.61852854082933106
16.009497869018204596614 279.07953278111222062 16.009497869018204596614 52.95637532454848895
17.009497869018204596614 281.84215086539404638 17.009497869018204596614 53.33131269489518900
18.009497869018204596614 284.43494759205424316 18.009497869018204596614 53.60150481615229268
19.009497869018204596614 286.89015473116660360 19.009497869018204596614 53.86343397374105990
20.009497869018204596614 289.21315815868371146 20.009497869018204596614 54.11439646594297415
21.009497869018204596614 291.41074225268545206 21.009497869018204596614 54.41868319859068492
22.009497869018190385759 293.48746867731887278 22.009497869018190385759 54.69378410115511002
23.009497869018190385759 295.47137973481437712 23.009497869018190385759 54.86906108695909978
24.009497869018190385759 297.37206667545717664 24.009497869018190385759 55.04963951121408883
25.009497869018190385759 299.18803402709716011 25.009497869018190385759 55.29375135063106228
26.009497869018190385759 300.92238652209897509 26.009497869018190385759 55.44783840983696876
27.009497869018204596614 302.57503252221744106 27.009497869018204596614 55.63801237639826525
28.009497869018190385759 304.15554253118727956 28.009497869018190385759 55.77008028611726331
29.009497869018190385759 305.67812331871454035 29.009497869018190385759 55.71792098325693843
30.009497869018190385759 307.14602866792580471 30.009497869018190385759 55.70968626173626603
31.009497869018190385759 308.55715669769426768 31.009497869018190385759 55.73367289803403679
32.009497869018190385759 309.91232898237552718 32.009497869018190385759 55.79658098686088152
33.009497869018218807469 311.20536046316510692 33.009497869018218807469 55.76821993040304903
34.009497869018190385759 312.44283724364686350 34.009497869018190385759 55.81462868022541812
35.009497869018218807469 313.63405367694173265 35.009497869018218807469 55.83077515885317155
36.009497869018190385759 314.78677855298587929 36.009497869018190385759 55.79493941496313880
37.009497869018218807469 315.90839340916659239 37.009497869018218807469 55.75458172114502275
38.009497869018190385759 316.99479570015682839 38.009497869018190385759 55.78601592630521111
39.009497869018190385759 318.04608408223322158 39.009497869018190385759 55.90883322749083817
40.009497869018190385759 319.06272826619755278 40.009497869018190385759 56.05284614014513522
41.009497869018190385759 320.04659497156171710 41.009497869018190385759 56.15878934258535082
42.009497869018190385759 320.99779168447889788 42.009497869018190385759 56.29675570794536554
43.009497869018190385759 321.91888937371237489 43.009497869018190385759 56.37814770382674112
44.009497869018218807469 322.81725037964145031 44.009497869018218807469 56.42335047553596894
46.009497869018218807469 324.54989375470870527 46.009497869018218807469 56.54146019307903970
48.009497869018218807469 326.20235410006159782 48.009497869018218807469 56.63605461648386807
50.009497869018218807469 327.76629875026213767 50.009497869018218807469 56.84206590918726221
52.009497869018190385759 329.24526108677827096 52.009497869018190385759 56.90618098202539699
54.009497869018190385759 330.64076768113648086 54.009497869018190385759 56.88838337596316563
56.009497869018190385759 331.97222961826679466 56.009497869018190385759 56.72721208292838924
58.009497869018190385759 333.24880774796025662 58.009497869018190385759 56.10489987788816535
60.009497869018190385759 334.46965409028456406 60.009497869018190385759 55.68231208045529002
62.009497869018190385759 335.62719585610659578 62.009497869018190385759 55.26993908214412698
64.009497869018190385759 336.72008102076546265 64.009497869018190385759 54.86897970634728239
66.009497869018218807469 337.75361278646801111 66.009497869018218807469 54.48602042225159181
68.009497869018218807469 338.70595524494427764 68.009497869018218807469 53.95249113473364133
70.009497869018218807469 339.60590190715350900 70.009497869018218807469 53.60248404732568162
72.009497869018218807469 340.46576089796610631 72.009497869018218807469 53.33746338602069414
74.009497869018190385759 341.29327063134650189 74.009497869018190385759 52.98541383604820254
76.009497869018190385759 342.08511278742332706 76.009497869018190385759 52.64009989653972355
78.009497869018190385759 342.84006883922887710 78.009497869018190385759 52.55568071236206151
80.009497869018190385759 343.56595235787744969 80.009497869018190385759 52.30217373945824022
82.009497869018190385759 344.28113404506325423 82.009497869018190385759 52.07702775123423322
84.009497869018190385759 344.97263552400090703 84.009497869018190385759 52.04184045627297195
86.009497869018190385759 345.64252774835290438 86.009497869018190385759 52.01040884927373043
88.009497869018218807469 346.28952620299071441 88.009497869018218807469 51.93789518124201976
91.009497869018190385759 347.21886484983724586 91.009497869018190385759 51.73097113781244616
94.009497869018218807469 348.09947517533169048 94.009497869018218807469 51.39924848154750947
97.009497869018190385759 348.93395446884903777 97.009497869018190385759 50.37738644775858177
99.504748934509109403734 349.57604953647256707 99.504748934509109403734 52.16268813860963149
nan nan nan nan

