Time Pressure difference Time.1 Pressure.1 difference.1
(hr) (psi) (hr) (psi)
0.000200000000006639311 0.48974799418993664 0.000200000000006639311 0.39365885872183498
0.000399999999999067768 0.97216020892801158 0.000399999999999067768 0.99829257739409227
0.000600000000005707079 1.44863460185015813 0.000600000000005707079 1.44582494567028563
0.000799999999998135536 1.91982039849404384 0.000799999999998135536 1.89298258040187672
0.001007140329434719206 2.40270574924921121 0.001007140329434719206 2.35371048636255775
0.001267914553963578328 3.00373284588476652 0.001267914553963578328 2.92611011390881393
0.001596209851982166583 3.75021159189910946 0.001596209851982166583 3.62919391185836160
0.002009509145224797066 4.67501083436636211 0.002009509145224797066 4.48879962324356541
0.002529822128138903281 5.81733729337085581 0.002529822128138903281 5.53400587148365908
0.003184857364431081805 7.22344813364203642 0.003184857364431081805 6.79661929317058799
0.004009497869020606231 8.94719324250779735 0.004009497869020606231 8.31010497256667335
0.005047658755842121536 11.05023458820245708 0.005047658755842121536 10.10771242760374200
0.006354625877790454069 13.60172457271169755 0.006354625877790454069 12.21958268035602835
0.008000000000009777068 16.67719193154006874 0.008000000000009777068 14.66867650208495455
0.010071403294347192059 20.35634341521254598 0.010071403294347192059 17.46535429237887271
0.012679145539706837553 24.71945174230589615 0.012679145539706837553 20.60084093321227883
0.015962098519750611558 29.84214561228041873 0.015962098519750611558 24.04023814720180141
0.020095091452091651263 35.78857760894841533 0.020095091452091651263 27.71636465598476562
0.025298221281360611101 42.60337576671911819 0.025298221281360611101 31.52595949929525077
0.031848573644296607199 50.30306226454256091 0.031848573644296607199 35.33236500864177287
0.040094978690177640601 58.86924097695893465 0.040094978690177640601 38.97417913473000795
0.050476587558421215363 68.24400288668496728 0.050476587558421215363 42.28498003120701298
0.063546258777961384112 78.33219930254422536 0.063546258777961384112 45.11826736501227941
0.079999999999998294697 89.00833451359522996 0.079999999999998294697 47.37401858392137655
0.100714032943542974863 100.13106474565562110 0.100714032943542974863 49.02184354839851466
0.126791455396897845276 111.56074137462900353 0.126791455396897845276 50.10515835406595642
0.159620985197506115583 123.17581055151208602 0.159620985197506115583 50.73190745148928471
0.200950914520760193227 134.88605052242735383 0.200950914520760193227 51.04994510831271981
0.252982212813478213320 146.63759465559408568 0.252982212813478213320 51.21412149335393593
0.318485736442795541734 158.41096981395699572 0.318485736442795541734 51.35957825066512328
0.400949786901833249431 170.21377867717504273 0.400949786901833249431 51.58525598244685995
0.504765875584155310207 182.07109847792622759 0.504765875584155310207 51.94684880605842636
0.635462587779443310865 194.01487611528162347 0.635462587779443310865 52.47053793754896134
0.799999999999997157829 206.08056357646006518 0.799999999999997157829 53.15534951969101485
1.007140329435344483500 218.29754321475584788 1.007140329435344483500 53.98577897355751531
1.267914553968893187630 230.69143759286677664 1.267914553968893187630 54.95071772878619498
1.596209851975103788391 243.28306727585587055 1.596209851975103788391 56.03876489288524709
2.009509145207672986544 256.08841668104889777 2.009509145207672986544 57.24486058265420496
2.529822128134711078928 269.12035397770540612 2.529822128134711078928 58.57132975841425804
3.184857364427998049905 282.38873668501565817 3.184857364427998049905 60.02401958608578525
4.009497869018190385759 295.89996709655031282 4.009497869018190385759 61.59932599825640409
5.009497869018204596614 309.19428696790816957 5.009497869018204596614 63.21114921201711923
6.009497869018204596614 320.21534645398202201 6.009497869018204596614 64.59116219173857587
7.009497869018204596614 329.63720777855081678 7.009497869018204596614 65.79405716603395149
8.009497869018204596614 337.86429337397674999 8.009497869018204596614 66.85774415168788209
9.009497869018204596614 345.16546757322379335 9.009497869018204596614 67.80341298139312300
10.009497869018190385759 351.72348357256578311 10.009497869018190385759 68.64072089882066052
11.009497869018190385759 357.67038589602680076 11.009497869018190385759 69.41068196740765472
12.009497869018190385759 363.10772425564414334 12.009497869018190385759 70.07801279889807233
13.009497869018190385759 368.11641715525422569 13.009497869018190385759 70.71388946447586932
14.009497869018190385759 372.74410236235115690 14.009497869018190385759 71.33569130591824603
15.009497869018190385759 377.05548926878748262 15.009497869018190385759 71.85150793851177298
16.009497869018204596614 381.08791372869114866 16.009497869018204596614 72.31284354662484759
17.009497869018204596614 384.86031635412427931 17.009497869018204596614 72.82482699027067952
18.009497869018204596614 388.40082498777064757 18.009497869018204596614 73.19377899033209189
19.009497869018204596614 391.75345266738611372 19.009497869018204596614 73.55144777103950560
20.009497869018204596614 394.92555389944396893 20.009497869018204596614 73.89414138108074326
21.009497869018204596614 397.92639286918432617 21.009497869018204596614 74.30965016083416685
22.009497869018190385759 400.76219860764928171 22.009497869018190385759 74.68530518640491778
23.009497869018190385759 403.47126336202245511 23.009497869018190385759 74.92464893253725222
24.009497869018190385759 406.06668414993464467 24.009497869018190385759 75.17123188427855496
25.009497869018190385759 408.54641887838101866 25.009497869018190385759 75.50457080982724278
26.009497869018190385759 410.91470711293521845 26.009497869018190385759 75.71497934584634493
27.009497869018204596614 413.17142371999347006 27.009497869018204596614 75.97466517604728153
28.009497869018190385759 415.32963738741437965 28.009497869018190385759 76.15500618380150399
29.009497869018190385759 417.40874770417576656 29.009497869018190385759 76.08378175644740793
30.009497869018190385759 419.41319776723656787 30.009497869018190385759 76.07253710223297105
31.009497869018190385759 421.34011742167905368 31.009497869018190385759 76.10529126766026309
32.009497869018190385759 423.19062854145067831 32.009497869018190385759 76.19119334757554896
33.009497869018218807469 424.95628532211509309 33.009497869018218807469 76.15246583599864039
34.009497869018190385759 426.64608120166951721 34.009497869018190385759 76.21583778403194742
35.009497869018218807469 428.27270777954805681 35.009497869018218807469 76.23788607898571001
36.009497869018190385759 429.84677347235316347 36.009497869018190385759 76.18895175284622212
37.009497869018218807469 431.37835789665501807 37.009497869018218807469 76.13384262611528186
38.009497869018190385759 432.86185895607621887 38.009497869018190385759 76.17676657523055894
39.009497869018190385759 434.29741136746326902 39.009497869018190385759 76.34447571753921125
40.009497869018190385759 435.68565652901457952 40.009497869018190385759 76.54112783274992182
41.009497869018190385759 437.02914347840840037 41.009497869018190385759 76.68579510228896368
42.009497869018190385759 438.32801898984013178 42.009497869018190385759 76.87419055291850611
43.009497869018190385759 439.58579376548306072 43.009497869018190385759 76.98533272660478133
44.009497869018218807469 440.81252120806215089 44.009497869018218807469 77.04705789073187816
46.009497869018218807469 443.17847560987814859 46.009497869018218807469 77.20833874641137129
48.009497869018218807469 445.43493870215309016 48.009497869018218807469 77.33750906250899959
50.009497869018218807469 447.57053208656486731 50.009497869018218807469 77.61882103461432791
52.009497869018190385759 449.59008065642825613 52.009497869018190385759 77.70637127200708960
54.009497869018190385759 451.49566897148292810 54.009497869018190385759 77.68206833407384693
56.009497869018190385759 453.31380320287468066 56.009497869018190385759 77.46198615461945280
58.009497869018190385759 455.05699264893888767 58.009497869018190385759 76.61220810911625279
60.009497869018190385759 456.72407937845758852 60.009497869018190385759 76.03515718572515425
62.009497869018190385759 458.30472261730420769 62.009497869018190385759 75.47205474665199176
64.009497869018190385759 459.79707615249355968 64.009497869018190385759 74.92453780590871304
66.009497869018218807469 461.20838159807357215 66.009497869018218807469 74.40160030072976838
68.009497869018218807469 462.50882164482050030 68.009497869018218807469 73.67305685984317165
70.009497869018218807469 463.73771432838890405 70.009497869018218807469 73.19511614738264882
72.009497869018218807469 464.91186660549857379 72.009497869018218807469 72.83322586504894502
74.009497869018190385759 466.04184541383864371 74.009497869018190385759 72.35249613474168484
76.009497869018190385759 467.12311953041256629 76.009497869018190385759 71.88096399665424485
78.009497869018190385759 468.15402503563666414 78.009497869018190385759 71.76568814515647432
80.009497869018190385759 469.14523149558436899 80.009497869018190385759 71.41952000284642565
82.009497869018190385759 470.12182442015534889 82.009497869018190385759 71.11207927409915897
84.009497869018190385759 471.06608161208401953 84.009497869018190385759 71.06403041615205041
86.009497869018190385759 471.98083099430255061 86.009497869018190385759 71.02111001487033093
88.009497869018218807469 472.86431853925626001 88.009497869018218807469 70.92209135093737871
91.009497869018190385759 474.13334648460534027 91.009497869018190385759 70.63953300197837848
94.009497869018218807469 475.33583506700466614 94.009497869018218807469 70.18655999549245905
97.009497869018190385759 476.47533092987657710 97.009497869018190385759 68.79118977004276303
99.504748934509109403734 477.35212281532119505 99.504748934509109403734 71.22905000996350111
nan nan nan nan

