Time Pressure difference Time.1 Pressure.1 difference.1
(hr) (psi) (hr) (psi)
0.000200000000006639311 0.27455569371254024 0.000200000000006639311 0.22068754201072568
0.000399999999999067768 0.54499890500509729 0.000399999999999067768 0.55964886914517298
0.000600000000005707079 0.81211333740084624 0.000600000000005707079 0.81053822711819057
0.000799999999998135536 1.07626295067090338 0.000799999999998135536 1.06121750719499164
0.001007140329434719206 1.34697140488213352 0.001007140329434719206 1.31950436356688861
0.001267914553963578328 1.68391083784449025 0.001267914553963578328 1.64039506385797140
0.001596209851982166583 2.10239134697374297 0.001596209851982166583 2.03454810210241499
0.002009509145224797066 2.62083940714477848 0.002009509145224797066 2.51644827363654411
0.002529822128138903281 3.26123454325335871 0.002529822128138903281 3.10239723098326348
0.003184857364431081805 4.04950880219326326 0.003184857364431081805 3.81022596738351105
0.004009497869020606231 5.01585075716346207 0.004009497869020606231 4.65869521189343772
0.005047658755842121536 6.19482848126501384 0.005047658755842121536 5.66644484577785423
0.006354625877790454069 7.62520923015655772 0.006354625877790454069 6.85037210868443935
0.008000000000009777068 9.34933487071185532 0.008000000000009777068 8.22334894813853445
0.010071403294347192059 11.41188949034642874 0.010071403294347192059 9.79118346693967290
0.012679145539706837553 13.85787446159572944 0.012679145539706837553 11.54895628074021730
0.015962098519750611558 16.72968769173296266 0.015962098519750611558 13.47710320373434278
0.020095091452091651263 20.06329350804683997 0.020095091452091651263 15.53796200411267137
0.025298221281360611101 23.88371065710011365 0.025298221281360611101 17.67364396172612473
0.031848573644296607199 28.20020157254658955 0.031848573644296607199 19.80753795939008555
0.040094978690177640601 33.00245327496182313 0.040094978690177640601 21.84916103007591204
0.050476587558421215363 38.25800161829309332 0.050476587558421215363 23.70521607810090359
0.063546258777961384112 43.91350566960812785 0.063546258777961384112 25.29357412887052092
0.079999999999998294697 49.89861177277308002 0.079999999999998294697 26.55816193341046727
0.100714032943542974863 56.13408175135238309 0.100714032943542974863 27.48194259531431882
0.126791455396897845276 62.54162774032231908 0.126791455396897845276 28.08925544091576398
0.159620985197506115583 69.05310591524163044 0.159620985197506115583 28.44061478341066262
0.200950914520760193227 75.61793741408806113 0.200950914520760193227 28.61890862132683111
0.252982212813478213320 82.20592427662094792 0.252982212813478213320 28.71094689778933073
0.318485736442795541734 88.80614974418800500 0.318485736442795541734 28.79249083749408555
0.400949786901833249431 95.42287592508299099 0.400949786901833249431 28.91900714167475783
0.504765875584155310207 102.07016126792834143 0.504765875584155310207 29.12171827006305236
0.635462587779443310865 108.76591539796091013 0.635462587779443310865 29.41530157105017906
0.799999999999997157829 115.53001291407609585 0.799999999999997157829 29.79921109437223592
1.007140329435344483500 122.37892574160554204 1.007140329435344483500 30.26475487911557494
1.267914553968893187630 129.32701804448592497 1.267914553968893187630 30.80570539341043812
1.596209851975103788391 136.38596195767678410 1.596209851975103788391 31.41567122782960553
2.009509145207672986544 143.56471844240618907 2.009509145207672986544 32.09181578118493405
2.529822128134711078928 150.87050147234998576 2.529822128134711078928 32.83544244032314197
3.184857364427998049905 158.30883723250875050 3.184857364427998049905 33.64982916189657658
4.009497869018190385759 165.88331488746004538 4.009497869018190385759 34.53295548387102087
5.009497869018204596614 173.33619117897882234 5.009497869018204596614 35.43655334613081465
6.009497869018204596614 179.51466392117174564 6.009497869018204596614 36.21019698627768690
7.009497869018204596614 184.79661648191486734 7.009497869018204596614 36.88454719914024338
8.009497869018204596614 189.40877052783542922 8.009497869018204596614 37.48085656988563130
9.009497869018204596614 193.50185303347393528 9.009497869018204596614 38.01100424714463344
10.009497869018190385759 197.17831654825656074 10.009497869018190385759 38.48040414024794131
11.009497869018190385759 200.51218603262108786 11.009497869018190385759 38.91204898172853177
12.009497869018190385759 203.56039087058837822 12.009497869018190385759 39.28615869029134444
13.009497869018190385759 206.36829446582430592 13.009497869018190385759 39.64263500281223429
14.009497869018190385759 208.96260283949985137 14.009497869018190385759 39.99122088362084071
15.009497869018190385759 211.37959246886572373 15.009497869018190385759 40.28039081401417576
16.009497869018204596614 213.64019406002384471 16.009497869018204596614 40.53901835189574143
17.009497869018204596614 215.75502583488787423 17.009497869018204596614 40.82603937333356470
18.009497869018204596614 217.73985643253809030 18.009497869018204596614 41.03287610064071345
19.009497869018204596614 219.61935982868615724 19.009497869018204596614 41.23338738679487392
20.009497869018204596614 221.39765900423375911 20.009497869018204596614 41.42550350151496730
21.009497869018204596614 223.07994751757303220 21.009497869018204596614 41.65844024167976301
22.009497869018190385759 224.66971740125794099 22.009497869018190385759 41.86903472571184892
23.009497869018190385759 226.18843552113378337 23.009497869018190385759 42.00321228036179377
24.009497869018190385759 227.64344414466035005 24.009497869018190385759 42.14144817755010308
25.009497869018190385759 229.03359846212268280 25.009497869018190385759 42.32831999944860968
26.009497869018190385759 230.36127519967575950 26.009497869018190385759 42.44627629994415940
27.009497869018204596614 231.62640420666298269 27.009497869018204596614 42.59185775020832665
28.009497869018190385759 232.83631186870198349 28.009497869018190385759 42.69295801213114316
29.009497869018190385759 234.00187371294700256 29.009497869018190385759 42.65302916649324771
30.009497869018190385759 235.12558056648111915 30.009497869018190385759 42.64672534519121427
31.009497869018190385759 236.20582340306251012 31.009497869018190385759 42.66508752883984101
32.009497869018190385759 237.24323115202540180 32.009497869018190385759 42.71324475545902288
33.009497869018218807469 238.23306904421605168 33.009497869018218807469 42.69153387775681097
34.009497869018190385759 239.18037885548139343 34.009497869018190385759 42.72706057589669371
35.009497869018218807469 240.09227557338297743 35.009497869018218807469 42.73942098367381703
36.009497869018190385759 240.97470634056159611 36.009497869018190385759 42.71198810386833600
37.009497869018218807469 241.83332185115509105 37.009497869018218807469 42.68109359342825826
38.009497869018190385759 242.66498153598215026 38.009497869018190385759 42.70515701944743370
39.009497869018190385759 243.46976091812334175 39.009497869018190385759 42.79917578104471687
40.009497869018190385759 244.24801956929607627 40.009497869018190385759 42.90942014866283216
41.009497869018190385759 245.00118649547141558 41.009497869018190385759 42.99052149673775602
42.009497869018190385759 245.72934397915281579 42.009497869018190385759 43.09613712815128395
43.009497869018190385759 246.43446014125564147 43.009497869018190385759 43.15844410430874234
44.009497869018218807469 247.12217098027727502 44.009497869018218807469 43.19304760541029253
46.009497869018218807469 248.44853935705290837 46.009497869018218807469 43.28346263056396026
48.009497869018218807469 249.71352624211613147 48.009497869018218807469 43.35587629261868159
50.009497869018218807469 250.91075283640756766 50.009497869018218807469 43.51358148910196633
52.009497869018190385759 252.04292400436131061 52.009497869018190385759 43.56266268279185994
54.009497869018190385759 253.11120836280105095 54.009497869018190385759 43.54903830849594470
56.009497869018190385759 254.13046543191458682 56.009497869018190385759 43.42565890486242353
58.009497869018190385759 255.10770800016271664 58.009497869018190385759 42.94926818238334931
60.009497869018190385759 256.04228692428682734 60.009497869018190385759 42.62576993745197740
62.009497869018190385759 256.92840510364021611 62.009497869018190385759 42.31009129736550989
64.009497869018190385759 257.76502754003428208 64.009497869018190385759 42.00314998210033934
66.009497869018218807469 258.55621392619275412 66.009497869018218807469 41.70998804737880050
68.009497869018218807469 259.28524849785389961 68.009497869018218807469 41.30156217900298543
70.009497869018218807469 259.97417318409685549 70.009497869018218807469 41.03362571898723843
72.009497869018218807469 260.63241006671887590 72.009497869018218807469 40.83074783343653280
74.009497869018190385759 261.26588303503075394 74.009497869018190385759 40.56124783311275905
76.009497869018190385759 261.87205185795858142 76.009497869018190385759 40.29690405873041215
78.009497869018190385759 262.44998373209932652 78.009497869018190385759 40.23227971773923173
80.009497869018190385759 263.00566008085792191 80.009497869018190385759 40.03821575917148579
82.009497869018190385759 263.55314399311737361 82.009497869018190385759 39.86586262335862330
84.009497869018190385759 264.08250029768345257 84.009497869018190385759 39.83892614238827434
86.009497869018190385759 264.59531434529083072 86.009497869018190385759 39.81486470530609978
88.009497869018218807469 265.09060281746184273 88.009497869018218807469 39.75935424219216685
91.009497869018190385759 265.80202757470300412 91.009497869018190385759 39.60095031929090936
94.009497869018218807469 266.47614996180567459 94.009497869018218807469 39.34701090656395195
97.009497869018190385759 267.11495824856717718 97.009497869018190385759 38.56475790138760829
99.504748934509109403734 267.60649309343767754 99.504748934509109403734 39.93143712679771795
nan nan nan nan

