Time Pressure difference Time.1 Pressure.1 difference.1
(hr) (psi) (hr) (psi)
0.000200000000006639311 0.06348585109869548 0.000200000000006639311 0.05102985205653417
0.000399999999999067768 0.12602076782400148 0.000399999999999067768 0.12940829706960455
0.000600000000005707079 0.18778596690650198 0.000600000000005707079 0.18742175221651855
0.000799999999998135536 0.24886560721219089 0.000799999999998135536 0.24538663079283587
0.001007140329434719206 0.31146185638415697 0.001007140329434719206 0.30511061860255378
0.001267914553963578328 0.38937277631839562 0.001267914553963578328 0.37931057032151289
0.001596209851982166583 0.48613853969062532 0.001596209851982166583 0.47045106264830611
0.002009509145224797066 0.60601992297341734 0.002009509145224797066 0.58188143264268433
0.002529822128138903281 0.75409927877029614 0.002529822128138903281 0.71737113148862242
0.003184857364431081805 0.93637290621285663 0.003184857364431081805 0.88104324170729842
0.004009497869020606231 1.15982134625101074 0.004009497869020606231 1.07723582977716137
0.005047658755842121536 1.43243781698920714 0.005047658755842121536 1.31025901839307735
0.006354625877790454069 1.76318651868484966 0.006354625877790454069 1.58401997708318887
0.008000000000009777068 2.16185821334778661 0.008000000000009777068 1.90149510212212358
0.010071403294347192059 2.63878525752755255 0.010071403294347192059 2.26402740827133586
0.012679145539706837553 3.20437337400261635 0.012679145539706837553 2.67047938023122144
0.015962098519750611558 3.86842628307338732 0.015962098519750611558 3.11632716722986292
0.020095091452091651263 4.63926006041923866 0.020095091452091651263 3.59286208503506277
0.025298221281360611101 5.52265982161173774 0.025298221281360611101 4.08669845361234696
0.031848573644296607199 6.52076733058885072 0.031848573644296607199 4.58012139000911844
0.040094978690177640601 7.63119790442060175 0.040094978690177640601 5.05220840635389035
0.050476587558421215363 8.84644481864434873 0.050476587558421215363 5.48138630034164986
0.063546258777961384112 10.15417398366314039 0.063546258777961384112 5.84866428805714822
0.079999999999998294697 11.53811743694752856 0.079999999999998294697 6.14107648310091925
0.100714032943542974863 12.97995283739980010 0.100714032943542974863 6.35468342294054889
0.126791455396897845276 14.46157758560005746 0.126791455396897845276 6.49511311997151264
0.159620985197506115583 15.96723470112193866 0.159620985197506115583 6.57635837334120410
0.200950914520760193227 17.48522877142577059 0.200950914520760193227 6.61758547700350164
0.252982212813478213320 19.00857708498442022 0.252982212813478213320 6.63886760099032536
0.318485736442795541734 20.53475534625368581 0.318485736442795541734 6.65772310656770205
0.400949786901833249431 22.06474908778195143 0.400949786901833249431 6.68697762735422341
0.504765875584155310207 23.60180906195340000 0.504765875584155310207 6.73385077115572095
0.635462587779443310865 25.15007653346243188 0.635462587779443310865 6.80173639931190266
0.799999999999997157829 26.71414713028185872 0.799999999999997157829 6.89050827107105768
1.007140329435344483500 28.29782967598686838 1.007140329435344483500 6.99815653360930678
1.267914553968893187630 29.90444561389013600 1.267914553968893187630 7.12324118706487663
1.596209851975103788391 31.53669390612946444 1.596209851975103788391 7.26428433796660666
2.009509145207672986544 33.19664660680263779 2.009509145207672986544 7.42063007552924780
2.529822128134711078928 34.88597181192477592 2.529822128134711078928 7.59257978349814433
3.184857364427998049905 36.60594734805758321 3.184857364427998049905 7.78089142782593512
4.009497869018190385759 38.35740314214541513 4.009497869018190385759 7.98509781458879431
5.009497869018204596614 40.08074090324736005 5.009497869018204596614 8.19403786081703522
6.009497869018204596614 41.50939676255322297 6.009497869018204596614 8.37292843226240713
7.009497869018204596614 42.73074915647880800 7.009497869018204596614 8.52885926226366031
8.009497869018204596614 43.79722321514513794 8.009497869018204596614 8.66674461225583670
9.009497869018204596614 44.74367172245493407 9.009497869018204596614 8.78933131240281362
10.009497869018190385759 45.59378490755482005 10.009497869018190385759 8.89787122762490057
11.009497869018190385759 46.36467965318865936 11.009497869018190385759 8.99768099577506497
12.009497869018190385759 47.06951981091683024 12.009497869018190385759 9.08418684430160184
13.009497869018190385759 47.71879481642184118 13.009497869018190385759 9.16661530095057486
14.009497869018190385759 48.31867993586033094 14.009497869018190385759 9.24721924335977263
15.009497869018190385759 48.87756342373171492 15.009497869018190385759 9.31408436239967408
16.009497869018204596614 49.40028511297848723 16.009497869018204596614 9.37388712641432953
17.009497869018204596614 49.88930026812722929 17.009497869018204596614 9.44025535059064325
18.009497869018204596614 50.34825509100731011 18.009497869018204596614 9.48808246170971614
19.009497869018204596614 50.78285497540190363 19.009497869018204596614 9.53444693328289894
20.009497869018204596614 51.19405328326125471 20.009497869018204596614 9.57887017902898563
21.009497869018204596614 51.58305092748685183 21.009497869018204596614 9.63273242825628273
22.009497869018190385759 51.95065537506564368 22.009497869018190385759 9.68142845008952513
23.009497869018190385759 52.30183043581772040 23.009497869018190385759 9.71245449125482807
24.009497869018190385759 52.63827387128782220 24.009497869018190385759 9.74441894796203378
25.009497869018190385759 52.95972096571605192 25.009497869018190385759 9.78762954942205177
26.009497869018190385759 53.26672129241752174 26.009497869018190385759 9.81490473001711727
27.009497869018204596614 53.55925863036951284 27.009497869018204596614 9.84856770800612935
28.009497869018190385759 53.83902706873889343 28.009497869018190385759 9.87194524604834278
29.009497869018190385759 54.10854136905982159 29.009497869018190385759 9.86271244990984997
30.009497869018190385759 54.36837748834548023 30.009497869018190385759 9.86125480954871847
31.009497869018190385759 54.61816336947691752 31.009497869018190385759 9.86550071988188648
32.009497869018190385759 54.85804444055842310 32.009497869018190385759 9.87663617468571964
33.009497869018218807469 55.08692587508899408 33.009497869018218807469 9.87161594170352785
34.009497869018190385759 55.30597348910530542 34.009497869018190385759 9.87983082385599332
35.009497869018218807469 55.51683248994141451 35.009497869018218807469 9.88268893616481670
36.009497869018190385759 55.72087804271244238 36.009497869018190385759 9.87634559759117536
37.009497869018218807469 55.91941676438121078 37.009497869018218807469 9.86920182190383066
38.009497869018190385759 56.11172245726913843 38.009497869018190385759 9.87476603752988780
39.009497869018190385759 56.29781258467116345 39.009497869018190385759 9.89650611153286164
40.009497869018190385759 56.47777029079819044 40.009497869018190385759 9.92199805239350674
41.009497869018190385759 56.65192600646035004 41.009497869018190385759 9.94075121696338471
42.009497869018190385759 56.82029875794223983 42.009497869018190385759 9.96517284945239901
43.009497869018190385759 56.98334363626632637 43.009497869018190385759 9.97958016826358474
44.009497869018218807469 57.14236386030435710 44.009497869018218807469 9.98758157842820538
46.009497869018218807469 57.44906165313235391 46.009497869018218807469 10.00848835601629006
48.009497869018218807469 57.74156612805688127 48.009497869018218807469 10.02523265625116800
50.009497869018218807469 58.01840230751766825 50.009497869018218807469 10.06169902300556096
52.009497869018190385759 58.28019564064810965 52.009497869018190385759 10.07304812785277193
54.009497869018190385759 58.52721634815519280 54.009497869018190385759 10.06989774700957341
56.009497869018190385759 58.76290041518745966 56.009497869018190385759 10.04136857559881868
58.009497869018190385759 58.98886941745504231 58.009497869018190385759 9.93121216229284620
60.009497869018190385759 59.20497325276301837 60.009497869018190385759 9.85640926481622337
62.009497869018190385759 59.40987145039128592 62.009497869018190385759 9.78341450419562797
64.009497869018190385759 59.60332468643434822 64.009497869018190385759 9.71244008595112973
66.009497869018218807469 59.78627168863916808 66.009497869018218807469 9.64465189083533936
68.009497869018218807469 59.95484725025450956 68.009497869018218807469 9.55021107442411576
70.009497869018218807469 60.11414815368004128 70.009497869018218807469 9.48825579688293708
72.009497869018218807469 60.26635307849055323 72.009497869018218807469 9.44134409361745597
74.009497869018190385759 60.41283181290501147 74.009497869018190385759 9.37902727672577363
76.009497869018190385759 60.55299697616459298 76.009497869018190385759 9.31790274030703181
78.009497869018190385759 60.68663287498993242 78.009497869018190385759 9.30295957437213694
80.009497869018190385759 60.81512260127945524 80.009497869018190385759 9.25808592629490690
82.009497869018190385759 60.94171798039050714 82.009497869018190385759 9.21823249849433424
84.009497869018190385759 61.06412169045533744 84.009497869018190385759 9.21200394283452617
86.009497869018190385759 61.18270031407625709 86.009497869018190385759 9.20644018711282186
88.009497869018218807469 61.29722647731099983 88.009497869018218807469 9.19360443438077191
91.009497869018190385759 61.46173009985624702 91.009497869018190385759 9.15697650025645515
94.009497869018218807469 61.61760824942652448 94.009497869018218807469 9.09825777719346718
97.009497869018190385759 61.76532067609511500 97.009497869018190385759 8.91737645167220983
99.504748934509109403734 61.87897888346756048 99.504748934509109403734 9.23339537166193480
nan nan nan nan

