Time Pressure difference Time.1 Pressure.1 difference.1
(hr) (psi) (hr) (psi)
0.000200000000006639311 0.42461315994582044 0.000200000000006639311 0.34130355596253370
0.000399999999999067768 0.84286617440728262 0.000399999999999067768 0.86552302585514729
0.000600000000005707079 1.25597107736166924 0.000600000000005707079 1.25353509599359803
0.000799999999998135536 1.66449074953608189 0.000799999999998135536 1.64122227088714912
0.001007140329434719206 2.08315397451741369 0.001007140329434719206 2.04067491662747003
0.001267914553963578328 2.60424649096069816 0.001267914553963578328 2.53694732098154718
0.001596209851982166583 3.25144607715158473 0.001596209851982166583 3.14652334108932008
0.002009509145224797066 4.05325013417285618 0.002009509145224797066 3.89180438715561650
0.002529822128138903281 5.04365102034678614 0.002529822128138903281 4.79800172359273436
0.003184857364431081805 6.26275385324183365 0.003184857364431081805 5.89269181141894371
0.004009497869020606231 7.75724666648403360 0.004009497869020606231 7.20488899136672778
0.005047658755842121536 9.58059059414859426 0.005047658755842121536 8.76342070743421964
0.006354625877790454069 11.79274100159347505 0.006354625877790454069 10.59441932724470448
0.008000000000009777068 14.45918155680662309 0.008000000000009777068 12.71779191679082643
0.010071403294347192059 17.64901828086609825 0.010071403294347192059 15.14252097739919201
0.012679145539706837553 21.43184789105645649 0.012679145539706837553 17.86099845219583315
0.015962098519750611558 25.87324072445187895 0.015962098519750611558 20.84296741718674539
0.020095091452091651263 31.02881728721958510 0.020095091452091651263 24.03018147783190983
0.025298221281360611101 36.93727023545512367 0.025298221281360611101 27.33311303390076219
0.031848573644296607199 43.61292435393841060 0.031848573644296607199 30.63327942668436421
0.040094978690177640601 51.03983013995597418 0.040094978690177640601 33.79074453600328809
0.050476587558421215363 59.16778028054336858 0.050476587558421215363 36.66122006072662032
0.063546258777961384112 67.91428054008464699 0.063546258777961384112 39.11768971882378310
0.079999999999998294697 77.17052571464905952 0.079999999999998294697 41.07343362073990534
0.100714032943542974863 86.81397027611555473 0.100714032943542974863 42.50210341317379914
0.126791455396897845276 96.72353839719518476 0.126791455396897845276 43.44134099721206610
0.159620985197506115583 106.79384248152983616 0.159620985197506115583 43.98473457494441874
0.200950914520760193227 116.94665996473079872 0.200950914520760193227 44.26047429424419732
0.252982212813478213320 127.13528829567502498 0.252982212813478213320 44.40281577285737313
0.318485736442795541734 137.34284419896945906 0.318485736442795541734 44.52892727119956362
0.400949786901833249431 147.57591922347666014 0.400949786901833249431 44.72459062451201106
0.504765875584155310207 157.85625541436365893 0.504765875584155310207 45.03809282006748305
0.635462587779443310865 168.21155084069030750 0.635462587779443310865 45.49213306033285420
0.799999999999997157829 178.67254249474228800 0.799999999999997157829 46.08586700781292222
1.007140329435344483500 189.26470497575633090 1.007140329435344483500 46.80585214037393627
1.267914553968893187630 200.01025313186261201 1.267914553968893187630 47.64245729010924180
1.596209851975103788391 210.92723846307367808 1.596209851975103788391 48.58579784484158637
2.009509145207672986544 222.02951951303060696 2.009509145207672986544 49.63148686879952010
2.529822128134711078928 233.32825302780855736 2.529822128134711078928 50.78154011040967220
3.184857364427998049905 244.83198550973580154 3.184857364427998049905 52.04102708221242324
4.009497869018190385759 256.54626776889460871 4.009497869018190385759 53.40682304562634641
5.009497869018204596614 268.07248785938168112 5.009497869018204596614 54.80427919897107358
6.009497869018204596614 277.62778354175213735 6.009497869018204596614 56.00075509889791192
7.009497869018204596614 285.79656903359204989 7.009497869018204596614 57.04366909176344791
8.009497869018204596614 292.92947994545124857 8.009497869018204596614 57.96588928976306221
9.009497869018204596614 299.25962255927652222 9.009497869018204596614 58.78578734918763615
10.009497869018190385759 304.94544451156798459 10.009497869018190385759 59.51173613281589070
11.009497869018190385759 310.10142884924886175 11.009497869018190385759 60.17929497174232267
12.009497869018190385759 314.81561951457365467 12.009497869018190385759 60.75787304954967993
13.009497869018190385759 319.15817312282138118 13.009497869018190385759 61.30918025960450279
14.009497869018190385759 323.17039177880616307 14.009497869018190385759 61.84828454974394418
15.009497869018190385759 326.90837874314070177 15.009497869018190385759 62.29549930695886673
16.009497869018204596614 330.40450432706387573 16.009497869018204596614 62.69547883251143361
17.009497869018204596614 333.67519010500677723 17.009497869018204596614 63.13937020200235395
18.009497869018204596614 336.74482301128261952 18.009497869018204596614 63.45925282831822756
19.009497869018204596614 339.65156249781790621 19.009497869018204596614 63.76935286546354575
20.009497869018204596614 342.40178494648762353 20.009497869018204596614 64.06646937921985341
21.009497869018204596614 345.00352243708738342 21.009497869018204596614 64.42671689028551896
22.009497869018190385759 347.46217556050396524 22.009497869018190385759 64.75241106228708077
23.009497869018190385759 349.81094382397566278 23.009497869018190385759 64.95992289605503345
24.009497869018190385759 352.06118238588607028 24.009497869018190385759 65.17371114546035926
25.009497869018190385759 354.21112074472426912 25.009497869018190385759 65.46271711626435774
26.009497869018190385759 356.26443461811714997 26.009497869018190385759 65.64514202543915644
27.009497869018204596614 358.22101551480909620 27.009497869018204596614 65.87029051458645768
28.009497869018190385759 360.09219403117572256 28.009497869018190385759 66.02664677551814520
29.009497869018190385759 361.89478967617935723 29.009497869018190385759 65.96489495718925866
30.009497869018190385759 363.63265462984315946 30.009497869018190385759 65.95514580412455530
31.009497869018190385759 365.30330045818976714 31.009497869018190385759 65.98354377583339669
32.009497869018190385759 366.90769982970897445 32.009497869018190385759 66.05802116835253912
33.009497869018218807469 368.43853020351730265 33.009497869018218807469 66.02444428541969046
34.009497869018190385759 369.90358892063937901 34.009497869018190385759 66.07938797773815054
35.009497869018218807469 371.31387964051725703 35.009497869018218807469 66.09850392369973804
36.009497869018190385759 372.67859989606375848 36.009497869018190385759 66.05607769817476083
37.009497869018218807469 374.00648874878339711 37.009497869018218807469 66.00829789974639539
38.009497869018190385759 375.29268916225464636 38.009497869018190385759 66.04551310815443799
39.009497869018190385759 376.53731793643703440 39.009497869018190385759 66.19091749921329892
40.009497869018190385759 377.74093116572817053 40.009497869018190385759 66.36141554522930619
41.009497869018190385759 378.90573887437767553 41.009497869018190385759 66.48684255501484586
42.009497869018190385759 380.03186831610719310 42.009497869018190385759 66.65018204503876120
43.009497869018190385759 381.12236328152152964 43.009497869018190385759 66.74654268384085753
44.009497869018218807469 382.18594010463300492 44.009497869018218807469 66.80005860896785919
46.009497869018218807469 384.23723053718390474 46.009497869018218807469 66.93988965387519841
48.009497869018218807469 386.19359163570510418 48.009497869018218807469 67.05188075284871729
50.009497869018218807469 388.04515829054025744 50.009497869018218807469 67.29577917984238411
52.009497869018190385759 389.79611370043863872 52.009497869018190385759 67.37168553044386954
54.009497869018190385759 391.44826518571329643 54.009497869018190385759 67.35061480142766754
56.009497869018190385759 393.02459368599409117 56.009497869018190385759 67.15980281082326542
58.009497869018190385759 394.53594480505643105 58.009497869018190385759 66.42304238416643614
60.009497869018190385759 395.98131461263579922 60.009497869018190385759 65.92273729065395571
62.009497869018190385759 397.35173762274695264 62.009497869018190385759 65.43452558000971919
64.009497869018190385759 398.64561316251541712 64.009497869018190385759 64.95982654889391483
66.009497869018218807469 399.86921973570349564 66.009497869018218807469 64.50643797117142242
68.009497869018218807469 400.99670563481907948 68.009497869018218807469 63.87478835491453566
70.009497869018218807469 402.06215972915873635 70.009497869018218807469 63.46041214798326990
72.009497869018218807469 403.08015370678748468 72.009497869018218807469 63.14665205471415277
74.009497869018190385759 404.05984913826080174 74.009497869018190385759 62.72985775991913471
76.009497869018190385759 404.99731743798400885 76.009497869018190385759 62.32103780854703245
78.009497869018190385759 405.89111598207557563 78.009497869018190385759 62.22109325716427719
80.009497869018190385759 406.75049532024576138 80.009497869018190385759 61.92096431223217223
82.009497869018190385759 407.59720467404042665 82.009497869018190385759 61.65441216525432822
84.009497869018190385759 408.41587883875973830 84.009497869018190385759 61.61275364363351059
86.009497869018190385759 409.20896963310741512 86.009497869018190385759 61.57554151120913133
88.009497869018218807469 409.97495630928784749 88.009497869018218807469 61.48969199618307613
91.009497869018190385759 411.07520781072679483 91.009497869018190385759 61.24471295626070599
94.009497869018218807469 412.11776946045017667 94.009497869018218807469 60.85198383447578152
97.009497869018190385759 413.10571621024655542 97.009497869018190385759 59.64219315079464678
99.504748934509109403734 413.86589772708822466 99.504748934509109403734 61.75582618708956772
nan nan nan nan

