Time Pressure difference Time.1 Pressure.1 difference.1
(hr) (psi) (hr) (psi)
0.000200000000006639311 0.28362510101235383 0.000200000000006639311 0.22797752087594486
0.000399999999999067768 0.56300187183709760 0.000399999999999067768 0.57813576872654493
0.000600000000005707079 0.83893990410177510 0.000600000000005707079 0.83731276314912173
0.000799999999998135536 1.11181518027264503 0.000799999999998135536 1.09627274016539666
0.001007140329434719206 1.39146595579415577 0.001007140329434719206 1.36309159479582465
0.001267914553963578328 1.73953552017568969 0.001267914553963578328 1.69458228818961598
0.001596209851982166583 2.17183970978668972 0.001596209851982166583 2.10175539676645862
0.002009509145224797066 2.70741368185526676 0.002009509145224797066 2.59957419258549915
0.002529822128138903281 3.36896301164911494 0.002529822128138903281 3.20487882119592404
0.003184857364431081805 4.18327636022367066 0.003184857364431081805 3.93608928762741161
0.004009497869020606231 5.18153952091360637 0.004009497869020606231 4.81258604471874651
0.005047658755842121536 6.39946245512061385 0.005047658755842121536 5.85362470554829439
0.006354625877790454069 7.87709301854010846 0.006354625877790454069 7.07666067683918154
0.008000000000009777068 9.65817175833296915 0.008000000000009777068 8.49499110558455151
0.010071403294347192059 11.78885881285036596 0.010071403294347192059 10.11461595383557821
0.012679145539706837553 14.31564208645324676 0.012679145539706837553 11.93045333505896366
0.015962098519750611558 17.28232001788630257 0.015962098519750611558 13.92229279905289552
0.020095091452091651263 20.72604494524958696 0.020095091452091651263 16.05122801626053786
0.025298221281360611101 24.67266206018750196 0.025298221281360611101 18.25745802652788896
0.031848573644296607199 29.13173976263070841 0.031848573644296607199 20.46184101510567288
0.040094978690177640601 34.09262440416476636 0.040094978690177640601 22.57090508812646945
0.050476587558421215363 39.52177944952799749 0.050476587558421215363 24.48827126386399300
0.063546258777961384112 45.36410195298857673 0.063546258777961384112 26.12909759859297054
0.079999999999998294697 51.54691426376557928 0.079999999999998294697 27.43545857385345599
0.100714032943542974863 57.98836072812378717 0.100714032943542974863 28.38975451287725349
0.126791455396897845276 64.60756739540804006 0.126791455396897845276 29.01712874376883633
0.159620985197506115583 71.33413944397332784 0.159620985197506115583 29.38009455103083312
0.200950914520760193227 78.11582723857745236 0.200950914520760193227 29.56427797518447420
0.252982212813478213320 84.92143528876157177 0.252982212813478213320 29.65935655507366420
0.318485736442795541734 91.73968622222426461 0.318485736442795541734 29.74359413843232858
0.400949786901833249431 98.57498293762326114 0.400949786901833249431 29.87428965986821794
0.504765875584155310207 105.44184827677882765 0.504765875584155310207 30.08369695165672653
0.635462587779443310865 112.35878347416982592 0.635462587779443310865 30.38697819952330548
0.799999999999997157829 119.34631964697351236 0.799999999999997157829 30.78356941881095921
1.007140329435344483500 126.42147283817510584 1.007140329435344483500 31.26449152677405152
1.267914553968893187630 133.59908170361308066 1.267914553968893187630 31.82331127727685072
1.596209851975103788391 140.89120394426669236 1.596209851975103788391 32.45342613325340864
2.009509145207672986544 148.30709652909229135 2.009509145207672986544 33.15190579197482634
2.529822128134711078928 155.85421173119638638 2.529822128134711078928 33.92009669510859737
3.184857364427998049905 163.53825828223128269 3.184857364427998049905 34.76138508015742445
4.009497869018190385759 171.36294390776649266 4.009497869018190385759 35.67368374309798895
5.009497869018204596614 179.06201130801414934 5.009497869018204596614 36.60713018339038172
6.009497869018204596614 185.44457774439362652 6.009497869018204596614 37.40632961945802748
7.009497869018204596614 190.90100921855469096 7.009497869018204596614 38.10295566517790888
8.009497869018204596614 195.66551670142760599 8.009497869018204596614 38.71896294306503705
9.009497869018204596614 199.89380613668177489 9.009497869018204596614 39.26662300605931222
10.009497869018190385759 203.69171439219297781 10.009497869018190385759 39.75152860133721333
11.009497869018190385759 207.13571169736235333 11.009497869018190385759 40.19743198112497140
12.009497869018190385759 210.28460798643362750 12.009497869018190385759 40.58389966804871563
13.009497869018190385759 213.18526515388458620 13.009497869018190385759 40.95215147437659908
14.009497869018190385759 215.86527140176562511 14.009497869018190385759 41.31225220410080823
15.009497869018190385759 218.36210152939881368 15.009497869018190385759 41.61097429435698558
16.009497869018204596614 220.69737764759216248 16.009497869018204596614 41.87814508424064996
17.009497869018204596614 222.88206873033462330 17.009497869018204596614 42.17464728056079792
18.009497869018204596614 224.93246430268197855 18.009497869018204596614 42.38831645231353917
19.009497869018204596614 226.87405339660071490 19.009497869018204596614 42.59545123440672398
20.009497869018204596614 228.71109518755676504 20.009497869018204596614 42.79391352709053820
21.009497869018204596614 230.44895479292830487 21.009497869018204596614 43.03454487428780340
22.009497869018190385759 232.09123959769587486 22.009497869018190385759 43.25209593286749055
23.009497869018190385759 233.66012558339343741 23.009497869018190385759 43.39070577911247995
24.009497869018190385759 235.16319755484431653 24.009497869018190385759 43.53350802725896074
25.009497869018190385759 236.59927288579640958 25.009497869018190385759 43.72655279222318114
26.009497869018190385759 237.97080681287826565 26.009497869018190385759 43.84840554708946314
27.009497869018204596614 239.27772686814435588 27.009497869018204596614 43.99879599420920329
28.009497869018190385759 240.52760144995039582 28.009497869018190385759 44.10323590442376940
29.009497869018190385759 241.73166533709840564 29.009497869018190385759 44.06198808790893651
30.009497869018190385759 242.89249163624475614 30.009497869018190385759 44.05547603226960263
31.009497869018190385759 244.00841817013062496 31.009497869018190385759 44.07444477453726250
32.009497869018190385759 245.08009464353375506 32.009497869018190385759 44.12419278041412696
33.009497869018218807469 246.10262988351448143 33.009497869018218807469 44.10176472657160929
34.009497869018190385759 247.08123221106788492 34.009497869018190385759 44.13846497930470036
35.009497869018218807469 248.02325164337460706 35.009497869018218807469 44.15123368884021460
36.009497869018190385759 248.93483177523481231 36.009497869018190385759 44.12289461780993349
37.009497869018218807469 249.82180996035242515 37.009497869018218807469 44.09097956798594709
38.009497869018190385759 250.68094188702056613 38.009497869018190385759 44.11583788195170541
39.009497869018190385759 251.51230557307636104 39.009497869018190385759 44.21296236840655069
40.009497869018190385759 252.31627246798151987 40.009497869018190385759 44.32684844186190531
41.009497869018190385759 253.09431878210855871 41.009497869018190385759 44.41062881344681301
42.009497869018190385759 253.84652951600168080 42.009497869018190385759 44.51973324950161981
43.009497869018190385759 254.57493780357941660 43.009497869018190385759 44.58409841406068352
44.009497869018218807469 255.28536581746362799 44.009497869018218807469 44.61984497375717496
46.009497869018218807469 256.65554816464327814 46.009497869018218807469 44.71324668142342773
48.009497869018218807469 257.96232140326713989 48.009497869018218807469 44.78805238636884667
50.009497869018218807469 259.19909602319580699 50.009497869018218807469 44.95096706381704621
52.009497869018190385759 260.36866623873959270 52.009497869018190385759 45.00166955819940284
54.009497869018190385759 261.47223926968035812 54.009497869018190385759 44.98759512949730777
56.009497869018190385759 262.52516549122708511 56.009497869018190385759 44.86014012994796474
58.009497869018190385759 263.53468934551341363 58.009497869018190385759 44.36801277699661483
60.009497869018190385759 264.50014024611010655 60.009497869018190385759 44.03382840385430086
62.009497869018190385759 265.41552959655331279 62.009497869018190385759 43.70772194082202589
64.009497869018190385759 266.27978820952489514 64.009497869018190385759 43.39064142295050175
66.009497869018218807469 267.09710988171264034 66.009497869018218807469 43.08779546035528085
68.009497869018218807469 267.85022667646171612 68.009497869018218807469 42.66587804677786266
70.009497869018218807469 268.56190863462256857 70.009497869018218807469 42.38909083282766943
72.009497869018218807469 269.24188907793183034 72.009497869018218807469 42.17951127538188416
74.009497869018190385759 269.89628757973144957 74.009497869018190385759 41.90110887264501116
76.009497869018190385759 270.52247999741064177 76.009497869018190385759 41.62803302163141694
78.009497869018190385759 271.11950271424075254 78.009497869018190385759 41.56127394264954233
80.009497869018190385759 271.69353473818352995 80.009497869018190385759 41.36079946292789344
82.009497869018190385759 272.25910370460178456 82.009497869018190385759 41.18275298028638076
84.009497869018190385759 272.80594625346282101 84.009497869018190385759 41.15492670565034672
86.009497869018190385759 273.33570010444458376 86.009497869018190385759 41.13007044632221465
88.009497869018218807469 273.84734945707771203 88.009497869018218807469 41.07272630424656512
91.009497869018190385759 274.58227473182529366 91.009497869018190385759 40.90908981932754074
94.009497869018218807469 275.27866542600941102 94.009497869018218807469 40.64676201759159113
97.009497869018190385759 275.93857548800934865 97.009497869018190385759 39.83866882305506607
99.504748934509109403734 276.44634721964729351 99.504748934509109403734 41.25049360846371371
nan nan nan nan

