Time Pressure difference Time.1 Pressure.1 difference.1
(hr) (psi) (hr) (psi)
0.000200000000006639311 0.23662908136786498 0.000200000000006639311 0.19020217584708191
0.000399999999999067768 0.46971377098036921 0.000399999999999067768 0.48234001635034424
0.000600000000005707079 0.69992951301514383 0.000600000000005707079 0.69857198553429634
0.000799999999998135536 0.92758999051816604 0.000799999999998135536 0.91462289659147922
0.001007140329434719206 1.16090328288640321 0.001007140329434719206 1.13723048751860967
0.001267914553963578328 1.45129852991402020 0.001267914553963578328 1.41379394392563884
0.001596209851982166583 1.81197092066505783 0.001596209851982166583 1.75349941532550480
0.002009509145224797066 2.25880153108273696 0.002009509145224797066 2.16883079439545989
0.002529822128138903281 2.81073367541655816 0.002529822128138903281 2.67383785373032046
0.003184857364431081805 3.49011719588428360 0.003184857364431081805 3.28388844636356669
0.004009497869020606231 4.32297047239013121 0.004009497869020606231 4.01515172916941943
0.005047658755842121536 5.33908640877795460 0.005047658755842121536 4.88369270491965235
0.006354625877790454069 6.57187702418898478 0.006354625877790454069 5.90407446003734027
0.008000000000009777068 8.05783515884174939 0.008000000000009777068 7.08739083518246105
0.010071403294347192059 9.83547232351178735 0.010071403294347192059 8.43864761264770635
0.012679145539706837553 11.94357348491884174 0.012679145539706837553 9.95360496268000716
0.015962098519750611558 14.41867978236444436 0.015962098519750611558 11.61540125967494497
0.020095091452091651263 17.29178749792625780 0.020095091452091651263 13.39157686240341327
0.025298221281360611101 20.58445933509829473 0.025298221281360611101 15.23223969073692885
0.031848573644296607199 24.30467823219480650 0.031848573644296607199 17.07136154457944244
0.040094978690177640601 28.44355582556769946 0.040094978690177640601 18.83095860550086087
0.050476587558421215363 32.97311250585620712 0.050476587558421215363 20.43062166490978626
0.063546258777961384112 37.84737575728988901 0.063546258777961384112 21.79956689184936991
0.079999999999998294697 43.00571044680442157 0.079999999999998294697 22.88946689155796932
0.100714032943542974863 48.37982421212652895 0.100714032943542974863 23.68563821277840731
0.126791455396897845276 53.90224372814566323 0.126791455396897845276 24.20905799262109070
0.159620985197506115583 59.51423843145448700 0.159620985197506115583 24.51188120972630458
0.200950914520760193227 65.17221632985967972 0.200950914520760193227 24.66554586883123079
0.252982212813478213320 70.85015095312375877 0.252982212813478213320 24.74487014914575767
0.318485736442795541734 76.53863356330919032 0.318485736442795541734 24.81514976084325141
0.400949786901833249431 82.24133750900544726 0.400949786901833249431 24.92418933832028571
0.504765875584155310207 87.97037923091721723 0.504765875584155310207 25.09889832885314220
0.635462587779443310865 93.74119435199632733 0.635462587779443310865 25.35192657925345472
0.799999999999997157829 99.57091203105056820 0.799999999999997157829 25.68280355581030605
1.007140329435344483500 105.47372879231468801 1.007140329435344483500 26.08403798890741498
1.267914553968893187630 111.46202456086324162 1.267914553968893187630 26.55026260633272273
1.596209851975103788391 117.54585910466435905 1.596209851975103788391 27.07596889605735058
2.009509145207672986544 123.73295553444617667 2.009509145207672986544 27.65871209969992606
2.529822128134711078928 130.02953129899233886 2.529822128134711078928 28.29961555667490103
3.184857364427998049905 136.44034920639643360 3.184857364427998049905 29.00150441280575819
4.009497869018190385759 142.96850262072382520 4.009497869018190385759 29.76263730892187098
5.009497869018204596614 149.39185245755834330 5.009497869018204596614 30.54141384486349153
6.009497869018204596614 154.71684247860747519 6.009497869018204596614 31.20818779297805889
7.009497869018204596614 159.26915594687557132 7.009497869018204596614 31.78938452298273276
8.009497869018204596614 163.24419562008640128 8.009497869018204596614 32.30332082749902156
9.009497869018204596614 166.77186732915021139 9.009497869018204596614 32.76023489168321134
10.009497869018190385759 169.94047101906798503 10.009497869018190385759 33.16479275751098754
11.009497869018190385759 172.81380598006683158 11.009497869018190385759 33.53681098425251150
12.009497869018190385759 175.44093747705363739 12.009497869018190385759 33.85924187421505849
13.009497869018190385759 177.86096249757230225 13.009497869018190385759 34.16647521263396214
14.009497869018190385759 180.09689794275215036 14.009497869018190385759 34.46690808888643431
15.009497869018190385759 182.18000912481821274 15.009497869018190385759 34.71613262348969187
16.009497869018204596614 184.12833542110163876 16.009497869018204596614 34.93903383481705305
17.009497869018204596614 185.95102827211056251 17.009497869018204596614 35.18640630674694592
18.009497869018204596614 187.66167806648178384 18.009497869018204596614 35.36467099364530497
19.009497869018204596614 189.28155036286165114 19.009497869018204596614 35.53748402405444295
20.009497869018204596614 190.81419860124648835 20.009497869018204596614 35.70306157638076883
21.009497869018204596614 192.26409891154190746 21.009497869018204596614 35.90382086895523628
22.009497869018190385759 193.63426094342648298 22.009497869018190385759 36.08532422306095810
23.009497869018190385759 194.94318616986606685 23.009497869018190385759 36.20096674013163351
24.009497869018190385759 196.19720261116370352 24.009497869018190385759 36.32010698785849456
25.009497869018190385759 197.39532359948714202 25.009497869018190385759 36.48116468420946035
26.009497869018190385759 198.53959754446532315 26.009497869018190385759 36.58282672097289634
27.009497869018204596614 199.62996398592275682 27.009497869018204596614 36.70829782075011849
28.009497869018190385759 200.67273725620862024 28.009497869018190385759 36.79543228072563466
29.009497869018190385759 201.67729055740477406 29.009497869018190385759 36.76101913148217193
30.009497869018190385759 202.64577063837859328 30.009497869018190385759 36.75558610831794937
31.009497869018190385759 203.57679074077759651 31.009497869018190385759 36.77141177410521067
32.009497869018190385759 204.47089291480864404 32.009497869018190385759 36.81291665110131817
33.009497869018218807469 205.32399644351352208 33.009497869018218807469 36.79420487362224179
34.009497869018190385759 206.14044664121070127 34.009497869018190385759 36.82482397982688127
35.009497869018218807469 206.92637564432706654 35.009497869018218807469 36.83547694388703775
36.009497869018190385759 207.68690906829183973 36.009497869018190385759 36.81183359102166008
37.009497869018218807469 208.42691703087541555 37.009497869018218807469 36.78520679073246669
38.009497869018190385759 209.14369279527588219 38.009497869018190385759 36.80594613988412789
39.009497869018190385759 209.83730145195616501 39.009497869018190385759 36.88697732480429892
40.009497869018190385759 210.50805290206596965 40.009497869018190385759 36.98199274073944309
41.009497869018190385759 211.15717875135223380 41.009497869018190385759 37.05189089959079496
42.009497869018190385759 211.78474991596652899 42.009497869018190385759 37.14291698432258215
43.009497869018190385759 212.39246264426537891 43.009497869018190385759 37.19661699080063499
44.009497869018218807469 212.98517438840715954 44.009497869018218807469 37.22644042868694925
46.009497869018218807469 214.12832070712966015 46.009497869018218807469 37.30436569060617558
48.009497869018218807469 215.21856465912111389 48.009497869018218807469 37.36677626420889453
50.009497869018218807469 216.25040860074767579 50.009497869018218807469 37.50269635847526928
52.009497869018190385759 217.22618375150659631 52.009497869018190385759 37.54499756745124017
54.009497869018190385759 218.14689729766934079 54.009497869018190385759 37.53325523885386161
56.009497869018190385759 219.02535609297143537 56.009497869018190385759 37.42691923632286688
58.009497869018190385759 219.86760419233243624 58.009497869018190385759 37.01633624127334343
60.009497869018190385759 220.67308212393487565 60.009497869018190385759 36.73752544158774214
62.009497869018190385759 221.43679358782205213 62.009497869018190385759 36.46545406109279241
64.009497869018190385759 222.15784655852803553 64.009497869018190385759 36.20091304763602835
66.009497869018218807469 222.83973993038233630 66.009497869018218807469 35.94824795674990270
68.009497869018218807469 223.46806702367587150 68.009497869018218807469 35.59624127739897403
70.009497869018218807469 224.06182493644382703 70.009497869018218807469 35.36531706110912410
72.009497869018218807469 224.62913420164659328 72.009497869018218807469 35.19046434893779463
74.009497869018190385759 225.17510039355505569 74.009497869018190385759 34.95819257688697235
76.009497869018190385759 225.69753418388620503 76.009497869018190385759 34.73036475932621414
78.009497869018190385759 226.19563162496248765 78.009497869018190385759 34.67466750447795931
80.009497869018190385759 226.67454787749613843 80.009497869018190385759 34.50741117982647665
82.009497869018190385759 227.14640338145554210 82.009497869018190385759 34.35886658529706494
84.009497869018190385759 227.60263539169716296 84.009497869018190385759 34.33565105965596587
86.009497869018190385759 228.04461026155695436 86.009497869018190385759 34.31491342469324479
88.009497869018218807469 228.47148050634100969 88.009497869018218807469 34.26707107360105908
91.009497869018190385759 229.08463037219146941 91.009497869018190385759 34.13054877368315232
94.009497869018218807469 229.66563074786253651 94.009497869018218807469 33.91168807863019197
97.009497869018190385759 230.21619524726361306 97.009497869018190385759 33.23749404714187250
99.504748934509109403734 230.63983038383364033 99.504748934509109403734 34.41538274892175764
nan nan nan nan

