Time Pressure difference Time.1 Pressure.1 difference.1
(hr) (psi) (hr) (psi)
0.000200000000006639311 0.53014808125274282 0.000200000000006639311 0.42613240093962951
0.000399999999999067768 1.05235524299783068 0.000399999999999067768 1.08064331189293172
0.000600000000005707079 1.56813476260884133 0.000600000000005707079 1.56509333344443391
0.000799999999998135536 2.07818942126543815 0.000799999999998135536 2.04913770908822723
0.001007140329434719206 2.60090874876640221 0.001007140329434719206 2.54787178910963741
0.001267914553963578328 3.25151552172374592 0.001267914553963578328 3.16748956774977675
0.001596209851982166583 4.05957248079314414 0.001596209851982166583 3.92857186081637400
0.002009509145224797066 5.06065987625853619 0.002009509145224797066 4.85908780765254544
0.002529822128138903281 6.29721865258831670 0.002529822128138903281 5.99051477334005522
0.003184857364431081805 7.81932180123203580 0.003184857364431081805 7.35728317425705125
0.004009497869020606231 9.68526137194025871 0.004009497869020606231 8.99561868242486540
0.005047658755842121536 11.96178592628649717 0.005047658755842121536 10.94151362112660841
0.006354625877790454069 14.72375235732932808 0.006354625877790454069 13.22759539304533050
0.008000000000009777068 18.05291988548865945 0.008000000000009777068 15.87871883979903487
0.010071403294347192059 22.03557039727553502 0.010071403294347192059 18.90609900673335986
0.012679145539706837553 26.75859843485301681 0.012679145539706837553 22.30023690245032952
0.015962098519750611558 32.30387142878166884 0.015962098519750611558 26.02335543543898666
0.020095091452091651263 38.74083401103338531 0.020095091452091651263 30.00273143737071635
0.025298221281360611101 46.11779565319931606 0.025298221281360611101 34.12658578795765152
0.031848573644296607199 54.45264147491727869 0.031848573644296607199 38.24698771137484954
0.040094978690177640601 63.72545782522658442 0.040094978690177640601 42.18922084786429849
0.050476587558421215363 73.87355868036775064 0.050476587558421215363 45.77313494960624496
0.063546258777961384112 84.79394638305713272 0.063546258777961384112 48.84014463923046634
0.079999999999998294697 96.35077288256182726 0.079999999999998294697 51.28197634589468379
0.100714032943542974863 108.39103473309184267 0.100714032943542974863 53.06573299936067656
0.126791455396897845276 120.76356347455632090 0.126791455396897845276 54.23841215768418778
0.159620985197506115583 133.33677808858968206 0.159620985197506115583 54.91686277997914090
0.200950914520760193227 146.01301428606191735 0.200950914520760193227 55.26113586640586561
0.252982212813478213320 158.73396189149329416 0.252982212813478213320 55.43885542125687493
0.318485736442795541734 171.47854139793662398 0.318485736442795541734 55.59631113666275581
0.400949786901833249431 184.25498264212720301 0.400949786901833249431 55.84060538167227605
0.504765875584155310207 197.09043151735110655 0.504765875584155310207 56.23202656952115319
0.635462587779443310865 210.01947027293951464 0.635462587779443310865 56.79891564620199063
0.799999999999997157829 223.08047538663942078 0.799999999999997157829 57.54021841946350690
1.007140329435344483500 236.30525300856567128 1.007140329435344483500 58.43915131312706990
1.267914553968893187630 249.72153934716047274 1.267914553968893187630 59.48368939328202032
1.596209851975103788391 263.35187248884739120 1.596209851975103788391 60.66149128977308891
2.009509145207672986544 277.21355543083240036 2.009509145207672986544 61.96707972162735700
2.529822128134711078928 291.32051785802110544 2.529822128134711078928 63.40297143882216346
3.184857364427998049905 305.68343045196138519 3.184857364427998049905 64.97549594924774397
4.009497869018190385759 320.30922364155196647 4.009497869018190385759 66.68075188026745082
5.009497869018204596614 334.70021299724743358 5.009497869018204596614 68.42553694162795352
6.009497869018204596614 346.63041712106132763 6.009497869018204596614 69.91938937590555270
7.009497869018204596614 356.82950269631010087 7.009497869018204596614 71.22151306020174388
8.009497869018204596614 365.73525360179638710 8.009497869018204596614 72.37294526857796484
9.009497869018204596614 373.63871321478603704 9.009497869018204596614 73.39662381655854517
10.009497869018190385759 380.73771033191883362 10.009497869018190385759 74.30300258912741640
11.009497869018190385759 387.17518203896503337 11.009497869018190385759 75.13647896471904630
12.009497869018190385759 393.06105504440938603 12.009497869018190385759 75.85885897254453880
13.009497869018190385759 398.48292294752263842 13.009497869018190385759 76.54719011053532540
14.009497869018190385759 403.49235323062589487 14.009497869018190385759 77.22028536987447467
15.009497869018190385759 408.15939326570770618 15.009497869018190385759 77.77865253276611668
16.009497869018204596614 412.52445880058650118 16.009497869018204596614 78.27804444525213512
17.009497869018204596614 416.60805288838707838 17.009497869018204596614 78.83226221337380935
18.009497869018204596614 420.44062368204799895 18.009497869018204596614 79.23164964778372621
19.009497869018204596614 424.06981492446004722 19.009497869018204596614 79.61882309221954301
20.009497869018204596614 427.50358780697388283 20.009497869018204596614 79.98978604046283181
21.009497869018204596614 430.75197073213047361 21.009497869018204596614 80.43957079699727331
22.009497869018190385759 433.82170657360012456 22.009497869018190385759 80.84621420009824533
23.009497869018190385759 436.75424636663370848 23.009497869018190385759 81.10530179060850742
24.009497869018190385759 439.56376752257233420 24.009497869018190385759 81.37222576025439480
25.009497869018190385759 442.24805949292760943 25.009497869018190385759 81.73306234127764469
26.009497869018190385759 444.81171157174634345 26.009497869018190385759 81.96082781040269083
27.009497869018204596614 447.25458830295588086 27.009497869018204596614 82.24193553568755988
28.009497869018190385759 449.59083643115724271 28.009497869018190385759 82.43715315855953918
29.009497869018190385759 451.84145584812290508 29.009497869018190385759 82.36005331548095398
30.009497869018190385759 454.01125616891096115 30.009497869018190385759 82.34788107194579254
31.009497869018190385759 456.09713047498252081 31.009497869018190385759 82.38333718031238107
32.009497869018190385759 458.10029318544241050 32.009497869018190385759 82.47632545873919696
33.009497869018218807469 460.01160178808083856 33.009497869018218807469 82.43440325344634800
34.009497869018190385759 461.84079160382742657 34.009497869018190385759 82.50300285375848830
35.009497869018218807469 463.60160118223802783 35.009497869018218807469 82.52686994745423021
36.009497869018190385759 465.30551404498834245 36.009497869018190385759 82.47389895131333049
37.009497869018218807469 466.96344129217038699 37.009497869018218807469 82.41424378550863139
38.009497869018190385759 468.56931870161116649 38.009497869018190385759 82.46070859911321804
39.009497869018190385759 470.12329210316306671 39.009497869018190385759 82.64225233396922476
40.009497869018190385759 471.62605580497705660 40.009497869018190385759 82.85512659336396268
41.009497869018190385759 473.08036911888319764 41.009497869018190385759 83.01172769490203507
42.009497869018190385759 474.48639092671248818 42.009497869018190385759 83.21566418438820278
43.009497869018190385759 475.84792153401622272 43.009497869018190385759 83.33597465186343811
44.009497869018218807469 477.17584366461949230 44.009497869018218807469 83.40279162245890632
46.009497869018218807469 479.73696938914417842 46.009497869018218807469 83.57737679114902107
48.009497869018218807469 482.17957169273472573 48.009497869018218807469 83.71720257103245899
50.009497869018218807469 484.49133355498520359 50.009497869018218807469 84.02172041289058768
52.009497869018190385759 486.67747788229519301 52.009497869018190385759 84.11649280791340288
54.009497869018190385759 488.74026119303618998 54.009497869018190385759 84.09018508217083365
56.009497869018190385759 490.70837619435764054 56.009497869018190385759 83.85194797545506162
58.009497869018190385759 492.59536409641032151 58.009497869018190385759 82.93207039421170634
60.009497869018190385759 494.39997144839770726 60.009497869018190385759 82.30741762697184072
62.009497869018190385759 496.11100444937142129 62.009497869018190385759 81.69786397659466104
64.009497869018190385759 497.72646458931535562 64.009497869018190385759 81.10518149696852674
66.009497869018218807469 499.25419085448032774 66.009497869018218807469 80.53910604944316276
68.009497869018218807469 500.66190625861872832 68.009497869018218807469 79.75046390720397937
70.009497869018218807469 501.99217224436716833 70.009497869018218807469 79.23309710903542680
72.009497869018218807469 503.26318220090166733 72.009497869018218807469 78.84135392462368941
74.009497869018190385759 504.48637474932365876 74.009497869018190385759 78.32096803811262475
76.009497869018190385759 505.65684487888097465 76.009497869018190385759 77.81053846775871818
78.009497869018190385759 506.77279141063024781 78.009497869018190385759 77.68575332884783791
80.009497869018190385759 507.84576406003498050 80.009497869018190385759 77.31102922867044924
82.009497869018190385759 508.90291768040384568 82.009497869018190385759 76.97822722768647452
84.009497869018190385759 509.92506814237373192 84.009497869018190385759 76.92621474341038379
86.009497869018190385759 510.91527664871472325 86.009497869018190385759 76.87975377030576851
88.009497869018218807469 511.87164447936328315 88.009497869018218807469 76.77256690008877626
91.009497869018190385759 513.24535654815031194 91.009497869018190385759 76.46669986577794020
94.009497869018218807469 514.54704031663970909 94.009497869018218807469 75.97636039916103812
97.009497869018190385759 515.78053499648262914 97.009497869018190385759 74.46588387565233802
99.504748934509109403734 516.72965483207326542 99.504748934509109403734 77.10484706465746285
nan nan nan nan

