Time Pressure difference Time.1 Pressure.1 difference.1
(hr) (psi) (hr) (psi)
0.000200000000006639311 0.32155171335702903 0.000200000000006639311 0.25846288703958864
0.000399999999999067768 0.63828700586182563 0.000399999999999067768 0.65544462152137373
0.000600000000005707079 0.95112372848747750 0.000600000000005707079 0.94927900473301596
0.000799999999998135536 1.26048814042538249 0.000799999999998135536 1.24286735076890920
0.001007140329434719206 1.57753407778988586 0.001007140329434719206 1.54536547084410358
0.001267914553963578328 1.97214782810615996 0.001267914553963578328 1.92118340812194854
0.001596209851982166583 2.46226013609537508 0.001596209851982166583 2.38280408354336837
0.002009509145224797066 3.06945155791730828 0.002009509145224797066 2.94719167182658293
0.002529822128138903281 3.81946387948591504 0.002529822128138903281 3.63343819844886706
0.003184857364431081805 4.74266796653265033 0.003184857364431081805 4.46242680864735597
0.004009497869020606231 5.87441980568693811 0.004009497869020606231 5.45612952744276569
0.005047658755842121536 7.25520452760767398 0.005047658755842121536 6.63637684640649717
0.006354625877790454069 8.93042522450767962 0.006354625877790454069 8.02295832548628063
0.008000000000009777068 10.94967147020307507 0.008000000000009777068 9.63094921854062669
0.010071403294347192059 13.36527597968500736 0.010071403294347192059 11.46715180812754475
0.012679145539706837553 16.22994306313013624 0.012679145539706837553 13.52580465311917379
0.015962098519750611558 19.59332792725481909 0.015962098519750611558 15.78399474311229511
0.020095091452091651263 23.49755095537017269 0.020095091452091651263 18.19761315796979417
0.025298221281360611101 27.97191338218931733 0.025298221281360611101 20.69886229751708129
0.031848573644296607199 33.02726310298248791 0.031848573644296607199 23.19801742991631599
0.040094978690177640601 38.65152185355889713 0.040094978690177640601 25.58910751270152062
0.050476587558421215363 44.80666856196488368 0.050476587558421215363 27.76286567705511032
0.063546258777961384112 51.43023186530681556 0.063546258777961384112 29.62310483561412155
0.079999999999998294697 58.43981558973423063 0.079999999999998294697 31.10415361570595039
0.100714032943542974863 65.74261826734964131 0.100714032943542974863 32.18605889541316145
0.126791455396897845276 73.24695140758470302 0.126791455396897845276 32.89732619206350961
0.159620985197506115583 80.87300692776045707 0.159620985197506115583 33.30882812471519117
0.200950914520760193227 88.56154832280583378 0.200950914520760193227 33.51764072768006741
0.252982212813478213320 96.27720861225874671 0.252982212813478213320 33.62543330371723727
0.318485736442795541734 104.00720240310307929 0.318485736442795541734 33.72093521508316627
0.400949786901833249431 111.75652135370079066 0.400949786901833249431 33.86910746322268295
0.504765875584155310207 119.54163031378995186 0.504765875584155310207 34.10651689286664379
0.635462587779443310865 127.38350452013439451 0.635462587779443310865 34.45035319132002627
0.799999999999997157829 135.30542052999902580 0.799999999999997157829 34.89997695737288552
1.007140329435344483500 143.32666978746595987 1.007140329435344483500 35.44520841698220437
1.267914553968893187630 151.46407518723577823 1.267914553968893187630 36.07875406435456966
1.596209851975103788391 159.73130679727910319 1.596209851975103788391 36.79312846502566714
2.009509145207672986544 168.13885943705230375 2.009509145207672986544 37.58500947345983434
2.529822128134711078928 176.69518190455403328 2.529822128134711078928 38.45592357875683120
3.184857364427998049905 185.40674630834359959 3.184857364427998049905 39.40970982924824284
4.009497869018190385759 194.27775617450271284 4.009497869018190385759 40.44400191804713529
5.009497869018204596614 203.00635002943465679 5.009497869018204596614 41.50226968465770483
6.009497869018204596614 210.24239918695789697 6.009497869018204596614 42.40833881275764128
7.009497869018204596614 216.42846975359398698 7.009497869018204596614 43.19811834133542305
8.009497869018204596614 221.83009160917663394 8.009497869018204596614 43.89649868545163969
9.009497869018204596614 226.62379184100552720 9.009497869018204596614 44.51739236152073431
10.009497869018190385759 230.92955992138155352 10.009497869018190385759 45.06713998407416710
11.009497869018190385759 234.83409174991660961 11.009497869018190385759 45.57266997860097746
12.009497869018190385759 238.40406137996836833 12.009497869018190385759 46.01081648412499447
13.009497869018190385759 241.69259712213658986 13.009497869018190385759 46.42831126455486412
14.009497869018190385759 244.73097629851335455 14.009497869018190385759 46.83656499883522173
15.009497869018190385759 247.56168487344635309 15.009497869018190385759 47.17523248488146237
16.009497869018204596614 250.20923628651436843 16.009497869018204596614 47.47812960131933124
17.009497869018204596614 252.68606629311193501 17.009497869018204596614 47.81428034714741671
18.009497869018204596614 255.01064266873828501 18.009497869018204596614 48.05652155930894764
19.009497869018204596614 257.21186286242522101 19.009497869018204596614 48.29135459714715495
20.009497869018204596614 259.29455559054400737 20.009497869018204596614 48.51635545222473667
21.009497869018204596614 261.26480339895937277 21.009497869018204596614 48.78916424701233723
22.009497869018190385759 263.12669605552730445 22.009497869018190385759 49.03580643551837426
23.009497869018190385759 264.90537493466121077 23.009497869018190385759 49.19295131934264020
24.009497869018190385759 266.60943908834087779 24.009497869018190385759 49.35484921695056926
25.009497869018190385759 268.23754774843195037 25.009497869018190385759 49.57370810746233758
26.009497869018190385759 269.79248446808873041 26.009497869018190385759 49.71185512606072621
27.009497869018204596614 271.27416708888461017 27.009497869018204596614 49.88235592366741145
28.009497869018190385759 272.69117606244378749 28.009497869018190385759 50.00076163582927080
29.009497869018190385759 274.05624849264069098 29.009497869018190385759 49.95399812292001940
30.009497869018190385759 275.37230156434725359 30.009497869018190385759 49.94661526914286043
31.009497869018190385759 276.63745083241553857 31.009497869018190385759 49.96812052927189285
32.009497869018190385759 277.85243288075048440 32.009497869018190385759 50.02452088477182457
33.009497869018218807469 279.01170248421698261 33.009497869018218807469 49.99909373070617846
34.009497869018190385759 280.12116442533857708 34.009497869018190385759 50.04070157537451280
35.009497869018218807469 281.18915157243054637 35.009497869018218807469 50.05517772862698678
36.009497869018190385759 282.22262904750459711 36.009497869018190385759 50.02304913065660941
37.009497869018218807469 283.22821478063212908 37.009497869018218807469 49.98686637068174576
38.009497869018190385759 284.20223062772686262 38.009497869018190385759 50.01504876151501122
39.009497869018190385759 285.14476503924356621 39.009497869018190385759 50.12516082464696154
40.009497869018190385759 286.05623913521156965 40.009497869018190385759 50.25427584978529438
41.009497869018190385759 286.93832652622779733 41.009497869018190385759 50.34925941059376697
42.009497869018190385759 287.79112357918802445 42.009497869018190385759 50.47295339333032871
43.009497869018190385759 288.61693530056970758 43.009497869018190385759 50.54592552756879797
44.009497869018218807469 289.42236240933374347 44.009497869018218807469 50.58645215048051824
46.009497869018218807469 290.97576681456644110 46.009497869018218807469 50.69234362138121242
48.009497869018218807469 292.45728298626215746 48.009497869018218807469 50.77715241477863373
50.009497869018218807469 293.85944025885572728 50.009497869018218807469 50.96185219444375036
52.009497869018190385759 295.18540649159433542 52.009497869018190385759 51.01933467354001550
54.009497869018190385759 296.43655033481201144 54.009497869018190385759 51.00337819913939086
56.009497869018190385759 297.63027483017026498 56.009497869018190385759 50.85887979848752138
58.009497869018190385759 298.77479315334369403 58.009497869018190385759 50.30094471810662782
60.009497869018190385759 299.86934504646200139 60.009497869018190385759 49.92207289971852902
62.009497869018190385759 300.90714111237144834 62.009497869018190385759 49.55235917709474336
64.009497869018190385759 301.88696919103108485 64.009497869018190385759 49.19287835741481274
66.009497869018218807469 302.81358387752305816 66.009497869018218807469 48.84953555098418576
68.009497869018218807469 303.66740815063968739 68.009497869018218807469 48.37119894838188117
70.009497869018218807469 304.47425688227554019 70.009497869018218807469 48.05739949070578376
72.009497869018218807469 305.24516494300405611 72.009497869018218807469 47.81979475988062234
74.009497869018190385759 305.98707022120720467 74.009497869018190385759 47.50416412887079787
76.009497869018190385759 306.69699767148301817 76.009497869018190385759 47.19457232103562205
78.009497869018190385759 307.37385482137761983 78.009497869018190385759 47.11888615591081475
80.009497869018190385759 308.02464694154531344 80.009497869018190385759 46.89160404227290257
82.009497869018190385759 308.66584431626358764 82.009497869018190385759 46.68974901834793911
84.009497869018190385759 309.28581115944911062 84.009497869018190385759 46.65820178838266230
86.009497869018190385759 309.88640418817846012 86.009497869018190385759 46.63002172693506964
88.009497869018218807469 310.46647176819857350 88.009497869018218807469 46.56500947283767289
91.009497869018190385759 311.29967193433685679 91.009497869018190385759 46.37949136493529068
94.009497869018218807469 312.08918463995257753 94.009497869018218807469 46.08208484552535111
97.009497869018190385759 312.83733848931291277 97.009497869018190385759 45.16593267730079475
99.504748934509109403734 313.41300992925130231 99.504748934509109403734 46.76654798633967403
nan nan nan nan

