Time Pressure difference Time.1 Pressure.1 difference.1
(hr) (psi) (hr) (psi)
0.000200000000006639311 0.87561005021837146 0.000200000000006639311 0.70381432316934134
0.000399999999999067768 1.73810461596220245 0.000399999999999067768 1.78482612321974066
0.000600000000005707079 2.58998307603513123 0.000600000000005707079 2.58495975134990497
0.000799999999998135536 3.43240616700450296 0.000799999999998135536 3.38442340132456776
0.001007140329434719206 4.29574664259707450 0.001007140329434719206 4.20814905137548223
0.001267914553963578328 5.37031023961215848 0.001267914553963578328 5.23153020365515253
0.001596209851982166583 6.70492375521355832 0.001596209851982166583 6.48855881211040408
0.002009509145224797066 8.35835270386713169 0.002009509145224797066 8.02542962943546456
0.002529822128138903281 10.40069394875395403 0.002529822128138903281 9.89413170962229849
0.003184857364431081805 12.91464969348121805 0.003184857364431081805 12.15153146354741587
0.004009497869020606231 15.99649700933212237 0.004009497869020606231 14.85746040549799041
0.005047658755842121536 19.75648002133166514 0.005047658755842121536 18.07136464329153469
0.006354625877790454069 24.31823484212091202 0.006354625877790454069 21.84713267093956546
0.008000000000009777068 29.81679769578375883 0.008000000000009777068 26.22581556433370409
0.010071403294347192059 36.39467459083456191 0.010071403294347192059 31.22593646213192997
0.012679145539706837553 44.19538341806205750 0.012679145539706837553 36.83180651695528951
0.015962098519750611558 53.35413912498620448 0.015962098519750611558 42.98103183893655199
0.020095091452091651263 63.98563875539262824 0.020095091452091651263 49.55350044554852218
0.025298221281360611101 76.16967182534629899 0.025298221281360611101 56.36459425631574760
0.031848573644296607199 89.93577798812154356 0.031848573644296607199 63.16998592454135064
0.040094978690177640601 105.25106720122960269 0.040094978690177640601 69.68110814997181990
0.050476587558421215363 122.01200516104282201 0.050476587558421215363 75.60041884367313969
0.063546258777961384112 140.04847754091238698 0.063546258777961384112 80.66599316774923523
0.079999999999998294697 159.13611322127630388 0.079999999999998294697 84.69900292276851417
0.100714032943542974863 179.02220666647519920 0.100714032943542974863 87.64511422289430698
0.126791455396897845276 199.45708306373063579 0.126791455396897845276 89.58194978454216084
0.159620985197506115583 220.22341886482462314 0.159620985197506115583 90.70250120114751269
0.200950914520760193227 241.15990850979434867 0.200950914520760193227 91.27111398152881350
0.252982212813478213320 262.17024499030463858 0.252982212813478213320 91.56464145781463060
0.318485736442795541734 283.21961269768064540 0.318485736442795541734 91.82470050876493417
0.400949786901833249431 304.32160430161599152 0.400949786901833249431 92.22818493831408659
0.504765875584155310207 325.52105485447418687 0.504765875584155310207 92.87466907749838185
0.635462587779443310865 346.87508153944287415 0.635462587779443310865 93.81096176713299428
0.799999999999997157829 368.44706821245887340 0.799999999999997157829 95.03532186853848884
1.007140329435344483500 390.28954695971498268 1.007140329435344483500 96.52002907393615772
1.267914553968893187630 412.44832781754968209 1.267914553968893187630 98.24522260601166579
1.596209851975103788391 434.96063543259077733 1.596209851975103788391 100.19051905091603771
2.009509145207672986544 457.85504800551166227 2.009509145207672986544 102.34687195080599054
2.529822128134711078928 481.15457226317028017 2.529822128134711078928 104.71843805292246543
3.184857364427998049905 504.87683225502797768 3.184857364427998049905 107.31567138118367666
4.009497869018190385759 529.03327450595361370 4.009497869018190385759 110.13212829991297781
5.009497869018204596614 552.80190700322975772 5.009497869018204596614 113.01387283360637070
6.009497869018204596614 572.50622547833143017 6.009497869018204596614 115.48116876704773404
7.009497869018204596614 589.35137148286366937 7.009497869018204596614 117.63179917563645915
8.009497869018204596614 604.06040330498865387 8.009497869018204596614 119.53354257422985540
9.009497869018204596614 617.11401778243032368 9.009497869018204596614 121.22428381521800134
10.009497869018190385759 628.83895547822362460 10.009497869018190385759 122.72128887970964684
11.009497869018190385759 639.47129599592676641 11.009497869018190385759 124.09788594172881915
12.009497869018190385759 649.19259791160618533 12.009497869018190385759 125.29099257984807991
13.009497869018190385759 658.14753370181813352 13.009497869018190385759 126.42786298194171479
14.009497869018190385759 666.42127392056715962 14.009497869018190385759 127.53956930452051211
15.009497869018190385759 674.12951111692314043 15.009497869018190385759 128.46178692036954772
16.009497869018204596614 681.33899727250843625 16.009497869018204596614 129.28659906820803371
17.009497869018204596614 688.08359590585860133 17.009497869018204596614 130.20196340684756819
18.009497869018204596614 694.41359619025661232 18.009497869018204596614 130.86160486150282622
19.009497869018204596614 700.40768810229644714 19.009497869018204596614 131.50107328761609438
20.009497869018204596614 706.07902060809681188 20.009497869018204596614 132.11376792375043010
21.009497869018204596614 711.44415694793553939 21.009497869018204596614 132.85664725724899426
22.009497869018190385759 716.51423387428201295 22.009497869018190385759 133.52827290902695268
23.009497869018190385759 721.35771328361590804 23.009497869018190385759 133.95619051574843184
24.009497869018190385759 725.99801105594383444 24.009497869018190385759 134.39705094461922386
25.009497869018190385759 730.43147617649935910 25.009497869018190385759 134.99302053878201946
26.009497869018190385759 734.66568847464168357 26.009497869018190385759 135.36920549711922490
27.009497869018204596614 738.70042422665483173 27.009497869018204596614 135.83349228444816958
28.009497869018190385759 742.55904866234686779 28.009497869018190385759 136.15592014679663180
29.009497869018190385759 746.27624589534445931 29.009497869018190385759 136.02857950395141984
30.009497869018190385759 749.85995964445328354 30.009497869018190385759 136.00847542520438083
31.009497869018190385759 753.30505842057766586 31.009497869018190385759 136.06703590278655724
32.009497869018190385759 756.61354799835123686 32.009497869018190385759 136.22061840930174981
33.009497869018218807469 759.77032830317546086 33.009497869018218807469 136.15137831284604886
34.009497869018190385759 762.79147851207585518 34.009497869018190385759 136.26467967448138552
35.009497869018218807469 765.69968966646467834 35.009497869018218807469 136.30409935333810267
36.009497869018190385759 768.51392832935857768 36.009497869018190385759 136.21661070963415341
37.009497869018218807469 771.25221563341347064 37.009497869018218807469 136.11808227093337109
38.009497869018190385759 773.90453570934846539 38.009497869018190385759 136.19482508904857809
39.009497869018190385759 776.47112941455554846 39.009497869018190385759 136.49466870711557931
40.009497869018190385759 778.95314349126851994 40.009497869018190385759 136.84625885249226940
41.009497869018190385759 781.35513530988168895 41.009497869018190385759 137.10490639500150678
42.009497869018190385759 783.67736728486579523 42.009497869018190385759 137.44173462491488635
43.009497869018190385759 785.92611612616667571 43.009497869018190385759 137.64044335968736732
44.009497869018218807469 788.11935609926263169 44.009497869018218807469 137.75080047130850858
46.009497869018218807469 792.34939578735793475 46.009497869018218807469 138.03915109206883471
48.009497869018218807469 796.38367828566777007 48.009497869018218807469 138.27009196024334869
50.009497869018218807469 800.20186039719169457 50.009497869018218807469 138.77304366794680845
52.009497869018190385759 803.81256844634151548 52.009497869018190385759 138.92957288025510820
54.009497869018190385759 807.21952937325738731 54.009497869018190385759 138.88612217304111596
56.009497869018190385759 810.47013299907905548 56.009497869018190385759 138.49264191280448699
58.009497869018190385759 813.58674443295137735 58.009497869018190385759 136.97334177084420048
60.009497869018190385759 816.56729343421204703 60.009497869018190385759 135.94164466538737202
62.009497869018190385759 819.39329195214986612 62.009497869018190385759 134.93488575916566674
64.009497869018190385759 822.06143918173086149 64.009497869018190385759 133.95599183480646843
66.009497869018218807469 824.58468225110118510 66.009497869018218807469 133.02104296191077992
68.009497869018218807469 826.90971142558817064 68.009497869018218807469 131.71849559790143758
70.009497869018218807469 829.10682258711960912 70.009497869018218807469 130.86399553622959502
72.009497869018218807469 831.20606453710354344 72.009497869018218807469 130.21697957690568614
74.009497869018190385759 833.22632967928734615 74.009497869018190385759 129.35749308938662239
76.009497869018190385759 835.15951673619224493 76.009497869018190385759 128.51445078189698279
78.009497869018190385759 837.00265082128976246 78.009497869018190385759 128.30835153224944634
80.009497869018190385759 838.77480782543875648 80.009497869018190385759 127.68944485357391727
82.009497869018190385759 840.52083759967172227 82.009497869018190385759 127.13977809611668590
84.009497869018190385759 842.20905500342291816 84.009497869018190385759 127.05387256221125369
86.009497869018190385759 843.84451602011665727 86.009497869018190385759 126.97713608719242018
88.009497869018218807469 845.42408466109452547 88.009497869018218807469 126.80010271834258617
91.009497869018190385759 847.69295280580945473 91.009497869018190385759 126.29492263990073297
94.009497869018218807469 849.84285663494767959 94.009497869018218807469 125.48506181012287186
97.009497869018190385759 851.88013711705218611 97.009497869018190385759 122.99030898280371105
99.504748934509109403734 853.44773473042278056 99.504748934509109403734 127.34890759357111278
nan nan nan nan

