Time Pressure difference Time.1 Pressure.1 difference.1
(hr) (psi) (hr) (psi)
0.000200000000006639311 0.36937222457422830 0.000200000000006639311 0.29690095741983519
0.000399999999999067768 0.73321174006691769 0.000399999999999067768 0.75292100113224469
0.000600000000005707079 1.09257289836510241 0.000600000000005707079 1.09045383107792593
0.000799999999998135536 1.44794535105274713 0.000799999999998135536 1.42770403370377252
0.001007140329434719206 1.81214170987145873 0.001007140329434719206 1.77518905368758584
0.001267914553963578328 2.26544160767066538 0.001267914553963578328 2.20689786368880236
0.001596209851982166583 2.82844241274545594 0.001596209851982166583 2.73716981904469003
0.002009509145224797066 3.52593409729988227 0.002009509145224797066 3.38549197173925442
0.002529822128138903281 4.38748671284535874 0.002529822128138903281 4.17379567411562213
0.003184857364431081805 5.44798781796571152 0.003184857364431081805 5.12606976993337327
0.004009497869020606231 6.74805146909678921 0.004009497869020606231 6.26755391870348344
0.005047658755842121536 8.33418366248266018 0.005047658755842121536 7.62332519792335983
0.006354625877790454069 10.25853974507548827 0.006354625877790454069 9.21611623030219107
0.008000000000009777068 12.57808415038712191 0.008000000000009777068 11.06324423052872064
0.010071403294347192059 15.35293240743303222 0.010071403294347192059 13.17252310266959014
0.012679145539706837553 18.64362690328794869 0.012679145539706837553 15.53733457589074085
0.015962098519750611558 22.50720746515425574 0.015962098519750611558 18.13135806388283910
0.020095091452091651263 26.99205853334830252 0.020095091452091651263 20.90392485838581749
0.025298221281360611101 32.13183896210465207 0.025298221281360611101 23.77715463919911087
0.031848573644296607199 37.93900992342604184 0.031848573644296607199 26.64797899641668977
0.040094978690177640601 44.39969689844714651 0.040094978690177640601 29.39466709151354351
0.050476587558421215363 51.47022439938530169 0.050476587558421215363 31.89170211107868624
0.063546258777961384112 59.07883045040372849 0.063546258777961384112 34.02859222142340201
0.079999999999998294697 67.13086508769471550 0.079999999999998294697 35.72989953804171392
0.100714032943542974863 75.51972559941701491 0.100714032943542974863 36.97270355165409939
0.126791455396897845276 84.14008777076396939 0.126791455396897845276 37.78974906165243652
0.159620985197506115583 92.90027462470945352 0.159620985197506115583 38.26244871762154531
0.200950914520760193227 101.73224012465901467 0.200950914520760193227 38.50231550256582835
0.252982212813478213320 110.59535758536389949 0.252982212813478213320 38.62613876939825985
0.318485736442795541734 119.47494019638506302 0.318485736442795541734 38.73584352912117623
0.400949786901833249431 128.37672196527680057 0.400949786901833249431 38.90605165006093813
0.504765875584155310207 137.31961636045613773 0.504765875584155310207 39.17876812308783485
0.635462587779443310865 146.32771801287233870 0.635462587779443310865 39.57373905054198104
0.799999999999997157829 155.42776512163990787 0.799999999999997157829 40.09022994077706414
1.007140329435344483500 164.64191811483266292 1.007140329435344483500 40.71654710463597127
1.267914553968893187630 173.98950175354261205 1.267914553968893187630 41.44431236110473549
1.596209851975103788391 183.48621909020778276 1.596209851975103788391 42.26492705726025179
2.009509145207672986544 193.14412571230624849 2.009509145207672986544 43.17457498489744694
2.529822128134711078928 202.97292690574411722 2.529822128134711078928 44.17500964944374431
3.184857364427998049905 212.98005729778958539 3.184857364427998049905 45.27064103462362255
4.009497869018190385759 223.17034555430058163 4.009497869018190385759 46.45875092124389028
5.009497869018204596614 233.19703798253007676 5.009497869018204596614 47.67440209929910822
6.009497869018204596614 241.50921752758242178 6.009497869018204596614 48.71521996952672851
7.009497869018204596614 248.61526781951306475 7.009497869018204596614 49.62245388953402880
8.009497869018204596614 254.82020779720807013 8.009497869018204596614 50.42469592585213434
9.009497869018204596614 260.32681729428327344 9.009497869018204596614 51.13792763579818512
10.009497869018190385759 265.27293037122808528 10.009497869018190385759 51.76943259709032219
11.009497869018190385759 269.75813616400671435 11.009497869018190385759 52.35014397541856113
12.009497869018190385759 273.85902435442517344 12.009497869018190385759 52.85345073048204512
13.009497869018190385759 277.63662438645434349 13.009497869018190385759 53.33303447825790045
14.009497869018190385759 281.12686508136920338 14.009497869018190385759 53.80200287045686736
15.009497869018190385759 284.37855082898454384 15.009497869018190385759 54.19103629032537128
16.009497869018204596614 287.41984065732935960 16.009497869018204596614 54.53897964459246595
17.009497869018204596614 290.26501974183111088 17.009497869018204596614 54.92512203980010810
18.009497869018204596614 292.93530234767888487 18.009497869018204596614 55.20338886812925239
19.009497869018204596614 295.46388349324746514 19.009497869018204596614 55.47314579364596199
20.009497869018204596614 297.85631001170185073 20.009497869018204596614 55.73160831435045992
21.009497869018204596614 300.11956903265081564 21.009497869018204596614 56.04498867349109048
22.009497869018190385759 302.25835854583647233 22.009497869018190385759 56.32831098233906175
23.009497869018190385759 304.30155889930307467 23.009497869018190385759 56.50882613093718732
24.009497869018190385759 306.25904797840189531 24.009497869018190385759 56.69480115177911017
25.009497869018190385759 308.12928561871160582 25.009497869018190385759 56.94620828754646880
26.009497869018190385759 309.91546933770194983 26.009497869018190385759 57.10490024737232062
27.009497869018204596614 311.61750475851351894 27.009497869018204596614 57.30075757385384350
28.009497869018190385759 313.24524839993540581 28.009497869018190385759 57.43677234064490733
29.009497869018190385759 314.81333160180258801 29.009497869018190385759 57.38305425402094073
30.009497869018190385759 316.32510538673733436 30.009497869018190385759 57.37457343737435878
31.009497869018190385759 317.77840505877475152 31.009497869018190385759 57.39927691567643109
32.009497869018190385759 319.17407674506716830 32.009497869018190385759 57.46406501635328112
33.009497869018218807469 320.50575054597237568 33.009497869018218807469 57.43485638809325877
34.009497869018190385759 321.78020939115810961 34.009497869018190385759 57.48265206607123901
35.009497869018218807469 323.00702539602275465 35.009497869018218807469 57.49928108314074393
36.009497869018190385759 324.19419952123604389 36.009497869018190385759 57.46237438598502933
37.009497869018218807469 325.34933390185432245 37.009497869018218807469 57.42081060016774785
38.009497869018190385759 326.46820338774773518 38.009497869018190385759 57.45318421835570888
39.009497869018190385759 327.55090958354134045 39.009497869018190385759 57.57967192164574044
40.009497869018190385759 328.59793623737130019 40.009497869018190385759 57.72798866847131194
41.009497869018190385759 329.61120585576935582 41.009497869018190385759 57.83709798960514803
42.009497869018190385759 330.59082913711853280 42.009497869018190385759 57.97918748772304554
43.009497869018190385759 331.53945388373136893 43.009497869018190385759 58.06301188807903202
44.009497869018218807469 332.46466245995264899 44.009497869018218807469 58.10956554721865075
46.009497869018218807469 334.24908598186090103 46.009497869018218807469 58.23120498045841487
48.009497869018218807469 335.95093019960370384 48.009497869018218807469 58.32862636364315279
50.009497869018218807469 337.56161342555736837 50.009497869018218807469 58.54079431566871961
52.009497869018190385759 339.08477463649808215 52.009497869018190385759 58.60682547114339513
54.009497869018190385759 340.52198602563026952 54.009497869018190385759 58.58849598260114533
56.009497869018190385759 341.89323877927250805 56.009497869018190385759 58.42250807621130804
58.009497869018190385759 343.20796751973841765 58.009497869018190385759 57.78159803515838178
60.009497869018190385759 344.46529892516662130 60.009497869018190385759 57.34638117711257621
62.009497869018190385759 345.65743389318566869 62.009497869018190385759 56.92168438804728936
64.009497869018190385759 346.78297999379981320 64.009497869018190385759 56.50874231826111327
66.009497869018218807469 347.84739891571877024 66.009497869018218807469 56.11433827395106988
68.009497869018218807469 348.82820218329891304 68.009497869018218807469 55.56486443301303524
70.009497869018218807469 349.75504380322934139 70.009497869018218807469 55.20439736368253847
72.009497869018218807469 350.64059972939958243 72.009497869018218807469 54.93145654468338535
74.009497869018190385759 351.49283963872011327 74.009497869018190385759 54.56888597367723293
76.009497869018190385759 352.30834604313946556 76.009497869018190385759 54.21325230724091426
78.009497869018190385759 353.08586399994146632 78.009497869018190385759 54.12631025089242343
80.009497869018190385759 353.83344058926229536 80.009497869018190385759 53.86522720753399796
82.009497869018190385759 354.56999552227205186 82.009497869018190385759 53.63335271851249786
84.009497869018190385759 355.28216256264926187 84.009497869018190385759 53.59711384921906330
86.009497869018190385759 355.97207455462552161 86.009497869018190385759 53.56474290683823369
88.009497869018218807469 356.63840859526396798 88.009497869018218807469 53.49006216366993982
91.009497869018190385759 357.59552058098182670 91.009497869018190385759 53.27695418331028776
94.009497869018218807469 358.50244799666342033 94.009497869018218807469 52.93531797639835901
97.009497869018190385759 359.36186575182614433 97.009497869018190385759 51.88291753700194420
99.504748934509109403734 360.02314986744767111 99.504748934509109403734 53.72157307148761873
nan nan nan nan

