Time Pressure difference Time.1 Pressure.1 difference.1
(hr) (psi) (hr) (psi)
0.000200000000006639311 0.57384613460639033 0.000200000000006639311 0.46125684456295818
0.000399999999999067768 1.13909681046110434 0.000399999999999067768 1.16971655533045160
0.000600000000005707079 1.69739003853149839 0.000600000000005707079 1.69409791613892069
0.000799999999998135536 2.24948652752837486 0.000799999999998135536 2.21804019521836082
0.001007140329434719206 2.81529158497887355 0.001007140329434719206 2.75788299412178528
0.001267914553963578328 3.51952535477406991 0.001267914553963578328 3.42857346680224673
0.001596209851982166583 4.39418731980097643 0.001596209851982166583 4.25238882601585821
0.002009509145224797066 5.47779047259088880 0.002009509145224797066 5.25960359895205620
0.002529822128138903281 6.81627400031332620 0.002529822128138903281 6.48428970800105464
0.003184857364431081805 8.46383821719673080 0.003184857364431081805 7.96371553543220312
0.004009497869020606231 10.48357996091822564 0.004009497869020606231 9.73709269512862718
0.005047658755842121536 12.94774961849984862 0.005047658755842121536 11.84338021820236442
0.006354625877790454069 15.93737424681370740 0.006354625877790454069 14.31789485779090221
0.008000000000009777068 19.54095216220856557 0.008000000000009777068 17.18754014385711670
0.010071403294347192059 23.85187713297631973 0.010071403294347192059 20.46445553450454113
0.012679145539706837553 28.96420608189377788 0.012679145539706837553 24.13835907325882957
0.015962098519750611558 34.96655445479321855 0.015962098519750611558 28.16835984924655634
0.020095091452091651263 41.93409093573754376 0.020095091452091651263 32.47574040499225134
0.025298221281360611101 49.91910695898402395 0.025298221281360611101 36.93950810018433373
0.031848573644296607199 58.94096184532259741 0.031848573644296607199 41.39953879800450665
0.040094978690177640601 68.97810053865894986 0.040094978690177640601 45.66671494574424628
0.050476587558421215363 79.96267004904503040 0.050476587558421215363 49.54603720828296787
0.063546258777961384112 91.78318302116292671 0.063546258777961384112 52.86584862971135834
0.079999999999998294697 104.29259397552571897 0.079999999999998294697 55.50895106802908430
0.100714032943542974863 117.32528798480859678 0.100714032943542974863 57.43973587489118415
0.126791455396897845276 130.71763635815113958 0.126791455396897845276 58.70907443506717982
0.159620985197506115583 144.32721236338790050 0.159620985197506115583 59.44344711487633504
0.200950914520760193227 158.04830162223811385 0.200950914520760193227 59.81609729862904601
0.252982212813478213320 171.81778767726177648 0.252982212813478213320 60.00846558817229237
0.318485736442795541734 185.61285351938394683 0.318485736442795541734 60.17889976845611244
0.400949786901833249431 199.44240733891217587 0.400949786901833249431 60.44333024205894844
0.504765875584155310207 213.33583255999437256 0.504765875584155310207 60.86701476265431410
0.635462587779443310865 227.33056191285524505 0.635462587779443310865 61.48063031066342887
0.799999999999997157829 241.46813509969055644 0.799999999999997157829 62.28303580085007951
1.007140329435344483500 255.78297992840077768 1.007140329435344483500 63.25606425184516723
1.267914553968893187630 270.30511879568229006 1.267914553968893187630 64.38669956100200409
1.596209851975103788391 285.05894751514426844 1.596209851975103788391 65.66158310681502996
2.009509145207672986544 300.06319530304722321 2.009509145207672986544 67.07478613725139382
2.529822128134711078928 315.33294001428106412 2.529822128134711078928 68.62903284824295724
3.184857364427998049905 330.87973187335165903 3.184857364427998049905 70.33117446450455645
4.009497869018190385759 346.71107255757408439 4.009497869018190385759 72.17698803836104560
5.009497869018204596614 362.28825543714492596 5.009497869018204596614 74.06558897569682642
6.009497869018204596614 375.20182008749407032 6.009497869018204596614 75.68257388122903251
7.009497869018204596614 386.24157679102927432 7.009497869018204596614 77.09202657838321215
8.009497869018204596614 395.88139425637677959 8.009497869018204596614 78.33836688480600685
9.009497869018204596614 404.43630543933295485 9.009497869018204596614 79.44642329132932446
10.009497869018190385759 412.12044539815786948 10.009497869018190385759 80.42751135619390368
11.009497869018190385759 419.08853296908188213 11.009497869018190385759 81.32968796181098980
12.009497869018190385759 425.45955569348200243 12.009497869018190385759 82.11161095628460771
13.009497869018190385759 431.32832717181298676 13.009497869018190385759 82.85667856443637902
14.009497869018190385759 436.75066539427001544 14.009497869018190385759 83.58525445945977594
15.009497869018190385759 441.80239146645811843 15.009497869018190385759 84.18964566532692118
16.009497869018204596614 446.52725244977949615 16.009497869018204596614 84.73020051927758800
17.009497869018204596614 450.94744138463050831 17.009497869018204596614 85.33010031183231092
18.009497869018204596614 455.09591614728680042 18.009497869018204596614 85.76240770584365691
19.009497869018204596614 459.02424756986658849 19.009497869018204596614 86.18149435798568447
20.009497869018204596614 462.74105305389394971 20.009497869018204596614 86.58303434550875011
21.009497869018204596614 466.25718760429674603 21.009497869018204596614 87.06989311774509588
22.009497869018190385759 469.57994988371029876 22.009497869018190385759 87.51005456184817888
23.009497869018190385759 472.75420757570304886 23.009497869018190385759 87.79049773913455113
24.009497869018190385759 475.79530668073152810 24.009497869018190385759 88.07942321794254781
25.009497869018190385759 478.70085444335552438 25.009497869018190385759 88.47000216100970249
26.009497869018190385759 481.47581843535840562 26.009497869018190385759 88.71654145573913297
27.009497869018204596614 484.12005203554787158 27.009497869018204596614 89.02081980223722724
28.009497869018190385759 486.64886804989970415 28.009497869018190385759 89.23212845778762414
29.009497869018190385759 489.08499730994333277 29.009497869018190385759 89.14867357321111285
30.009497869018190385759 491.43364586868125343 30.009497869018190385759 89.13549801877802281
31.009497869018190385759 493.69145071631072597 31.009497869018190385759 89.17387663685445887
32.009497869018190385759 495.85972637180077527 32.009497869018190385759 89.27452957897742181
33.009497869018218807469 497.92857674106414834 33.009497869018218807469 89.22915188864486424
34.009497869018190385759 499.90853958983495886 34.009497869018190385759 89.30340588836067184
35.009497869018218807469 501.81448588310678360 35.009497869018218807469 89.32924025416507163
36.009497869018190385759 503.65884568477741823 36.009497869018190385759 89.27190306394102493
37.009497869018218807469 505.45342945466649098 37.009497869018218807469 89.20733075383202504
38.009497869018190385759 507.19167312025092542 38.009497869018190385759 89.25762548208834346
39.009497869018190385759 508.87373453157317726 39.009497869018190385759 89.45413316398534675
40.009497869018190385759 510.50036522591608446 40.009497869018190385759 89.68455382423222488
41.009497869018190385759 512.07455195449870189 41.009497869018190385759 89.85406294813657269
42.009497869018190385759 513.59646669516621387 42.009497869018190385759 90.07480913271258771
43.009497869018190385759 515.07022299793970888 43.009497869018190385759 90.20503632612278011
44.009497869018218807469 516.50760060742629776 44.009497869018218807469 90.27736076085754746
46.009497869018218807469 519.27983000753397391 46.009497869018218807469 90.46633630892647204
48.009497869018218807469 521.92376656009867020 48.009497869018218807469 90.61768738637418608
50.009497869018218807469 524.42607800041946575 50.009497869018218807469 90.94730545469961669
52.009497869018190385759 526.79241773884530176 52.009497869018190385759 91.04988957124064086
54.009497869018190385759 529.02522828981841485 54.009497869018190385759 91.02141340154106786
56.009497869018190385759 531.15556738922691693 56.009497869018190385759 90.76353933268542562
58.009497869018190385759 533.19809239673645607 58.009497869018190385759 89.76783980462106172
60.009497869018190385759 535.15144654445532524 60.009497869018190385759 89.09169932872845266
62.009497869018190385759 537.00351336977053052 62.009497869018190385759 88.43190253143062307
64.009497869018190385759 538.75212963322474025 64.009497869018190385759 87.79036753015564898
66.009497869018218807469 540.40578045834877230 66.009497869018218807469 87.17763267560253837
68.009497869018218807469 541.92952839191082148 68.009497869018218807469 86.32398581557380624
70.009497869018218807469 543.36944305144561440 70.009497869018218807469 85.76397447572108490
72.009497869018218807469 544.74521743674574736 72.009497869018218807469 85.33994141763311347
74.009497869018190385759 546.06923301015433481 74.009497869018190385759 84.77666213767712122
76.009497869018190385759 547.33618045987736878 76.009497869018190385759 84.22415983446356336
78.009497869018190385759 548.54411014276615788 78.009497869018190385759 84.08908913977928989
80.009497869018190385759 549.70552377260389676 80.009497869018190385759 83.68347798313318719
82.009497869018190385759 550.84981447210122951 82.009497869018190385759 83.32324440197477600
84.009497869018190385759 551.95621683840147398 84.009497869018190385759 83.26694473003675512
86.009497869018190385759 553.02804439736462427 86.009497869018190385759 83.21665415883798289
88.009497869018218807469 554.06324192478507484 88.009497869018218807469 83.10063228998723162
91.009497869018190385759 555.55018375973952516 91.009497869018190385759 82.76955382049990817
94.009497869018218807469 556.95916028053079572 94.009497869018218807469 82.23879757047600947
97.009497869018190385759 558.29432715015843769 97.009497869018190385759 80.60381831641373651
99.504748934509109403734 559.32167925835619826 99.504748934509109403734 83.46030102177542176
nan nan nan nan

