Time Pressure difference Time.1 Pressure.1 difference.1
(hr) (psi) (hr) (psi)
0.000200000000006639311 0.86076920190958550 0.000200000000006639311 0.69188526684443730
0.000399999999999067768 1.70864521569165650 0.000399999999999067768 1.75457483299567740
0.000600000000005707079 2.54608505779724759 0.000600000000005707079 2.54114687420838115
0.000799999999998135536 3.37422979129256229 0.000799999999998135536 3.32706029282754123
0.001007140329434719206 4.22293737746831077 0.001007140329434719206 4.13682449118267748
0.001267914553963578328 5.27928803216110509 0.001267914553963578328 5.14286020020336920
0.001596209851982166583 6.59128097970146420 0.001596209851982166583 6.37858323902378732
0.002009509145224797066 8.21668570888633454 0.002009509145224797066 7.88940539842808342
0.002529822128138903281 10.22441100046998841 0.002529822128138903281 9.72643456200158241
0.003184857364431081805 12.69575732579509619 0.003184857364431081805 11.94557330314830779
0.004009497869020606231 15.72536994137734112 0.004009497869020606231 14.60563904269294078
0.005047658755842121536 19.42162442774977293 0.005047658755842121536 17.76507032730354396
0.006354625877790454069 23.90606137022055933 0.006354625877790454069 21.47684228668635242
0.008000000000009777068 29.31142824331284302 0.008000000000009777068 25.78131021578567683
0.010071403294347192059 35.77781569946448315 0.010071403294347192059 30.69668330175681348
0.012679145539706837553 43.44630912284066682 0.012679145539706837553 36.20753860988824613
0.015962098519750611558 52.44983168218982428 0.015962098519750611558 42.25253977386983451
0.020095091452091651263 62.90113640360630143 0.020095091452091651263 48.71361060748838412
0.025298221281360611101 74.87866043847603237 0.025298221281360611101 55.40926215027649704
0.031848573644296607199 88.41144276798389967 0.031848573644296607199 62.09930819700675642
0.040094978690177640601 103.46715080798843189 0.040094978690177640601 68.50007241861636942
0.050476587558421215363 119.94400507356752428 0.050476587558421215363 74.31905581242443759
0.063546258777961384112 137.67477453174439006 0.063546258777961384112 79.29877294456704817
0.079999999999998294697 156.43889096328857136 0.079999999999998294697 83.26342660204362289
0.100714032943542974863 175.98793197721289516 0.100714032943542974863 86.15960381233678334
0.126791455396897845276 196.07645453722673778 0.126791455396897845276 88.06361165260076973
0.159620985197506115583 216.49081854508185074 0.159620985197506115583 89.16517067231450255
0.200950914520760193227 237.07245243335714235 0.200950914520760193227 89.72414594794356901
0.252982212813478213320 257.72668151589266472 0.252982212813478213320 90.01269838225843500
0.318485736442795541734 278.41928027907590604 0.318485736442795541734 90.26834965268416511
0.400949786901833249431 299.16361100836826381 0.400949786901833249431 90.66499536308842266
0.504765875584155310207 320.00374883999154463 0.504765875584155310207 91.30052214398146759
0.635462587779443310865 340.99584286928285337 0.635462587779443310865 92.22094546599515752
0.799999999999997157829 362.20220264953587730 0.799999999999997157829 93.42455370127511571
1.007140329435344483500 383.67446989260116652 1.007140329435344483500 94.88409637776774730
1.267914553968893187630 405.45767819352340666 1.267914553968893187630 96.58004934150299903
1.596209851975103788391 427.58842127271634581 1.596209851975103788391 98.49237466022255205
2.009509145207672986544 450.09479295457077797 2.009509145207672986544 100.61217920587708363
2.529822128134711078928 472.99941002142162461 2.529822128134711078928 102.94354927236445008
3.184857364427998049905 496.31959781002746013 3.184857364427998049905 105.49676169675683468
4.009497869018190385759 520.06660883636118342 4.009497869018190385759 108.26548205754156129
5.009497869018204596614 543.43238315571738895 5.009497869018204596614 111.09838346354524674
6.009497869018204596614 562.80273013124110548 6.009497869018204596614 113.52386082184355587
7.009497869018204596614 579.36236518654391148 7.009497869018204596614 115.63803986757483244
8.009497869018204596614 593.82209138456528308 8.009497869018204596614 117.50755032720900317
9.009497869018204596614 606.65445815899943227 9.009497869018204596614 119.16963493699397247
10.009497869018190385759 618.18066809723677579 10.009497869018190385759 120.64126703429083420
11.009497869018190385759 628.63279945362285162 11.009497869018190385759 121.99453194271646339
12.009497869018190385759 638.18933354022294679 12.009497869018190385759 123.16741643442691156
13.009497869018190385759 646.99249075771945172 13.009497869018190385759 124.28501784665458274
14.009497869018190385759 655.12599809140499474 14.009497869018190385759 125.37788168918966392
15.009497869018190385759 662.70358719968714922 15.009497869018190385759 126.28446849799040308
16.009497869018204596614 669.79087867466921580 16.009497869018204596614 127.09530077891638200
17.009497869018204596614 676.42116207694573404 17.009497869018204596614 127.99515046774844507
18.009497869018204596614 682.64387422093022906 18.009497869018204596614 128.64361155876548537
19.009497869018204596614 688.53637135479982589 19.009497869018204596614 129.27224153697855513
20.009497869018204596614 694.11157958084083930 20.009497869018204596614 129.87455151826313227
21.009497869018204596614 699.38578140644506220 21.009497869018204596614 130.60483967661764382
22.009497869018190385759 704.36992482556536288 22.009497869018190385759 131.26508184277227542
23.009497869018190385759 709.13131136355457329 23.009497869018190385759 131.68574660870183379
24.009497869018190385759 713.69296002109729216 24.009497869018190385759 132.11913482691383592
25.009497869018190385759 718.05128166503322973 25.009497869018190385759 132.70500324151453242
26.009497869018190385759 722.21372765303760843 26.009497869018190385759 133.07481218360871367
27.009497869018204596614 726.18007805332183580 27.009497869018204596614 133.53122970335581954
28.009497869018190385759 729.97330207484947096 28.009497869018190385759 133.84819268668144332
29.009497869018190385759 733.62749596491494231 29.009497869018190385759 133.72301035981664086
30.009497869018190385759 737.15046880302190857 30.009497869018190385759 133.70324702816702711
31.009497869018190385759 740.53717607446617421 31.009497869018190385759 133.76081495528168830
32.009497869018190385759 743.78958955770121975 32.009497869018190385759 133.91179436846613271
33.009497869018218807469 746.89286511159627935 33.009497869018218807469 133.84372783296731768
34.009497869018190385759 749.86280938475238145 34.009497869018190385759 133.95510883254101486
35.009497869018218807469 752.72172882466009014 35.009497869018218807469 133.99386038124762877
36.009497869018190385759 755.48826852716604208 36.009497869018190385759 133.90785459591151607
37.009497869018218807469 758.18014418199982174 37.009497869018218807469 133.81099613074806598
38.009497869018190385759 760.78750968037638813 38.009497869018190385759 133.88643822313250098
39.009497869018190385759 763.31060179735959537 39.009497869018190385759 134.18119974597800592
40.009497869018190385759 765.75054783887424037 40.009497869018190385759 134.52683073634835864
41.009497869018190385759 768.11182793174816652 41.009497869018190385759 134.78109442220485903
42.009497869018190385759 770.39470004274937764 42.009497869018190385759 135.11221369906888867
43.009497869018190385759 772.60533449690967700 43.009497869018190385759 135.30755448918418438
44.009497869018218807469 774.76140091113950348 44.009497869018218807469 135.41604114128631409
46.009497869018218807469 778.91974501130096087 46.009497869018218807469 135.69950446338970096
48.009497869018218807469 782.88564984014794845 48.009497869018218807469 135.92653107956127201
50.009497869018218807469 786.63911700062919863 50.009497869018218807469 136.42095818204941793
52.009497869018190385759 790.18862660826778210 52.009497869018190385759 136.57483435686097550
54.009497869018190385759 793.53784243472762228 54.009497869018190385759 136.53212010231158047
56.009497869018190385759 796.73335108384037540 56.009497869018190385759 136.14530899902811711
58.009497869018190385759 799.79713859510468410 58.009497869018190385759 134.65175970693158547
60.009497869018190385759 802.72716981668293101 60.009497869018190385759 133.63754899309267898
62.009497869018190385759 805.50527005465585262 62.009497869018190385759 132.64785379714592750
64.009497869018190385759 808.12819444983711037 64.009497869018190385759 131.68555129523346636
66.009497869018218807469 810.60867068752327214 66.009497869018218807469 130.76644901340381466
68.009497869018218807469 812.89429258786628907 68.009497869018218807469 129.48597872336071646
70.009497869018218807469 815.05416457716842160 70.009497869018218807469 128.64596171358164156
72.009497869018218807469 817.11782615511867789 72.009497869018218807469 128.00991212644967732
74.009497869018190385759 819.10384951523155905 74.009497869018190385759 127.16499320651567473
76.009497869018190385759 821.00427068981605316 76.009497869018190385759 126.33623975169534503
78.009497869018190385759 822.81616521414935050 78.009497869018190385759 126.13363370966895616
80.009497869018190385759 824.55828565890578830 80.009497869018190385759 125.52521697469977369
82.009497869018190385759 826.27472170815178742 82.009497869018190385759 124.98486660296217110
84.009497869018190385759 827.93432525760215412 84.009497869018190385759 124.90041709505511847
86.009497869018190385759 829.54206659604687957 86.009497869018190385759 124.82498123825695302
88.009497869018218807469 831.09486288717766911 88.009497869018218807469 124.65094843498084742
91.009497869018190385759 833.32527563960945827 91.009497869018190385759 124.15433073074986225
94.009497869018218807469 835.43874042079607989 94.009497869018218807469 123.35819635571401420
97.009497869018190385759 837.44149072523759969 97.009497869018190385759 120.90572747462060477
99.504748934509109403734 838.98251888753418370 99.504748934509109403734 125.19045153266313264
nan nan nan nan

