Time Pressure difference Time.1 Pressure.1 difference.1
(hr) (psi) (hr) (psi)
0.000200000000006639311 0.13274314320636327 0.000200000000006639311 0.10669878157275327
0.000399999999999067768 0.26349796908654854 0.000399999999999067768 0.27058098478190046
0.000600000000005707079 0.39264338534995868 0.000600000000005707079 0.39188184554362965
0.000799999999998135536 0.52035536053458098 0.000799999999998135536 0.51308113711229331
0.001007140329434719206 0.65123842698505552 0.001007140329434719206 0.63795856616897617
0.001267914553963578328 0.81414307775664541 0.001267914553963578328 0.79310391976316330
0.001596209851982166583 1.01647149208039833 0.001596209851982166583 0.98367040371918546
0.002009509145224797066 1.26713256621714532 0.002009509145224797066 1.21666117734379475
0.002529822128138903281 1.57675303742880102 0.002529822128138903281 1.49995782038530145
0.003184857364431081805 1.95787062208142770 0.003184857364431081805 1.84218132356980591
0.004009497869020606231 2.42508099670665889 0.004009497869020606231 2.25240218953406446
0.005047658755842121536 2.99509725370470647 0.005047658755842121536 2.73963249300370748
0.006354625877790454069 3.68666272088650393 0.006354625877790454069 3.31204177026484947
0.008000000000009777068 4.52024899154537163 0.008000000000009777068 3.97585339534625826
0.010071403294347192059 5.51746008392124576 0.010071403294347192059 4.73387549002188379
0.012679145539706837553 6.70005341836910695 0.012679145539706837553 5.58372961321073547
0.015962098519750611558 8.08852768278980960 0.015962098519750611558 6.51595680420789591
0.020095091452091651263 9.70027103542204472 0.020095091452091651263 7.51234799598240333
0.025298221281360611101 11.54737962700636089 0.025298221281360611101 8.54491494846218025
0.031848573644296607199 13.63433169123123179 0.031848573644296607199 9.57661745183724911
0.040094978690177640601 15.95614107287944172 0.040094978690177640601 10.56370848601267909
0.050476587558421215363 18.49711189352909102 0.050476587558421215363 11.46108044616890353
0.063546258777961384112 21.23145469311383948 0.063546258777961384112 12.22902532957403565
0.079999999999998294697 24.12515464089028683 0.079999999999998294697 12.84043264648373928
0.100714032943542974863 27.13990138729049661 0.100714032943542974863 13.28706533887569208
0.126791455396897845276 30.23784404261829906 0.126791455396897845276 13.58069106903134404
0.159620985197506115583 33.38603619325495941 0.159620985197506115583 13.75056750789524429
0.200950914520760193227 36.56002379479933495 0.200950914520760193227 13.83676963373459401
0.252982212813478213320 39.74520663224015493 0.252982212813478213320 13.88126862025249864
0.318485736442795541734 42.93630663307588691 0.318485736442795541734 13.92069376827792304
0.400949786901833249431 46.13538445627135332 0.400949786901833249431 13.98186231174064886
0.504765875584155310207 49.34923712953892760 0.504765875584155310207 14.07986979423469087
0.635462587779443310865 52.58652366087599717 0.635462587779443310865 14.22181247128852455
0.799999999999997157829 55.85685309058934678 0.799999999999997157829 14.40742638496675809
1.007140329435344483500 59.16818932251799623 1.007140329435344483500 14.63250911572855095
1.267914553968893187630 62.52747719267937754 1.267914553968893187630 14.89404975477201454
1.596209851975103788391 65.94035998554342370 1.596209851975103788391 15.18895816120290299
2.009509145207672986544 69.41117017786005761 2.009509145207672986544 15.51586288519751911
2.529822128134711078928 72.94339560675180678 2.529822128134711078928 15.87539409276884683
3.184857364427998049905 76.53970809139313758 3.184857364427998049905 16.26913662181786435
4.009497869018190385759 80.20184293357677063 4.009497869018190385759 16.69611361232202285
5.009497869018204596614 83.80518552497173346 5.009497869018204596614 17.13298825443561668
6.009497869018204596614 86.79237504897493238 6.009497869018204596614 17.50703217654866961
7.009497869018204596614 89.34611187263750764 7.009497869018204596614 17.83306936655128894
8.009497869018204596614 91.57601217712164043 8.009497869018204596614 18.12137509835311278
9.009497869018204596614 93.55494996513304784 9.009497869018204596614 18.37769274411497022
10.009497869018190385759 95.33245935216008604 10.009497869018190385759 18.60463983957933465
11.009497869018190385759 96.94433018393992540 11.009497869018190385759 18.81333299116604252
12.009497869018190385759 98.41808687737155026 12.009497869018190385759 18.99420885626698663
13.009497869018190385759 99.77566188888202703 13.009497869018190385759 19.16655926562393120
14.009497869018190385759 101.02996713861705302 14.009497869018190385759 19.33509478157043304
15.009497869018190385759 102.19854170416631689 15.009497869018190385759 19.47490366683568297
16.009497869018204596614 103.29150523622773505 16.009497869018204596614 19.59994580977541645
17.009497869018204596614 104.31399146972056258 17.009497869018204596614 19.73871573305316218
18.009497869018204596614 105.27362428119710103 18.009497869018204596614 19.83871787448395096
19.009497869018204596614 106.18233313038579979 19.009497869018204596614 19.93566176959151903
20.009497869018204596614 107.04211141045534816 20.009497869018204596614 20.02854673796969820
21.009497869018204596614 107.85547012110886556 21.009497869018204596614 20.14116780453586131
22.009497869018190385759 108.62409760240998935 22.009497869018190385759 20.24298675927810010
23.009497869018190385759 109.35837272943705045 23.009497869018190385759 20.30785939080555380
24.009497869018190385759 110.06184536723817757 24.009497869018190385759 20.37469416392061916
25.009497869018190385759 110.73396201922449222 25.009497869018190385759 20.46504360333701200
26.009497869018190385759 111.37587179323664088 26.009497869018190385759 20.52207352639942783
27.009497869018204596614 111.98754077259080475 27.009497869018204596614 20.59245975310372501
28.009497869018190385759 112.57251114372678558 28.009497869018190385759 20.64134005991926202
29.009497869018190385759 113.13604104439779974 29.009497869018190385759 20.62203512253877591
30.009497869018190385759 113.67933474835874108 30.009497869018190385759 20.61898732905641296
31.009497869018190385759 114.20161431799718343 31.009497869018190385759 20.62786514157121687
32.009497869018190385759 114.70318383025851006 32.009497869018190385759 20.65114836525195940
33.009497869018218807469 115.18175410245881096 33.009497869018218807469 20.64065151447100988
34.009497869018190385759 115.63976274994746518 34.009497869018190385759 20.65782808624435063
35.009497869018218807469 116.08064975169568811 35.009497869018218807469 20.66380413925370618
36.009497869018190385759 116.50729045294418995 36.009497869018190385759 20.65054079496336925
37.009497869018218807469 116.92241687097889269 37.009497869018218807469 20.63560380943528472
38.009497869018190385759 117.32451059247185299 38.009497869018190385759 20.64723807847158099
39.009497869018190385759 117.71360813158516123 39.009497869018190385759 20.69269459684143797
40.009497869018190385759 118.08988333530530213 40.009497869018190385759 20.74599592773187950
41.009497869018190385759 118.45402710441710781 41.009497869018190385759 20.78520709001434952
42.009497869018190385759 118.80607922115196118 42.009497869018190385759 20.83627050340046694
43.009497869018190385759 119.14699123946596160 43.009497869018190385759 20.86639489727840058
44.009497869018218807469 119.47948807154547524 44.009497869018218807469 20.88312511853170506
46.009497869018218807469 120.12076527473128351 46.009497869018218807469 20.92683928985224284
48.009497869018218807469 120.73236554048257574 48.009497869018218807469 20.96185009943425470
50.009497869018218807469 121.31120482480966416 50.009497869018218807469 21.03809795719344322
52.009497869018190385759 121.85859088499150005 52.009497869018190385759 21.06182790369215851
54.009497869018190385759 122.37508872796087189 54.009497869018190385759 21.05524074374728727
56.009497869018190385759 122.86788268630105847 56.009497869018190385759 20.99558883988843760
58.009497869018190385759 123.34036332740598141 58.009497869018190385759 20.76526179388504190
60.009497869018190385759 123.79221680123177407 60.009497869018190385759 20.60885573552483052
62.009497869018190385759 124.22064030536358814 62.009497869018190385759 20.45623032695449695
64.009497869018190385759 124.62513343527182030 64.009497869018190385759 20.30782927062508847
66.009497869018218807469 125.00765898533643394 66.009497869018218807469 20.16609031720116363
68.009497869018218807469 125.36013515962304155 68.009497869018218807469 19.96862315561406120
70.009497869018218807469 125.69321886678555700 70.009497869018218807469 19.83908030257341082
72.009497869018218807469 126.01146552775298915 72.009497869018218807469 19.74099219574559072
74.009497869018190385759 126.31773924516501495 74.009497869018190385759 19.61069339679025347
76.009497869018190385759 126.61081185925324633 76.009497869018190385759 19.48288754791470367
78.009497869018190385759 126.89023237497895025 78.009497869018190385759 19.45164274641446767
80.009497869018190385759 127.15889271176614272 80.009497869018190385759 19.35781602770753196
82.009497869018190385759 127.42359214081650975 82.009497869018190385759 19.27448613321542936
84.009497869018190385759 127.67952717095207049 84.009497869018190385759 19.26146278956310098
86.009497869018190385759 127.92746429306853884 86.009497869018190385759 19.24982948214499245
88.009497869018218807469 128.16692808892298672 88.009497869018218807469 19.22299109006888429
91.009497869018190385759 128.51089020879032887 91.009497869018190385759 19.14640540962713544
94.009497869018218807469 128.83681724880094066 94.009497869018218807469 19.02362989776815994
97.009497869018190385759 129.14567050456253128 97.009497869018190385759 18.64542348986007170
99.504748934509109403734 129.38331948361397394 99.504748934509109403734 19.30619032256586465
nan nan nan nan

