Time Pressure difference Time.1 Pressure.1 difference.1
(hr) (psi) (hr) (psi)
0.000200000000006639311 0.67690758119518180 0.000200000000006639311 0.54409751348590329
0.000399999999999067768 1.34367597900656133 0.000399999999999067768 1.37979495966422516
0.000600000000005707079 2.00223738740569024 0.000600000000005707079 1.99835400739950275
0.000799999999998135536 2.65348913663907426 0.000799999999998135536 2.61639511533660096
0.001007140329434719206 3.32091148170640116 0.001007140329434719206 3.25319243990515172
0.001267914553963578328 4.15162401762860789 0.001267914553963578328 4.04433737966184470
0.001596209851982166583 5.18337326085718608 0.001596209851982166583 5.01610808356180993
0.002009509145224797066 6.46158904884643626 0.002009509145224797066 6.20421631428108977
0.002529822128138903281 8.04046114117419641 0.002529822128138903281 7.64885323314492283
0.003184857364431081805 9.98392410390591323 0.003184857364431081805 9.39398053820379353
0.004009497869020606231 12.36640682171532291 0.004009497869020606231 11.48585215905259105
0.005047658755842121536 15.27313568504076891 0.005047658755842121536 13.97042407923008689
0.006354625877790454069 18.79969002389950106 0.006354625877790454069 16.88935585954932606
0.008000000000009777068 23.05046224881211359 0.008000000000009777068 20.27438284210731823
0.010071403294347192059 28.13561943415740885 0.010071403294347192059 24.13982470377618839
0.012679145539706837553 34.16611090982009813 0.012679145539706837553 28.47355287233549248
0.015962098519750611558 41.24646725199027486 0.015962098519750611558 33.22733252332101017
0.020095091452091651263 49.46535726758695972 0.020095091452091651263 38.30830872485437055
0.025298221281360611101 58.88446381224982673 0.025298221281360611101 43.57375883656801818
0.031848573644296607199 69.52662309627851300 0.031848573644296607199 48.83480079477255487
0.040094978690177640601 81.36640882505602690 0.040094978690177640601 53.86835196904601730
0.050476587558421215363 94.32378176762350108 0.050476587558421215363 58.44439159195447075
0.063546258777961384112 108.26723169594076523 0.063546258777961384112 62.36043351292101988
0.079999999999998294697 123.02330410044052655 0.079999999999998294697 65.47823107306304280
0.100714032943542974863 138.39663999357452440 0.100714032943542974863 67.75578039265182895
0.126791455396897845276 154.19422334776163552 0.126791455396897845276 69.25308924021572921
0.159620985197506115583 170.24804791715726537 0.159620985197506115583 70.11935356510556971
0.200950914520760193227 186.43341326416307879 0.200950914520760193227 70.55893086519317592
0.252982212813478213320 202.67586736067804054 0.252982212813478213320 70.78584805731242113
0.318485736442795541734 218.94849531525034081 0.318485736442795541734 70.98689182457250979
0.400949786901833249431 235.26180520868805957 0.400949786901833249431 71.29881340334826234
0.504765875584155310207 251.65045766056806542 0.504765875584155310207 71.79859068985516046
0.635462587779443310865 268.15860823341114383 0.635462587779443310865 72.52241017967627101
0.799999999999997157829 284.83525706443384706 0.799999999999997157829 73.46892585129010911
1.007140329435344483500 301.72101511669114871 1.007140329435344483500 74.61670797523690624
1.267914553968893187630 318.85129674030912383 1.267914553968893187630 75.95040278675666912
1.596209851975103788391 336.25487918093881490 1.596209851975103788391 77.45425248663094919
2.009509145207672986544 353.95385537902552642 2.009509145207672986544 79.12126353259107248
2.529822128134711078928 371.96601113753558820 2.529822128134711078928 80.95464937989579823
3.184857364427998049905 390.30497107474383256 3.184857364427998049905 82.96249171746873685
4.009497869018190385759 408.97958415196598025 4.009497869018190385759 85.13980916594026382
5.009497869018204596614 427.35439326709195029 5.009497869018204596614 87.36759849001019518
6.009497869018204596614 442.58720444228828228 6.009497869018204596614 89.27499016736929605
7.009497869018204596614 455.60967607102736565 7.009497869018204596614 90.93757732881124412
8.009497869018204596614 466.98078259265133738 8.009497869018204596614 92.40775748911741516
9.009497869018204596614 477.07213615760394987 9.009497869018204596614 93.71481827899621919
10.009497869018190385759 486.13632998834430055 10.009497869018190385759 94.87210750493561306
11.009497869018190385759 494.35587006841410584 11.009497869018190385759 95.93631295495231370
12.009497869018190385759 501.87111382808728877 12.009497869018190385759 96.85866752170929317
13.009497869018190385759 508.79390317249777809 13.009497869018190385759 97.73754755948601769
14.009497869018190385759 515.19008087456279554 14.009497869018190385759 98.59697401036849840
15.009497869018190385759 521.14908533615243869 15.009497869018190385759 99.30991248740431843
16.009497869018204596614 526.72252049032897503 16.009497869018204596614 99.94754975046967616
17.009497869018204596614 531.93656519652529369 17.009497869018204596614 100.65519016668724817
18.009497869018204596614 536.83009648983113493 18.009497869018204596614 101.16513897485295104
19.009497869018204596614 541.46394720525927369 19.009497869018204596614 101.65949262630208239
20.009497869018204596614 545.84828240983745218 20.009497869018204596614 102.13314827250385974
21.009497869018204596614 549.99590664242487037 21.009497869018204596614 102.70744576101827761
22.009497869018190385759 553.91542938868701640 22.009497869018190385759 103.22665918861689249
23.009497869018190385759 557.65977646501755771 23.009497869018190385759 103.55746931584694437
24.009497869018190385759 561.24704997827666375 24.009497869018190385759 103.89828514645233781
25.009497869018190385759 564.67442743964784313 25.009497869018190385759 104.35901116981173686
26.009497869018190385759 567.94776858538682518 26.009497869018190385759 104.64982835511759163
27.009497869018204596614 571.06690046147241446 27.009497869018204596614 105.00875439315626636
28.009497869018190385759 574.04988601863158237 28.009497869018190385759 105.25801359747649144
29.009497869018190385759 576.92353849348205586 29.009497869018190385759 105.15957040748033080
30.009497869018190385759 579.69399893417710246 30.009497869018190385759 105.14402855375971058
31.009497869018190385759 582.35730034208495454 31.009497869018190385759 105.18929988341595561
32.009497869018190385759 584.91499332075920847 32.009497869018190385759 105.30802986255812925
33.009497869018218807469 587.35540446036452522 33.009497869018218807469 105.25450244335839045
34.009497869018190385759 589.69096408513587448 34.009497869018190385759 105.34209229072429537
35.009497869018218807469 591.93921395119355111 35.009497869018218807469 105.37256644923783711
36.009497869018190385759 594.11481653333646591 36.009497869018190385759 105.30493163145916924
37.009497869018218807469 596.23170342281775902 37.009497869018218807469 105.22876228289669598
38.009497869018190385759 598.28213165477882285 38.009497869018190385759 105.28808982872774891
39.009497869018190385759 600.26628742876653178 39.009497869018190385759 105.51988983855167703
40.009497869018190385759 602.18505725643262849 40.009497869018190385759 105.79169351967622958
41.009497869018190385759 604.04196430264869377 41.009497869018190385759 105.99164609255765868
42.009497869018190385759 605.83721143208549620 42.009497869018190385759 106.25203778442103442
43.009497869018190385759 607.57565097889164463 43.009497869018190385759 106.40565348239483967
44.009497869018218807469 609.27117830272572974 44.009497869018218807469 106.49096721934489551
46.009497869018218807469 612.54129373015143756 46.009497869018218807469 106.71388234142044382
48.009497869018218807469 615.66007520954156007 48.009497869018218807469 106.89241572444426254
50.009497869018218807469 618.61179603210405276 50.009497869018218807469 107.28123244009825044
52.009497869018190385759 621.40312494768954821 52.009497869018190385759 107.40224042814448069
54.009497869018190385759 624.03694314071958615 54.009497869018190385759 107.36865000382933033
56.009497869018190385759 626.54988624505074313 56.009497869018190385759 107.06446234502115544
58.009497869018190385759 628.95924404844913624 58.009497869018190385759 105.88993747068087714
60.009497869018190385759 631.26341611062900938 60.009497869018190385759 105.09236371966387935
62.009497869018190385759 633.44810988014603481 62.009497869018190385759 104.31406893434558469
64.009497869018190385759 635.51077360470912936 64.009497869018190385759 103.55731572163476528
66.009497869018218807469 637.46141631652938031 66.009497869018218807469 102.83453509578978924
68.009497869018218807469 639.25882587609021357 68.009497869018218807469 101.82757522210647494
70.009497869018218807469 640.95734589832875372 70.009497869018218807469 101.16698713299858525
72.009497869018218807469 642.58020620052923277 72.009497869018218807469 100.66679871246664391
74.009497869018190385759 644.14201192720793188 74.009497869018190385759 100.00235576872545096
76.009497869018190385759 645.63650022637841630 76.009497869018190385759 99.35062532197497376
78.009497869018190385759 647.06137130346405684 78.009497869018190385759 99.19129624103275944
80.009497869018190385759 648.43137215130434470 80.009497869018190385759 98.71283825309245685
82.009497869018190385759 649.78117482987795483 82.009497869018190385759 98.28790754888115089
84.009497869018190385759 651.08628451771210166 84.009497869018190385759 98.22149658528761051
86.009497869018190385759 652.35060984229357928 86.009497869018190385759 98.16217394311203748
88.009497869018218807469 653.57172646587434883 88.009497869018218807469 98.02531481333264196
91.009497869018190385759 655.32571963612963373 91.009497869018190385759 97.63477541182533059
94.009497869018218807469 656.98774510102828117 94.009497869018218807469 97.00869655942643988
97.009497869018190385759 658.56270487109202350 97.009497869018190385759 95.08007878990757433
99.504748934509109403734 659.77456705619306376 99.504748934509109403734 98.44957922252530125
nan nan nan nan

