Time Pressure difference Time.1 Pressure.1 difference.1
(hr) (psi) (hr) (psi)
0.000200000000006639311 0.44192748297273743 0.000200000000006639311 0.35522078834158849
0.000399999999999067768 0.87723547472291952 0.000399999999999067768 0.90081619778322131
0.000600000000005707079 1.30718543197253334 0.000600000000005707079 1.30465011932537567
0.000799999999998135536 1.73236318786667942 0.000799999999998135536 1.70814589746701340
0.001007140329434719206 2.16809811716763834 0.001007140329434719206 2.12388690351907572
0.001267914553963578328 2.71043906632026044 0.001267914553963578328 2.64039565834195988
0.001596209851982166583 3.38402931524902817 0.001596209851982166583 3.27482817635703993
0.002009509145224797066 4.21852829498378767 0.002009509145224797066 4.05049932333089391
0.002529822128138903281 5.24931446001141122 0.002529822128138903281 4.99364839581690401
0.003184857364431081805 6.51812828220897611 0.003184857364431081805 6.13297633188457070
0.004009497869020606231 8.07356157909794447 0.004009497869020606231 7.49868058130595383
0.005047658755842121536 9.97125545332746910 0.005047658755842121536 9.12076407608687845
0.006354625877790454069 12.27361005214388889 0.006354625877790454069 11.02642477554011968
0.008000000000009777068 15.04877925135602013 0.008000000000009777068 13.23638149009686238
0.010071403294347192059 18.36868698746452111 0.010071403294347192059 15.75998299783683265
0.012679145539706837553 22.30576790214808014 0.012679145539706837553 18.58931101044070999
0.015962098519750611558 26.92826607438098208 0.015962098519750611558 21.69287482643125742
0.020095091452091651263 32.29407003097028905 0.020095091452091651263 25.01005295556874586
0.025298221281360611101 38.44345018680378701 0.025298221281360611101 28.44766715761322118
0.031848573644296607199 45.39131544409901409 0.031848573644296607199 31.88240344214139910
0.040094978690177640601 53.12106593207068528 0.040094978690177640601 35.16861955591798505
0.050476587558421215363 61.58044704926455637 0.050476587558421215363 38.15614359718342996
0.063546258777961384112 70.68360071744730533 0.063546258777961384112 40.71277997920300606
0.079999999999998294697 80.31728501563475220 0.079999999999998294697 42.74827266158561656
0.100714032943542974863 90.35395741358823329 0.100714032943542974863 44.23519889215758383
0.126791455396897845276 100.66760501144973716 0.126791455396897845276 45.21273548447702240
0.159620985197506115583 111.14854285456308958 0.159620985197506115583 45.77828685858293056
0.200950914520760193227 121.71535872057418715 0.200950914520760193227 46.06527033342697308
0.252982212813478213320 132.31944568248894711 0.252982212813478213320 46.21341602767291334
0.318485736442795541734 142.94323202067499778 0.318485736442795541734 46.34466993662712042
0.400949786901833249431 153.59357806559904702 0.400949786901833249431 46.54831179560861898
0.504765875584155310207 164.29311243126002751 0.504765875584155310207 46.87459757583722819
0.635462587779443310865 175.07066262254369349 0.635462587779443310865 47.34715207832701367
0.799999999999997157829 185.95821898481918311 0.799999999999997157829 47.96509653628684333
1.007140329435344483500 196.98229488738911641 1.007140329435344483500 48.71444028590375552
1.267914553968893187630 208.16601102655991440 1.267914553968893187630 49.58515943203602205
1.596209851975103788391 219.52815498292719099 1.596209851975103788391 50.56696630065065534
2.009509145207672986544 231.08315040579498145 2.009509145207672986544 51.65529507121658526
2.529822128134711078928 242.84260897651532218 2.529822128134711078928 52.85224368772734493
3.184857364427998049905 254.81542569556967237 3.184857364427998049905 54.16308838071040554
4.009497869018190385759 267.00737771675250087 4.009497869018190385759 55.58457699505965621
5.009497869018204596614 279.00359901481272118 5.009497869018204596614 57.03901679737572294
6.009497869018204596614 288.94852811335755405 6.009497869018204596614 58.28428103496948154
7.009497869018204596614 297.45040971263171059 7.009497869018204596614 59.36972161783535284
8.009497869018204596614 304.87417718594531379 8.009497869018204596614 60.32954691128738034
9.009497869018204596614 311.46244211994604711 9.009497869018204596614 61.18287770711568641
10.009497869018190385759 317.38011312271925135 10.009497869018190385759 61.93842828580449122
11.009497869018190385759 322.74634148193666761 11.009497869018190385759 62.63320797059006395
12.009497869018190385759 327.65276128118728138 12.009497869018190385759 63.23537855254102169
13.009497869018190385759 332.17238989093647206 13.009497869018190385759 63.80916625077284010
14.009497869018190385759 336.34821357949527965 14.009497869018190385759 64.37025343429660040
15.009497869018190385759 340.23862331324937713 15.009497869018190385759 64.83570413306786406
16.009497869018204596614 343.87730935787618591 16.009497869018204596614 65.25199350335171289
17.009497869018204596614 347.28136290540510345 17.009497869018204596614 65.71398529761798102
18.009497869018204596614 350.47616530883004771 18.009497869018204596614 66.04691168151178715
19.009497869018204596614 353.50143203656386959 19.009497869018204596614 66.36965657454069856
20.009497869018204596614 356.36379947828612558 20.009497869018204596614 66.67888851895502000
21.009497869018204596614 359.07162723549288330 21.009497869018204596614 67.05382573435541360
22.009497869018190385759 361.63053611734005699 22.009497869018190385759 67.39280063958423739
23.009497869018190385759 364.07507939738047753 23.009497869018190385759 67.60877412094269800
24.009497869018190385759 366.41707525987368399 24.009497869018190385759 67.83127994945000694
25.009497869018190385759 368.65468100810142005 25.009497869018190385759 68.13207062974309736
26.009497869018190385759 370.79172224332194219 26.009497869018190385759 68.32193422453474341
27.009497869018204596614 372.82808605036444760 27.009497869018204596614 68.55626352586084238
28.009497869018190385759 374.77556504992270447 28.009497869018190385759 68.71899547898586036
29.009497869018190385759 376.65166459501381269 29.009497869018190385759 68.65472562534648659
30.009497869018190385759 378.46039394484643026 30.009497869018190385759 68.64457893400147270
31.009497869018190385759 380.19916319531984072 31.009497869018190385759 68.67413488125573906
32.009497869018190385759 381.86898467713399441 32.009497869018190385759 68.75164921599409240
33.009497869018218807469 383.46223726035975687 33.009497869018218807469 68.71670317861156718
34.009497869018190385759 384.98703623584992783 34.009497869018190385759 68.77388729333522122
35.009497869018218807469 386.45483395595579168 35.009497869018218807469 68.79378272447196707
36.009497869018190385759 387.87520299862165984 36.009497869018190385759 68.74962649751780930
37.009497869018218807469 389.25723877543282470 37.009497869018218807469 68.69989839662926556
38.009497869018190385759 390.59588619605528947 38.009497869018190385759 68.73863111838986129
39.009497869018190385759 391.89126682316549477 39.009497869018190385759 68.88996462054043945
40.009497869018190385759 393.14395942685490581 40.009497869018190385759 69.06741501406389716
41.009497869018190385759 394.35626414886684188 41.009497869018190385759 69.19795652327759683
42.009497869018190385759 395.52831343190962343 42.009497869018190385759 69.36795645852579639
43.009497869018190385759 396.66327518232145621 43.009497869018190385759 69.46824636609454728
44.009497869018218807469 397.77022115744330222 44.009497869018218807469 69.52394449399373855
46.009497869018218807469 399.90515644258363182 46.009497869018218807469 69.66947738733416884
48.009497869018218807469 401.94129148881154379 48.009497869018218807469 69.78603511364448764
50.009497869018218807469 403.86835891986322622 50.009497869018218807469 70.03987891338935867
52.009497869018190385759 405.69071251152445257 52.009497869018190385759 70.11888047440372418
54.009497869018190385759 407.41023328066472686 54.009497869018190385759 70.09695055061209246
56.009497869018190385759 409.05083925377249443 56.009497869018190385759 69.89835787689567326
58.009497869018190385759 410.62381828254416405 58.009497869018190385759 69.13155479206449172
60.009497869018190385759 412.12812549975296861 60.009497869018190385759 68.61084890833112127
62.009497869018190385759 413.55442983648998734 62.009497869018190385759 68.10272953569943866
64.009497869018190385759 414.90106534972483132 64.009497869018190385759 67.60867384506241251
66.009497869018218807469 416.17456655987780323 66.009497869018218807469 67.13679757776287715
68.009497869018218807469 417.34802761216121780 68.009497869018218807469 66.47939137521201758
70.009497869018218807469 418.45692740743515969 70.009497869018218807469 66.04811827440589411
72.009497869018218807469 419.51643181910310432 72.009497869018218807469 65.72156408024618202
74.009497869018190385759 420.53607599632579195 74.009497869018190385759 65.28777428993524268
76.009497869018190385759 421.51177115875611889 76.009497869018190385759 64.86228401044894554
78.009497869018190385759 422.44201585707281765 78.009497869018190385759 64.75826405017487275
80.009497869018190385759 423.33643784786738706 80.009497869018190385759 64.44589683758532317
82.009497869018190385759 424.21767321414688467 82.009497869018190385759 64.16847557393458601
84.009497869018190385759 425.06973020888386827 84.009497869018190385759 64.12511835531566362
86.009497869018190385759 425.89516062785548911 86.009497869018190385759 64.08638883496716687
88.009497869018218807469 426.69238171219080868 88.009497869018218807469 63.99703866010511888
91.009497869018190385759 427.83749783796037036 91.009497869018190385759 63.74207018360338139
94.009497869018218807469 428.92257171029376650 94.009497869018218807469 63.33332686461945826
97.009497869018190385759 429.95080366736340238 97.009497869018190385759 62.07420491034161358
99.504748934509109403734 430.74198287712488309 99.504748934509109403734 64.27402492481554930
nan nan nan nan

