Time Pressure difference Time.1 Pressure.1 difference.1
(hr) (psi) (hr) (psi)
0.000200000000006639311 0.30918433976637411 0.000200000000006639311 0.24852200676883524
0.000399999999999067768 0.61373750563637086 0.000399999999999067768 0.63023521300132079
0.000600000000005707079 0.91454204662257454 0.000600000000005707079 0.91276827378174608
0.000799999999998135536 1.21200782733209844 0.000799999999998135536 1.19506476035472020
0.001007140329434719206 1.51685969018258260 0.001007140329434719206 1.48592833735009955
0.001267914553963578328 1.89629598856361525 0.001267914553963578328 1.84729173857879658
0.001596209851982166583 2.36755782316862939 0.001596209851982166583 2.29115777263785469
0.002009509145224797066 2.95139572876664236 0.002009509145224797066 2.83383814598709893
0.002529822128138903281 3.67256142258261065 0.002529822128138903281 3.49369057543160277
0.003184857364431081805 4.56025766012754818 0.003184857364431081805 4.29079500831476501
0.004009497869020606231 5.64848058239128559 0.004009497869020606231 5.24627839177188982
0.005047658755842121536 6.97615819962276351 0.005047658755842121536 6.38113158308316919
0.006354625877790454069 8.58694733125738630 0.006354625877790454069 7.71438300527527065
0.008000000000009777068 10.52853025981064761 0.008000000000009777068 9.26052809475060279
0.010071403294347192059 12.85122690354327446 0.010071403294347192059 11.02610750781494708
0.012679145539706837553 15.60571448377897674 0.012679145539706837553 13.00558139722997275
0.015962098519750611558 18.83973839159117247 0.015962098519750611558 15.17691802222336150
0.020095091452091651263 22.59379899554824433 0.020095091452091651263 17.49770495958633987
0.025298221281360611101 26.89607055979742611 0.025298221281360611101 19.90275220915103915
0.031848573644296607199 31.75698375286777875 0.031848573644296607199 22.30578599030414821
0.040094978690177640601 37.16492485919124533 0.040094978690177640601 24.60491106990530952
0.050476587558421215363 43.08333515573546180 0.050476587558421215363 26.69506315101452998
0.063546258777961384112 49.45214602433348006 0.063546258777961384112 28.48375464962896331
0.079999999999998294697 56.19213037474445827 0.079999999999998294697 29.90784001510187551
0.100714032943542974863 63.21405602629773313 0.100714032943542974863 30.94813355328189175
0.126791455396897845276 70.42976096883144521 0.126791455396897845276 31.63204441544567658
0.159620985197506115583 77.76250666130813727 0.159620985197506115583 32.02771935068767561
0.200950914520760193227 85.15533492577485219 0.200950914520760193227 32.22850069969237552
0.252982212813478213320 92.57423905024879218 0.252982212813478213320 32.33214740742041471
0.318485736442795541734 100.00692538759911088 0.318485736442795541734 32.42397616834919916
0.400949786901833249431 107.45819360932767950 0.400949786901833249431 32.56644948386797012
0.504765875584155310207 114.94387530172110701 0.504765875584155310207 32.79472778160253910
0.635462587779443310865 122.48413896166769632 0.635462587779443310865 33.12533960703848379
0.799999999999997157829 130.10136589422984343 0.799999999999997157829 33.55767015132008879
1.007140329435344483500 137.81410556487111307 1.007140329435344483500 34.08193117017520279
1.267914553968893187630 145.63853383388052976 1.267914553968893187630 34.69110967726400929
1.596209851975103788391 153.58779499738375307 1.596209851975103788391 35.37800813944775769
2.009509145207672986544 161.67198022793490964 2.009509145207672986544 36.13943218601907148
2.529822128134711078928 169.89921336976348698 2.529822128134711078928 36.97684959495849455
3.184857364427998049905 178.27571760417652058 3.184857364427998049905 37.89395175889254119
4.009497869018190385759 186.80553478317571603 4.009497869018190385759 38.88846338273762626
5.009497869018204596614 195.19841348984101614 5.009497869018204596614 39.90602854294010626
6.009497869018204596614 202.15615306438257903 6.009497869018204596614 40.77724885842081193
7.009497869018204596614 208.10429783999418873 7.009497869018204596614 41.53665225128406036
8.009497869018204596614 213.29816500882370178 8.009497869018204596614 42.20817181293426756
9.009497869018204596614 217.90749215481298506 9.009497869018204596614 42.80518496300070552
10.009497869018190385759 222.04765377055920794 10.009497869018190385759 43.33378844622515658
11.009497869018190385759 225.80201129799672799 11.009497869018190385759 43.81987497942402143
12.009497869018190385759 229.23467440381574534 12.009497869018190385759 44.24116969627402796
13.009497869018190385759 232.39672800205440240 13.009497869018190385759 44.64260698514890890
14.009497869018190385759 235.31824644087822662 14.009497869018190385759 45.03515865272616736
15.009497869018190385759 238.04008160908301761 15.009497869018190385759 45.36080046623217754
16.009497869018204596614 240.58580412164846507 16.009497869018204596614 45.65204769357627868
17.009497869018204596614 242.96737143568455508 17.009497869018204596614 45.97526956456481884
18.009497869018204596614 245.20254102763300352 18.009497869018204596614 46.20819380702783974
19.009497869018204596614 247.31909890617811243 19.009497869018204596614 46.43399480494918663
20.009497869018204596614 249.32168806783082005 20.009497869018204596614 46.65034178098532180
21.009497869018204596614 251.21615711438400353 21.009497869018204596614 46.91265792981955229
22.009497869018190385759 253.00643851493006764 22.009497869018190385759 47.14981388030612663
23.009497869018190385759 254.71670666794341287 23.009497869018190385759 47.30091473013715131
24.009497869018190385759 256.35522989263546378 24.009497869018190385759 47.45658578552938422
25.009497869018190385759 257.92071898887689940 25.009497869018190385759 47.66702702640608891
26.009497869018190385759 259.41585045008531552 26.009497869018190385759 47.79986069813531202
27.009497869018204596614 260.84054527777362864 27.009497869018204596614 47.96380377275712448
28.009497869018190385759 262.20305390619591890 28.009497869018190385759 48.07765541906660189
29.009497869018190385759 263.51562355061599874 29.009497869018190385759 48.03269050280771069
30.009497869018190385759 264.78105919648771760 30.009497869018190385759 48.02559160494505619
31.009497869018190385759 265.99754887732262887 31.009497869018190385759 48.04626973968451153
32.009497869018190385759 267.16580084687547014 32.009497869018190385759 48.10050085074213655
33.009497869018218807469 268.28048315790096012 33.009497869018218807469 48.07605166414055731
34.009497869018190385759 269.34727348590246265 34.009497869018190385759 48.11605920709087769
35.009497869018218807469 270.37418420426013199 35.009497869018218807469 48.12997858521826089
36.009497869018190385759 271.36791254567748410 36.009497869018190385759 48.09908570255442584
37.009497869018218807469 272.33482190445391780 37.009497869018218807469 48.06429458719398440
38.009497869018190385759 273.27137560358352175 38.009497869018190385759 48.09139303991828029
39.009497869018190385759 274.17765869158034775 39.009497869018190385759 48.19727002369899793
40.009497869018190385759 275.05407609154963211 40.009497869018190385759 48.32141908633202121
41.009497869018190385759 275.90223704444974828 41.009497869018190385759 48.41274943326323665
42.009497869018190385759 276.72223421075767646 42.009497869018190385759 48.53168595512531880
43.009497869018190385759 277.51628394285546619 43.009497869018190385759 48.60185146881615026
44.009497869018218807469 278.29073308589784119 44.009497869018218807469 48.64081937546203704
46.009497869018218807469 279.78439116785239094 46.009497869018218807469 48.74263809748192955
48.009497869018218807469 281.20892594832901068 48.009497869018218807469 48.82418501421022938
50.009497869018218807469 282.55715409505353364 50.009497869018218807469 49.00178095619590835
52.009497869018190385759 283.83212162653296673 52.009497869018190385759 49.05705257071155501
54.009497869018190385759 285.03514455270385497 54.009497869018190385759 49.04170980686480164
56.009497869018190385759 286.18295656747136491 56.009497869018190385759 48.90276903700723210
58.009497869018190385759 287.28345495513815422 58.009497869018190385759 48.36629299817944627
60.009497869018190385759 288.33590869852122296 60.009497869018190385759 48.00199317280628009
62.009497869018190385759 289.33378953112639920 62.009497869018190385759 47.64649920874494171
64.009497869018190385759 290.27593191445293996 64.009497869018190385759 47.30084457443731338
66.009497869018218807469 291.16690757454136929 66.009497869018218807469 46.97070726056171708
68.009497869018218807469 291.98789245253817626 68.009497869018218807469 46.51076821959796348
70.009497869018218807469 292.76370854064953164 70.009497869018218807469 46.20903797183247974
72.009497869018218807469 293.50496629135005833 72.009497869018218807469 45.98057188450059840
74.009497869018190385759 294.21833675116079121 74.009497869018190385759 45.67708089314500342
76.009497869018190385759 294.90095929950285836 76.009497869018190385759 45.37939646253425252
78.009497869018190385759 295.55178348209381056 78.009497869018190385759 45.30662130376039443
80.009497869018190385759 296.17754513610123013 80.009497869018190385759 45.08808080987779476
82.009497869018190385759 296.79408107333040334 82.009497869018190385759 44.89398944071916731
84.009497869018190385759 297.39020303793182620 84.009497869018190385759 44.86365556575255908
86.009497869018190385759 297.96769633478692185 86.009497869018190385759 44.83655935282218508
88.009497869018218807469 298.52545362326782197 88.009497869018218807469 44.77404757003622393
91.009497869018190385759 299.32660762916998465 91.009497869018190385759 44.59566477397624595
94.009497869018218807469 300.08575446149285426 94.009497869018218807469 44.30969696685129833
97.009497869018190385759 300.80513316280087110 97.009497869018190385759 43.42878142048154189
99.504748934509109403734 301.35866339351082388 99.504748934509109403734 44.96783460224968820
nan nan nan nan

