Time Pressure difference Time.1 Pressure.1 difference.1
(hr) (psi) (hr) (psi)
0.000200000000006639311 0.58126655876078326 0.000200000000006639311 0.46722137272541026
0.000399999999999067768 1.15382651059637742 0.000399999999999067768 1.18484220044248323
0.000600000000005707079 1.71933904765044021 0.000600000000005707079 1.71600435470968260
0.000799999999998135536 2.27857471538434542 0.000799999999998135536 2.24672174946687431
0.001007140329434719206 2.85169621754325586 0.001007140329434719206 2.79354527421818766
0.001267914553963578328 3.56503645849959661 0.001267914553963578328 3.47290846852813750
0.001596209851982166583 4.45100870755702349 0.001596209851982166583 4.30737661255916660
0.002009509145224797066 5.54862397008128827 0.002009509145224797066 5.32761571445574678
0.002529822128138903281 6.90441547445530901 0.002529822128138903281 6.56813828181141357
0.003184857364431081805 8.57328440103979084 0.003184857364431081805 8.06669461563175894
0.004009497869020606231 10.61914349489561715 0.004009497869020606231 9.86300337653115200
0.005047658755842121536 13.11517741529079295 0.005047658755842121536 11.99652737619635978
0.006354625877790454069 16.14346098276388375 0.006354625877790454069 14.50304004991750872
0.008000000000009777068 19.79363688844401992 0.008000000000009777068 17.40979281813113033
0.010071403294347192059 24.16030657866135911 0.010071403294347192059 20.72908211469209760
0.012679145539706837553 29.33874322950447322 0.012679145539706837553 24.45049302679235126
0.015962098519750611558 35.41870817619140865 0.015962098519750611558 28.53260588177991508
0.020095091452091651263 42.47634211163070006 0.020095091452091651263 32.89568532402232393
0.025298221281360611101 50.56461265241915726 0.025298221281360611101 37.41717415320395901
0.031848573644296607199 59.70312945539141936 0.031848573644296607199 41.93487766177180021
0.040094978690177640601 69.87005873527954236 0.040094978690177640601 46.25723281142197862
0.050476587558421215363 80.99667009278266505 0.050476587558421215363 50.18671872390731181
0.063546258777961384112 92.97003452574693938 0.063546258777961384112 53.54945874130245187
0.079999999999998294697 105.64120510451958523 0.079999999999998294697 56.22673922839152993
0.100714032943542974863 118.84242532943973458 0.100714032943542974863 58.18249108016995308
0.126791455396897845276 132.40795062140310279 0.126791455396897845276 59.46824350103787538
0.159620985197506115583 146.19351252325927248 0.159620985197506115583 60.21211237929284010
0.200950914520760193227 160.09202966045668859 0.200950914520760193227 60.58958131542166825
0.252982212813478213320 174.03956941446776341 0.252982212813478213320 60.78443712595038306
0.318485736442795541734 188.01301972868631651 0.318485736442795541734 60.95707519649649697
0.400949786901833249431 202.02140398553603973 0.400949786901833249431 61.22492502967178041
0.504765875584155310207 216.09448556723566526 0.504765875584155310207 61.65408822941277123
0.635462587779443310865 230.27018124793525544 0.635462587779443310865 62.27563846123235436
0.799999999999997157829 244.59056788115208292 0.799999999999997157829 63.08841988448176608
1.007140329435344483500 259.09051846195768576 1.007140329435344483500 64.07403059992937244
1.267914553968893187630 273.80044360769539935 1.267914553968893187630 65.21928619325633747
1.596209851975103788391 288.74505459508145577 1.596209851975103788391 66.51065530216177990
2.009509145207672986544 303.94332282851763694 2.009509145207672986544 67.94213250971584728
2.529822128134711078928 319.41052113515542032 2.529822128134711078928 69.51647723852197203
3.184857364427998049905 335.15834909585186097 3.184857364427998049905 71.24062930671797744
4.009497869018190385759 351.19440539237029952 4.009497869018190385759 73.11031115954673965
5.009497869018204596614 366.97301736090111035 5.009497869018204596614 75.02333366072738841
6.009497869018204596614 380.05356776103923266 6.009497869018204596614 76.66122785383113580
7.009497869018204596614 391.23607993918909642 7.009497869018204596614 78.08890623241404683
8.009497869018204596614 401.00055021658852183 8.009497869018204596614 79.35136300831642586
9.009497869018204596614 409.66608525104840055 9.009497869018204596614 80.47374773044133178
10.009497869018190385759 417.44958908865123703 10.009497869018190385759 81.46752227890330289
11.009497869018190385759 424.50778124023383953 11.009497869018190385759 82.38136496131716058
12.009497869018190385759 430.96118787917356485 12.009497869018190385759 83.17339902899519188
13.009497869018190385759 436.90584864386232766 13.009497869018190385759 83.92810113207994505
14.009497869018190385759 442.39830330885109788 14.009497869018190385759 84.66609826712519293
15.009497869018190385759 447.51535342507605719 15.009497869018190385759 85.27830487651650060
16.009497869018204596614 452.30131174869910637 16.009497869018204596614 85.82584966392342096
17.009497869018204596614 456.77865829908688511 17.009497869018204596614 86.43350678138185117
18.009497869018204596614 460.98077713195004890 18.009497869018204596614 86.87140435721232734
19.009497869018204596614 464.95990594361484227 19.009497869018204596614 87.29591023330446831
20.009497869018204596614 468.72477356752187916 20.009497869018204596614 87.70264254825239902
21.009497869018204596614 472.28637537504198463 21.009497869018204596614 88.19579690806075689
22.009497869018190385759 475.65210440806856695 22.009497869018190385759 88.64165009497553172
23.009497869018190385759 478.86740853573371623 23.009497869018190385759 88.92571969265785015
24.009497869018190385759 481.94783219815474240 24.009497869018190385759 89.21838127679525599
25.009497869018190385759 484.89095169908858907 25.009497869018190385759 89.61401080964344601
26.009497869018190385759 487.70179884616044319 26.009497869018190385759 89.86373811249438859
27.009497869018204596614 490.38022512221448324 27.009497869018204596614 90.17195109278340226
28.009497869018190385759 492.94174134364834572 28.009497869018190385759 90.38599218784521838
29.009497869018190385759 495.40937227515809127 29.009497869018190385759 90.30145814527848813
30.009497869018190385759 497.78839128939694092 30.009497869018190385759 90.28811221729671388
31.009497869018190385759 500.07539188936652863 31.009497869018190385759 90.32698711060687913
32.009497869018190385759 502.27170559212584067 32.009497869018190385759 90.42894159939521614
33.009497869018218807469 504.36730833685379594 33.009497869018218807469 90.38297712858425825
34.009497869018190385759 506.37287415349663888 34.009497869018190385759 90.45819130933085717
35.009497869018218807469 508.30346630400907770 35.009497869018218807469 90.48435974021032280
36.009497869018190385759 510.17167558587368603 36.009497869018190385759 90.42628112080234359
37.009497869018218807469 511.98946518037342912 37.009497869018218807469 90.36087382392469181
38.009497869018190385759 513.75018613473696405 38.009497869018190385759 90.41181891504636781
39.009497869018190385759 515.45399834017109697 39.009497869018190385759 90.61086764455411924
40.009497869018190385759 517.10166305211328108 40.009497869018190385759 90.84426788230419447
41.009497869018190385759 518.69620564356557679 41.009497869018190385759 91.01596893453488235
42.009497869018190385759 520.23780031622447950 42.009497869018190385759 91.23956959563560076
43.009497869018190385759 521.73061381256832192 43.009497869018190385759 91.37148076137435737
44.009497869018218807469 523.18657820148791870 44.009497869018218807469 91.44474042586863050
46.009497869018218807469 525.99465539556240401 46.009497869018218807469 91.63615962326603892
48.009497869018218807469 528.67278078285846732 48.009497869018218807469 91.78946782671522442
50.009497869018218807469 531.20744969870077057 50.009497869018218807469 92.12334819764832616
52.009497869018190385759 533.60438865788205476 52.009497869018190385759 92.22725883293772142
54.009497869018190385759 535.86607175908329737 54.009497869018190385759 92.19841443690582139
56.009497869018190385759 538.02395834684625697 56.009497869018190385759 91.93720578957359635
58.009497869018190385759 540.09289531565968900 58.009497869018190385759 90.92863083657735501
60.009497869018190385759 542.07150835321976956 60.009497869018190385759 90.24374716487581338
62.009497869018190385759 543.94752431851759411 62.009497869018190385759 89.57541851244049269
64.009497869018190385759 545.71875199917167265 64.009497869018190385759 88.92558779994215001
66.009497869018218807469 547.39378624013784247 66.009497869018218807469 88.30492964985603521
68.009497869018218807469 548.93723781077176227 68.009497869018218807469 87.44024425284416679
70.009497869018218807469 550.39577205642126501 70.009497869018218807469 86.87299138704507584
72.009497869018218807469 551.78933662773818014 72.009497869018218807469 86.44347514286113210
74.009497869018190385759 553.13047309218222836 74.009497869018190385759 85.87291207911259505
76.009497869018190385759 554.41380348306540782 76.009497869018190385759 85.31326534956438934
78.009497869018190385759 555.63735294633636386 78.009497869018190385759 85.17644805106954209
80.009497869018190385759 556.81378485587026717 80.009497869018190385759 84.76559192257025188
82.009497869018190385759 557.97287241786114009 82.009497869018190385759 84.40070014855203340
84.009497869018190385759 559.09358171131179915 84.009497869018190385759 84.34367246361482273
86.009497869018190385759 560.17926910939945628 86.009497869018190385759 84.29273158330569515
88.009497869018218807469 561.22785281174355987 88.009497869018218807469 84.17520943166809388
91.009497869018190385759 562.73402234283969392 91.009497869018190385759 83.83984977507535064
94.009497869018218807469 564.16121838760648188 94.009497869018218807469 83.30223029768045251
97.009497869018190385759 565.51365034606567406 97.009497869018190385759 81.64610907050530386
99.504748934509109403734 566.55428717980043984 99.504748934509109403734 84.53952905222941183
nan nan nan nan

