Time Pressure difference Time.1 Pressure.1 difference.1
(hr) (psi) (hr) (psi)
0.000200000000006639311 0.23745357294057531 0.000200000000006639311 0.19086490119846547
0.000399999999999067768 0.47135040432873287 0.000399999999999067768 0.48402064358501440
0.000600000000005707079 0.70236829180613725 0.000600000000005707079 0.70100603426438102
0.000799999999998135536 0.93082201139105158 0.000799999999998135536 0.91780973595242510
0.001007140329434719206 1.16494824206022352 0.001007140329434719206 1.14119296308487650
0.001267914553963578328 1.45635531921685657 0.001267914553963578328 1.41872005522851574
0.001596209851982166583 1.81828440819350767 0.001596209851982166583 1.75960916938587220
0.002009509145224797066 2.26667191969278159 0.002009509145224797066 2.17638769611809213
0.002529822128138903281 2.82052717254344554 0.002529822128138903281 2.68315436193147105
0.003184857364431081805 3.50227788297795728 0.003184857364431081805 3.29533056638573951
0.004009497869020606231 4.33803308727650805 0.004009497869020606231 4.02914180488081097
0.005047658755842121536 5.35768949731028243 0.005047658755842121536 4.90070905580787475
0.006354625877790454069 6.59477555040567154 0.006354625877790454069 5.92464614805140766
0.008000000000009777068 8.08591123953457824 0.008000000000009777068 7.11208557676846187
0.010071403294347192059 9.86974226192123538 0.010071403294347192059 8.46805056600187811
0.012679145539706837553 11.98518872354225273 0.012679145539706837553 9.98828651307262128
0.015962098519750611558 14.46891908474202104 0.015962098519750611558 11.65587304106754019
0.020095091452091651263 17.35203762858105137 0.020095091452091651263 13.43823740896231023
0.025298221281360611101 20.65618218992442223 0.025298221281360611101 15.28531369662800010
0.031848573644296607199 24.38936352220245141 0.031848573644296607199 17.13084364055358577
0.040094978690177640601 28.54266229185887482 0.040094978690177640601 18.89657170168727518
0.050476587558421215363 33.08800139960483477 0.050476587558421215363 20.50180849997915900
0.063546258777961384112 37.97924814668810711 0.063546258777961384112 21.87552357091504618
0.079999999999998294697 43.15555612780374162 0.079999999999998294697 22.96922113159823908
0.100714032943542974863 48.54839502819666563 0.100714032943542974863 23.76816656892049195
0.126791455396897845276 54.09005642406254566 0.126791455396897845276 24.29341011106228265
0.159620985197506115583 59.72160511588464260 0.159620985197506115583 24.59728846132814084
0.200950914520760193227 65.39929722299508796 0.200950914520760193227 24.75148853736374477
0.252982212813478213320 71.09701559059107012 0.252982212813478213320 24.83108920889887727
0.318485736442795541734 76.80531869767611397 0.318485736442795541734 24.90161369729218421
0.400949786901833249431 82.52789269196365751 0.400949786901833249431 25.01103320361059801
0.504765875584155310207 88.27689623172180688 0.504765875584155310207 25.18635093627074895
0.635462587779443310865 94.06781872256078714 0.635462587779443310865 25.44026081820555873
0.799999999999997157829 99.91784900676852033 0.799999999999997157829 25.77229067621382796
1.007140329435344483500 105.84123307382101586 1.007140329435344483500 26.17492313869455245
1.267914553968893187630 111.85039398442025060 1.267914553968893187630 26.64277223213876056
1.596209851975103788391 117.95542655799071952 1.596209851975103788391 27.17031025109587716
2.009509145207672986544 124.16408081505400673 2.009509145207672986544 27.75508391886264192
2.529822128134711078928 130.48259586797837528 2.529822128134711078928 28.39822048892812489
3.184857364427998049905 136.91575112000759873 3.184857364427998049905 29.10255495082947164
4.009497869018190385759 143.46665071347894127 4.009497869018190385759 29.86633987794250089
5.009497869018204596614 149.91238156019790040 5.009497869018204596614 30.64782992097800118
6.009497869018204596614 155.25592555344582024 6.009497869018204596614 31.31692712326718464
7.009497869018204596614 159.82410074111555787 7.009497869018204596614 31.90014892898615884
8.009497869018204596614 163.81299072677657591 8.009497869018204596614 32.41587595233351493
9.009497869018204596614 167.35295397489636571 9.009497869018204596614 32.87438205158454707
10.009497869018190385759 170.53259809578943873 10.009497869018190385759 33.28034952670092395
11.009497869018190385759 173.41594467686149983 11.009497869018190385759 33.65366398419764948
12.009497869018190385759 176.05222994213050924 12.009497869018190385759 33.97721832673845910
13.009497869018190385759 178.48068710557780037 13.009497869018190385759 34.28552216459436153
14.009497869018190385759 180.72441326659446759 14.009497869018190385759 34.58700184529369892
15.009497869018190385759 182.81478267577577412 15.009497869018190385759 34.83709475806631417
16.009497869018204596614 184.76989756542602095 16.009497869018204596614 35.06077262866658373
17.009497869018204596614 186.59894126260573444 17.009497869018204596614 35.30900702558578530
18.009497869018204596614 188.31555150922213215 18.009497869018204596614 35.48789284379738262
19.009497869018204596614 189.94106795994477466 19.009497869018204596614 35.66130801020097607
20.009497869018204596614 191.47905643609405502 20.009497869018204596614 35.82746248779672271
21.009497869018204596614 192.93400866384692449 21.009497869018204596614 36.02892129010141531
22.009497869018190385759 194.30894477946631582 22.009497869018190385759 36.21105706007510605
23.009497869018190385759 195.62243072098058860 23.009497869018190385759 36.32710251274533420
24.009497869018190385759 196.88081655754407961 24.009497869018190385759 36.44665788328656930
25.009497869018190385759 198.08311218345747307 25.009497869018190385759 36.60827675627987787
26.009497869018190385759 199.23137314566554323 26.009497869018190385759 36.71029301616792395
27.009497869018204596614 200.32553877333015180 27.009497869018204596614 36.83620129747747285
28.009497869018190385759 201.37194539995846299 28.009497869018190385759 36.92363936184315065
29.009497869018190385759 202.37999888687309635 29.009497869018190385759 36.88910630615632158
30.009497869018190385759 203.35185346290256803 30.009497869018190385759 36.88365435259780156
31.009497869018190385759 204.28611753778378102 31.009497869018190385759 36.89953516007771128
32.009497869018190385759 205.18333505040033060 32.009497869018190385759 36.94118465336996593
33.009497869018218807469 206.03941106526792737 33.009497869018218807469 36.92240767805995461
34.009497869018190385759 206.85870603717310701 34.009497869018190385759 36.95313347104579549
35.009497869018218807469 207.64737346887176273 35.009497869018218807469 36.96382355344762516
36.009497869018190385759 208.41055683508028551 36.009497869018190385759 36.94009781956180660
37.009497869018218807469 209.15314322262062774 37.009497869018218807469 36.91337824296498127
38.009497869018190385759 209.87241646355209923 38.009497869018190385759 36.93418985465724091
39.009497869018190385759 210.56844187513368638 39.009497869018190385759 37.01550337820083314
40.009497869018190385759 211.24153043831009313 40.009497869018190385759 37.11084985830299132
41.009497869018190385759 211.89291805013741055 41.009497869018190385759 37.18099156474617217
42.009497869018190385759 212.52267587386188552 42.009497869018190385759 37.27233481353624711
43.009497869018190385759 213.13250606811300258 43.009497869018190385759 37.32622192805079919
44.009497869018218807469 213.72728300996953976 44.009497869018218807469 37.35614928035484894
46.009497869018218807469 214.87441241691061578 46.009497869018218807469 37.43434605886612587
48.009497869018218807469 215.96845512831666269 48.009497869018218807469 37.49697409091345435
50.009497869018218807469 217.00389434500112884 50.009497869018218807469 37.63336777435846159
52.009497869018190385759 217.98306940917734664 52.009497869018190385759 37.67581637430647135
54.009497869018190385759 218.90699101647655311 54.009497869018190385759 37.66403313167216993
56.009497869018190385759 219.78851064381802871 56.009497869018190385759 37.55732662042155567
58.009497869018190385759 220.63369340554612563 58.009497869018190385759 37.14531302260181889
60.009497869018190385759 221.44197788046429309 60.009497869018190385759 36.86553075671522350
62.009497869018190385759 222.20835035990506867 62.009497869018190385759 36.59251139231611916
64.009497869018190385759 222.93191571029990428 64.009497869018190385759 36.32704863316786259
66.009497869018218807469 223.61618501724780117 66.009497869018218807469 36.07350317611139445
68.009497869018218807469 224.24670140354933778 68.009497869018218807469 35.72026999265123237
70.009497869018218807469 224.84252815921888669 70.009497869018218807469 35.48854116236734768
72.009497869018218807469 225.41181411175688254 72.009497869018218807469 35.31307920729646099
74.009497869018190385759 225.95968262489145673 74.009497869018190385759 35.07999812593535438
76.009497869018190385759 226.48393674201821568 76.009497869018190385759 34.85137648322630355
78.009497869018190385759 226.98376971424806925 78.009497869018190385759 34.79548516128798497
80.009497869018190385759 227.46435466452575724 80.009497869018190385759 34.62764606198614814
82.009497869018190385759 227.93785426431773544 82.009497869018190385759 34.47858389047232208
84.009497869018190385759 228.39567593313165617 84.009497869018190385759 34.45528747449796469
86.009497869018190385759 228.83919078511638645 86.009497869018190385759 34.43447758296743899
88.009497869018218807469 229.26754838266970182 88.009497869018218807469 34.38646853378781998
91.009497869018190385759 229.88283465920255821 91.009497869018190385759 34.24947054641375388
94.009497869018218807469 230.46585942642650480 94.009497869018218807469 34.02984727054179359
97.009497869018190385759 231.01834226903108060 97.009497869018190385759 33.35330413092982837
99.504748934509109403734 231.44345348621632752 99.504748934509109403734 34.53529697452776048
nan nan nan nan

