Time Pressure difference Time.1 Pressure.1 difference.1
(hr) (psi) (hr) (psi)
0.000200000000006639311 0.22096374148636871 0.000200000000006639311 0.17761039417079424
0.000399999999999067768 0.43861773736145976 0.000399999999999067768 0.45040809889161065
0.000600000000005707079 0.65359271598626667 0.000600000000005707079 0.65232505966268783
0.000799999999998135536 0.86618159393333971 0.000799999999998135536 0.85407294873350670
0.001007140329434719206 1.08404905858381917 0.001007140329434719206 1.06194345175953786
0.001267914553963578328 1.35521953316013022 0.001267914553963578328 1.32019782917097994
0.001596209851982166583 1.69201465762451408 0.001596209851982166583 1.63741408817851997
0.002009509145224797066 2.10926414749189384 0.002009509145224797066 2.02524966166544695
0.002529822128138903281 2.62465723000570561 0.002529822128138903281 2.49682419790845200
0.003184857364431081805 3.25906414110448805 0.003184857364431081805 3.06648816594228535
0.004009497869020606231 4.03678078954897224 0.004009497869020606231 3.74934029065297691
0.005047658755842121536 4.98562772666373455 0.005047658755842121536 4.56038203804343922
0.006354625877790454069 6.13680502607194445 0.006354625877790454069 5.51321238777005984
0.008000000000009777068 7.52438962567801006 0.008000000000009777068 6.61819074504843119
0.010071403294347192059 9.18434349373226055 0.010071403294347192059 7.87999149891841633
0.012679145539706837553 11.15288395107404007 0.012679145539706837553 9.29465550522035500
0.015962098519750611558 13.46413303719049104 0.015962098519750611558 10.84643741321562871
0.020095091452091651263 16.14703501548514453 0.020095091452091651263 12.50502647778437293
0.025298221281360611101 19.22172509340189350 0.025298221281360611101 14.22383357880661059
0.031848573644296607199 22.69565772204950704 0.031848573644296607199 15.94120172107069955
0.040094978690177640601 26.56053296603534264 0.040094978690177640601 17.58430977795899253
0.050476587558421215363 30.79022352463227818 0.050476587558421215363 19.07807179859171498
0.063546258777961384112 35.34180035872365266 0.063546258777961384112 20.35638998960150303
0.079999999999998294697 40.15864250781737610 0.079999999999998294697 21.37413633079280828
0.100714032943542974863 45.17697870679411665 0.100714032943542974863 22.11759944607879191
0.126791455396897845276 50.33380250572486858 0.126791455396897845276 22.60636774223851120
0.159620985197506115583 55.57427142728154479 0.159620985197506115583 22.88914342929146528
0.200950914520760193227 60.85767936028709357 0.200950914520760193227 23.03263516671348654
0.252982212813478213320 66.15972284124447356 0.252982212813478213320 23.10670801383645667
0.318485736442795541734 71.47161601033749889 0.318485736442795541734 23.17233496831356021
0.400949786901833249431 76.79678903279952351 0.400949786901833249431 23.27415589780430949
0.504765875584155310207 82.14655621563001375 0.504765875584155310207 23.43729878791861410
0.635462587779443310865 87.53533131127184674 0.635462587779443310865 23.67357603916350683
0.799999999999997157829 92.97910949240959155 0.799999999999997157829 23.98254826814342167
1.007140329435344483500 98.49114744369455821 1.007140329435344483500 24.35722014295187776
1.267914553968893187630 104.08300551327995720 1.267914553968893187630 24.79257971601801103
1.596209851975103788391 109.76407749146359549 1.596209851975103788391 25.28348315032532767
2.009509145207672986544 115.54157520289749073 2.009509145207672986544 25.82764753560829263
2.529822128134711078928 121.42130448825766109 2.529822128134711078928 26.42612184386367247
3.184857364427998049905 127.40771284778483619 3.184857364427998049905 27.08154419035520277
4.009497869018190385759 133.50368885837625044 4.009497869018190385759 27.79228849752982811
5.009497869018204596614 139.50179950740636059 5.009497869018204596614 28.51950839868786147
6.009497869018204596614 144.47426405667877702 6.009497869018204596614 29.14214051748474077
7.009497869018204596614 148.72520485631585530 7.009497869018204596614 29.68486080891767642
8.009497869018204596614 152.43708859297265690 8.009497869018204596614 30.16477345564369017
9.009497869018204596614 155.73122105997302356 9.009497869018204596614 30.59143885355784320
10.009497869018190385759 158.69005656135962568 10.009497869018190385759 30.96921414290224561
11.009497869018190385759 161.37317074096833380 11.009497869018190385759 31.31660398529503198
12.009497869018190385759 163.82638064059364069 12.009497869018190385759 31.61768927627051085
13.009497869018190385759 166.08619494546823603 13.009497869018190385759 31.90458312538642005
14.009497869018190385759 168.17410678974763982 14.009497869018190385759 32.18512671714830020
15.009497869018190385759 170.11931165662468857 15.009497869018190385759 32.41785206653393203
16.009497869018204596614 171.93865467893809296 16.009497869018204596614 32.62599675167585644
17.009497869018204596614 173.64068145270255172 17.009497869018204596614 32.85699264880899051
18.009497869018204596614 175.23808265441502385 18.009497869018204596614 33.02345584075589358
19.009497869018204596614 176.75071601828193479 19.009497869018204596614 33.18482828727034928
20.009497869018204596614 178.18189973914306279 20.009497869018204596614 33.33944425947751000
21.009497869018204596614 179.53581361774644165 21.009497869018204596614 33.52691286717770680
22.009497869018190385759 180.81526805867002849 22.009497869018190385759 33.69640031979211869
23.009497869018190385759 182.03753969869023877 23.009497869018190385759 33.80438706047134900
24.009497869018190385759 183.20853762993684200 24.009497869018190385759 33.91563997472500347
25.009497869018190385759 184.32734050405071002 25.009497869018190385759 34.06603531487154868
26.009497869018190385759 185.39586112166097109 26.009497869018190385759 34.16096711226737170
27.009497869018204596614 186.41404302518222380 27.009497869018204596614 34.27813176293042119
28.009497869018190385759 187.38778252496135224 28.009497869018190385759 34.35949773949293018
29.009497869018190385759 188.32583229750690634 29.009497869018190385759 34.32736281267324330
30.009497869018190385759 189.23019697242321513 30.009497869018190385759 34.32228946700073635
31.009497869018190385759 190.09958159765992036 31.009497869018190385759 34.33706744062786953
32.009497869018190385759 190.93449233856699720 32.009497869018190385759 34.37582460799704620
33.009497869018218807469 191.73111863017987844 33.009497869018218807469 34.35835158930578359
34.009497869018190385759 192.49351811792496392 34.009497869018190385759 34.38694364666761061
35.009497869018218807469 193.22741697797789584 35.009497869018218807469 34.39689136223598354
36.009497869018190385759 193.93760149931082992 36.009497869018190385759 34.37481324875890465
37.009497869018218807469 194.62861938771641235 37.009497869018218807469 34.34994919831463278
38.009497869018190385759 195.29794309802764474 38.009497869018190385759 34.36931555919493064
39.009497869018190385759 195.94563341158274739 39.009497869018190385759 34.44498231027021973
40.009497869018190385759 196.57197971342745291 40.009497869018190385759 34.53370750703194858
41.009497869018190385759 197.17813207443342094 41.009497869018190385759 34.59897826163879841
42.009497869018190385759 197.76415671595481172 42.009497869018190385759 34.68397822926289820
43.009497869018190385759 198.33163759116072811 43.009497869018190385759 34.73412318304727364
44.009497869018218807469 198.88511057872165111 44.009497869018218807469 34.76197224699686927
46.009497869018218807469 199.95257822129181591 46.009497869018218807469 34.83473869366708442
48.009497869018218807469 200.97064574440577189 48.009497869018218807469 34.89301755682224382
50.009497869018218807469 201.93417945993161311 50.009497869018218807469 35.01993945669467934
52.009497869018190385759 202.84535625576222628 52.009497869018190385759 35.05944023720186209
54.009497869018190385759 203.70511664033236343 54.009497869018190385759 35.04847527530604623
56.009497869018190385759 204.52541962688624722 56.009497869018190385759 34.94917893844783663
58.009497869018190385759 205.31190914127208202 58.009497869018190385759 34.56577739603224586
60.009497869018190385759 206.06406274987648430 60.009497869018190385759 34.30542445416556063
62.009497869018190385759 206.77721491824499367 62.009497869018190385759 34.05136476784971933
64.009497869018190385759 207.45053267486241566 64.009497869018190385759 33.80433692253120626
66.009497869018218807469 208.08728327993890161 66.009497869018218807469 33.56839878888143858
68.009497869018218807469 208.67401380608060890 68.009497869018218807469 33.23969568760600879
70.009497869018218807469 209.22846370371757985 70.009497869018218807469 33.02405913720294706
72.009497869018218807469 209.75821590955155216 72.009497869018218807469 32.86078204012309101
74.009497869018190385759 210.26803799816289597 74.009497869018190385759 32.64388714496762134
76.009497869018190385759 210.75588557937805945 76.009497869018190385759 32.43114200522447277
78.009497869018190385759 211.22100792853640883 78.009497869018190385759 32.37913202508743638
80.009497869018190385759 211.66821892393369353 80.009497869018190385759 32.22294841879266158
82.009497869018190385759 212.10883660707344234 82.009497869018190385759 32.08423778696729300
84.009497869018190385759 212.53486510444193414 84.009497869018190385759 32.06255917765783181
86.009497869018190385759 212.94758031392774456 86.009497869018190385759 32.04319441748358344
88.009497869018218807469 213.34619085609540434 88.009497869018218807469 31.99851933005255944
91.009497869018190385759 213.91874891898018518 91.009497869018190385759 31.87103509180169070
94.009497869018218807469 214.46128585514688325 94.009497869018218807469 31.66666343230972913
97.009497869018190385759 214.97540183368170119 97.009497869018190385759 31.03710245517080679
99.504748934509109403734 215.37099143856244154 99.504748934509109403734 32.13701246240777465
nan nan nan nan

