Time Pressure difference Time.1 Pressure.1 difference.1
(hr) (psi) (hr) (psi)
0.000200000000006639311 0.40400087062806217 0.000200000000006639311 0.32473542217794471
0.000399999999999067768 0.80195034069819127 0.000399999999999067768 0.82350734498839262
0.000600000000005707079 1.19500160758683083 0.000600000000005707079 1.19268387774148166
0.000799999999998135536 1.58369022771394197 0.000799999999998135536 1.56155128686350109
0.001007140329434719206 1.98202999517190825 0.001007140329434719206 1.94161302747079678
0.001267914553963578328 2.47782675838979038 0.001267914553963578328 2.41379453840962732
0.001596209851982166583 3.09360888894034280 0.001596209851982166583 2.99377948958012974
0.002009509145224797066 3.85649041892174615 0.002009509145224797066 3.70288184408980969
0.002529822128138903281 4.79881359217461156 0.002529822128138903281 4.56508901856396054
0.003184857364431081805 5.95873667589999645 0.003184857364431081805 5.60663881086462723
0.004009497869020606231 7.38068129432461362 0.004009497869020606231 6.85513709858193554
0.005047658755842121536 9.11551338084040985 0.005047658755842121536 8.33801193522867479
0.006354625877790454069 11.22027784617631596 0.006354625877790454069 10.08012712689302148
0.008000000000009777068 13.75727953948591420 0.008000000000009777068 12.10042337714078720
0.010071403294347192059 16.79226982062987972 0.010071403294347192059 14.40744714354486433
0.012679145539706837553 20.39146692547119599 0.012679145539706837553 16.99395969238049986
0.015962098519750611558 24.61725816501246555 0.015962098519750611558 19.83117288237185960
0.020095091452091651263 29.52256402084970333 0.020095091452091651263 22.86366781385948954
0.025298221281360611101 35.14419886480196453 0.025298221281360611101 26.00626288662402530
0.031848573644296607199 41.49579210374723459 0.031848573644296607199 29.14622702733075599
0.040094978690177640601 48.56216848267656161 0.040094978690177640601 32.15041713134293389
0.050476587558421215363 56.29555793682767018 0.050476587558421215363 34.88154918399231974
0.063546258777961384112 64.61747080512907360 0.063546258777961384112 37.21877274218184795
0.079999999999998294697 73.42438368966608664 0.079999999999998294697 39.07957761973312216
0.100714032943542974863 82.59969987436237204 0.100714032943542974863 40.43889450962166876
0.126791455396897845276 92.02822099927308841 0.126791455396897845276 41.33253803618234912
0.159620985197506115583 101.60967537077596035 0.159620985197506115583 41.84955328489856896
0.200950914520760193227 111.26963763634579152 0.200950914520760193227 42.11190758093137276
0.252982212813478213320 120.96367235899177217 0.252982212813478213320 42.24733927902934738
0.318485736442795541734 130.67571583979616889 0.318485736442795541734 42.36732885997628983
0.400949786901833249431 140.41203964952148908 0.400949786901833249431 42.55349399225414686
0.504765875584155310207 150.19333039424890330 0.504765875584155310207 42.85177763462731804
0.635462587779443310865 160.04594157657913911 0.635462587779443310865 43.28377708653029288
0.799999999999997157829 169.99911810179366967 0.799999999999997157829 43.84868899772491346
1.007140329435344483500 180.07709793809826238 1.007140329435344483500 44.53372339569558847
1.267914553968893187630 190.30101754293724525 1.267914553968893187630 45.32971664495830311
1.596209851975103788391 200.68805212991478015 1.596209851975103788391 46.22726396887840394
2.009509145207672986544 211.25138749783496905 2.009509145207672986544 47.22219138973157726
2.529822128134711078928 222.00163880315764686 2.529822128134711078928 48.31641680407909689
3.184857364427998049905 232.94693766945735547 3.184857364427998049905 49.51476363161958716
4.009497869018190385759 244.09256545001622385 4.009497869018190385759 50.81425882011050277
5.009497869018204596614 255.05926029339224215 5.009497869018204596614 52.14387729610839983
6.009497869018204596614 264.15070667079322675 6.009497869018204596614 53.28227184166986774
7.009497869018204596614 271.92294917759244299 7.009497869018204596614 54.27455894167783867
8.009497869018204596614 278.70960227819625743 8.009497869018204596614 55.15201116890077770
9.009497869018204596614 284.73245641562232322 9.009497869018204596614 55.93210835165425721
10.009497869018190385759 290.14226759353067564 10.009497869018190385759 56.62281690306754456
11.009497869018190385759 295.04796142938238290 11.009497869018190385759 57.25796997311405079
12.009497869018190385759 299.53330788765259740 12.009497869018190385759 57.80846173646473574
13.009497869018190385759 303.66505792268441155 13.009497869018190385759 58.33300646059457506
14.009497869018190385759 307.48250868274755021 14.009497869018190385759 58.84594063956220111
15.009497869018190385759 311.03903996920183772 15.009497869018190385759 59.27144594254338728
16.009497869018204596614 314.36545071895397996 16.009497869018204596614 59.65200898627301740
17.009497869018204596614 317.47736534262782016 17.009497869018204596614 60.07435223103136224
18.009497869018204596614 320.39798694277379809 18.009497869018204596614 60.37870657451637157
19.009497869018204596614 323.16362257073939190 19.009497869018204596614 60.67375321180026759
20.009497869018204596614 325.78033907529885482 20.009497869018204596614 60.95644659382082153
21.009497869018204596614 328.25577862946181540 21.009497869018204596614 61.29920636163087977
22.009497869018190385759 330.59507965950865582 22.009497869018190385759 61.60909013693335368
23.009497869018190385759 332.82983004611276101 23.009497869018190385759 61.80652858071255196
24.009497869018190385759 334.97083372637706589 24.009497869018190385759 62.00993875975839842
25.009497869018190385759 337.01640614546585084 25.009497869018190385759 62.28491531450394803
26.009497869018190385759 338.97004458811147742 26.009497869018190385759 62.45848464556348034
27.009497869018204596614 340.83164582962422173 27.009497869018204596614 62.67270359640264132
28.009497869018190385759 342.61199043742936965 28.009497869018190385759 62.82146974758036606
29.009497869018190385759 344.32708143947155577 29.009497869018190385759 62.76271559033539660
30.009497869018190385759 345.98058401674393281 30.009497869018190385759 62.75343969712820780
31.009497869018190385759 347.57013053303489869 31.009497869018190385759 62.78045912652110161
32.009497869018190385759 349.09664643991726507 32.009497869018190385759 62.85132111163639479
33.009497869018218807469 350.55316465965722728 33.009497869018218807469 62.81937417447699090
34.009497869018190385759 351.94710402157920726 34.009497869018190385759 62.87165069726541589
35.009497869018218807469 353.28893402689988079 35.009497869018218807469 62.88983868468518779
36.009497869018190385759 354.58740572635190347 36.009497869018190385759 62.84947198467111917
37.009497869018218807469 355.85083395515312077 37.009497869018218807469 62.80401159393346688
38.009497869018190385759 357.07459745534907825 38.009497869018190385759 62.83942023882656258
39.009497869018190385759 358.25880735699831803 39.009497869018190385759 62.97776616430002861
40.009497869018190385759 359.40399275962482761 40.009497869018190385759 63.13998760614050809
41.009497869018190385759 360.51225640474768852 41.009497869018190385759 63.25932592613063576
42.009497869018190385759 361.58371936872333663 42.009497869018190385759 63.41473631469707328
43.009497869018190385759 362.62127768533116523 43.009497869018190385759 63.50641925258644704
44.009497869018218807469 363.63322456557318674 44.009497869018218807469 63.55733731727039526
46.009497869018218807469 365.58493779266041201 46.009497869018218807469 63.69038044737639126
48.009497869018218807469 367.44632990581652621 48.009497869018218807469 63.79693508523470058
50.009497869018218807469 369.20801468420336278 50.009497869018218807469 64.02899378276265452
52.009497869018190385759 370.87397225866976669 52.009497869018190385759 64.10121535906309020
54.009497869018190385759 372.44592221553307354 54.009497869018190385759 64.08116748097000936
56.009497869018190385759 373.94572991482931457 56.009497869018190385759 63.89961820835611661
58.009497869018190385759 375.38371447471388365 58.009497869018190385759 63.19862285095448584
60.009497869018190385759 376.75892069940107376 60.009497869018190385759 62.72260441246687179
62.009497869018190385759 378.06281832067179494 62.009497869018190385759 62.25809229942672118
64.009497869018190385759 379.29388436821858477 64.009497869018190385759 61.80643691059809441
66.009497869018218807469 380.45809256406744225 66.009497869018218807469 61.37505748713397224
68.009497869018218807469 381.53084613798324654 68.009497869018218807469 60.77407047360799908
70.009497869018218807469 382.54457915978213123 70.009497869018218807469 60.37980961652777978
72.009497869018218807469 383.51315595403082170 72.009497869018218807469 60.08128059574745095
74.009497869018190385759 384.44529335485009369 74.009497869018190385759 59.68471903370946308
76.009497869018190385759 385.33725348468379934 76.009497869018190385759 59.29574471104474753
78.009497869018190385759 386.18766374993595036 78.009497869018190385759 59.20065183691358612
80.009497869018190385759 387.00532564450566042 80.009497869018190385759 58.91509225824032114
82.009497869018190385759 387.81093260248508159 82.009497869018190385759 58.66147953587304187
84.009497869018190385759 388.58986530289757866 84.009497869018190385759 58.62184327258334093
86.009497869018190385759 389.34445654412161275 86.009497869018190385759 58.58643755435431899
88.009497869018218807469 390.07325940107000406 88.009497869018218807469 58.50475549151399690
91.009497869018190385759 391.12010063544880722 91.009497869018190385759 58.27166863799562435
94.009497869018218807469 392.11205249635065684 94.009497869018218807469 57.89800403668569828
97.009497869018190385759 393.05204066605978142 97.009497869018190385759 56.74694105609587780
99.504748934509109403734 393.77532016752081745 99.504748934509109403734 58.75797054693958898
nan nan nan nan

