Time Pressure difference Time.1 Pressure.1 difference.1
(hr) (psi) (hr) (psi)
0.000200000000006639311 0.09646551400710873 0.000200000000006639311 0.07753886611187659
0.000399999999999067768 0.19148610175854772 0.000399999999999067768 0.19663338645641212
0.000600000000005707079 0.28533711854624327 0.000600000000005707079 0.28478370141990483
0.000799999999998135536 0.37814644212761472 0.000799999999998135536 0.37286020523067270
0.001007140329434719206 0.47326022333696582 0.001007140329434719206 0.46360964125323106
0.001267914553963578328 0.59164434843184799 0.001267914553963578328 0.57635502243658454
0.001596209851982166583 0.73867804082861244 0.001596209851982166583 0.71484122506301062
0.002009509145224797066 0.92083546737519251 0.002009509145224797066 0.88415750154797501
0.002529822128138903281 1.14583916384577456 0.002529822128138903281 1.09003145953466007
0.003184857364431081805 1.42280038995979519 0.003184857364431081805 1.33872804259420675
0.004009497869020606231 1.76232594170608126 0.004009497869020606231 1.63683885823282949
0.005047658755842121536 2.17656135828230202 0.005047658755842121536 1.99091305392194884
0.006354625877790454069 2.67912756735230406 0.006354625877790454069 2.40688749764588428
0.008000000000009777068 3.28490144106092208 0.008000000000009777068 2.88928476556218783
0.010071403294347192059 4.00958279390550221 0.010071403294347192059 3.44014554243826343
0.012679145539706837553 4.86898291893904034 0.012679145539706837553 4.05774139593575178
0.015962098519750611558 5.87799837817644644 0.015962098519750611558 4.73519842293368853
0.020095091452091651263 7.04926528661105145 0.020095091452091651263 5.45928394739093914
0.025298221281360611101 8.39157401465679698 0.025298221281360611101 6.20965868925512510
0.031848573644296607199 9.90817893089474566 0.031848573644296607199 6.95940522897489444
0.040094978690177640601 11.59545655606766879 0.040094978690177640601 7.67673225381045565
0.050476587558421215363 13.44200056858946546 0.050476587558421215363 8.32885970311653168
0.063546258777961384112 15.42906955959204574 0.063546258777961384112 8.88693145068423718
0.079999999999998294697 17.53194467692027203 0.079999999999998294697 9.33124608471178441
0.100714032943542974863 19.72278548020489453 0.100714032943542974863 9.65581766862394986
0.126791455396897845276 21.97408542227541162 0.126791455396897845276 9.86919785761905111
0.159620985197506115583 24.26190207832813783 0.159620985197506115583 9.99264843741455699
0.200950914520760193227 26.56846449684175226 0.200950914520760193227 10.05529221830402165
0.252982212813478213320 28.88316258367762757 0.252982212813478213320 10.08762999111517011
0.318485736442795541734 31.20216072093091952 0.318485736442795541734 10.11628056452494917
0.400949786901833249431 33.52695640611023720 0.400949786901833249431 10.16073223896680666
0.504765875584155310207 35.86248909413698271 0.504765875584155310207 10.23195506785999065
0.635462587779443310865 38.21505135604031977 0.635462587779443310865 10.33510595739600824
0.799999999999997157829 40.59162615899970916 0.799999999999997157829 10.46999308721186672
1.007140329435344483500 42.99800093623978370 1.007140329435344483500 10.63356252509466060
1.267914553968893187630 45.43922255617072636 1.267914553968893187630 10.82362621930637125
1.596209851975103788391 47.91939203918373380 1.596209851975103788391 11.03793853950769943
2.009509145207672986544 50.44165783111569112 2.009509145207672986544 11.27550284203794817
2.529822128134711078928 53.00855457136621141 2.529822128134711078928 11.53677707362705185
3.184857364427998049905 55.62202389250308698 3.184857364427998049905 11.82291294877447285
4.009497869018190385759 58.28332685235082522 4.009497869018190385759 12.13320057541414165
5.009497869018204596614 60.90190500883040414 5.009497869018204596614 12.45068090539731109
6.009497869018204596614 63.07271975608736625 6.009497869018204596614 12.72250164382729309
7.009497869018204596614 64.92854092607819894 7.009497869018204596614 12.95943550240062692
8.009497869018204596614 66.54902748275300439 8.009497869018204596614 13.16894960563549155
9.009497869018204596614 67.98713755230166100 9.009497869018204596614 13.35521770845622136
10.009497869018190385759 69.27886797641447458 10.009497869018190385759 13.52014199522225013
11.009497869018190385759 70.45022752497497720 11.009497869018190385759 13.67180099358029466
12.009497869018190385759 71.52121841399051050 12.009497869018190385759 13.80324494523749834
13.009497869018190385759 72.50777913664097696 13.009497869018190385759 13.92849337936645959
14.009497869018190385759 73.41929288955400068 14.009497869018190385759 14.05096949965056652
15.009497869018190385759 74.26850546203390024 15.009497869018190385759 14.15256974546444013
16.009497869018204596614 75.06277088595432190 16.009497869018204596614 14.24343888039580008
17.009497869018204596614 75.80581988793358050 17.009497869018204596614 14.34428410414422395
18.009497869018204596614 76.50319280062149119 18.009497869018204596614 14.41695646779268536
19.009497869018204596614 77.16355885872756915 19.009497869018204596614 14.48740637914414719
20.009497869018204596614 77.78836667716321074 20.009497869018204596614 14.55490663566741993
21.009497869018204596614 78.37944101968781752 21.009497869018204596614 14.63674927410370152
22.009497869018190385759 78.93800881665819702 22.009497869018190385759 14.71074193065551228
23.009497869018190385759 79.47161248039834902 23.009497869018190385759 14.75788539580279135
24.009497869018190385759 79.98283172650228323 24.009497869018190385759 14.80645476508516900
25.009497869018190385759 80.47126432452959932 25.009497869018190385759 14.87211243223869950
26.009497869018190385759 80.93774534042663049 26.009497869018190385759 14.91355653781821822
27.009497869018204596614 81.38225012666536884 27.009497869018204596614 14.96470677710022379
28.009497869018190385759 81.80735281873312204 28.009497869018190385759 15.00022849074878195
29.009497869018190385759 82.21687454779218740 29.009497869018190385759 14.98619943687600475
30.009497869018190385759 82.61169046930416471 30.009497869018190385759 14.98398458074285777
31.009497869018190385759 82.99123524972465304 31.009497869018190385759 14.99043615878156821
32.009497869018190385759 83.35572986422513964 32.009497869018190385759 15.00735626543154844
33.009497869018218807469 83.70351074526510615 33.009497869018218807469 14.99972811921185389
34.009497869018190385759 84.03634932760157028 34.009497869018190385759 15.01221047261235420
35.009497869018218807469 84.35674547172915538 35.009497869018218807469 15.01655331858809639
36.009497869018190385759 84.66678871425136776 36.009497869018190385759 15.00691473919698282
37.009497869018218807469 84.96846443418962735 37.009497869018218807469 14.99605991120452408
38.009497869018190385759 85.26066918831804742 38.009497869018190385759 15.00451462845450479
39.009497869018190385759 85.54342951177306986 39.009497869018190385759 15.03754824739408846
40.009497869018190385759 85.81687174056348510 40.009497869018190385759 15.07628275493558867
41.009497869018190385759 86.08149795786832215 41.009497869018190385759 15.10477782317812867
42.009497869018190385759 86.33733707375638744 42.009497869018190385759 15.14188601799909861
43.009497869018190385759 86.58508059017091796 43.009497869018190385759 15.16377765827063939
44.009497869018218807469 86.82670872280012020 44.009497869018218807469 15.17593564514415405
46.009497869018218807469 87.29273004436994654 46.009497869018218807469 15.20770308641436230
48.009497869018218807469 87.73718489587864156 48.009497869018218807469 15.23314572443359083
50.009497869018218807469 88.15783207765670682 50.009497869018218807469 15.28855565833312546
52.009497869018190385759 88.55562194747828642 52.009497869018190385759 15.30580040206200287
54.009497869018190385759 88.93096510044360059 54.009497869018190385759 15.30101345974181726
56.009497869018190385759 89.28908244905106528 56.009497869018190385759 15.25766393954625677
58.009497869018190385759 89.63243794600310821 58.009497869018190385759 15.09028341543198870
60.009497869018190385759 89.96080351393861463 60.009497869018190385759 14.97662186991555977
62.009497869018190385759 90.27214233371144303 62.009497869018190385759 14.86570775312842230
64.009497869018190385759 90.56609075730933966 64.009497869018190385759 14.75786350722444240
66.009497869018218807469 90.84407516325690324 66.009497869018218807469 14.65486066529525644
68.009497869018218807469 91.10022244519191759 68.009497869018218807469 14.51135968451456293
70.009497869018218807469 91.34227706468266206 70.009497869018218807469 14.41721984721173477
72.009497869018218807469 91.57354948290122820 72.009497869018218807469 14.34593842796418706
74.009497869018190385759 91.79612106636216140 74.009497869018190385759 14.25124923866123972
76.009497869018190385759 92.00909930144489124 76.009497869018190385759 14.15837169631068448
78.009497869018190385759 92.21215644641327458 78.009497869018190385759 14.13566584677324478
80.009497869018190385759 92.40739408246359687 80.009497869018190385759 14.06748121268187113
82.009497869018190385759 92.59975329487907914 82.009497869018190385759 14.00692470550437996
84.009497869018190385759 92.78574334783472466 84.009497869018190385759 13.99746053651479905
86.009497869018190385759 92.96592125645354088 86.009497869018190385759 13.98900651808052054
88.009497869018218807469 93.13994153045956637 88.009497869018218807469 13.96950284185130187
91.009497869018190385759 93.38990158030105704 91.009497869018190385759 13.91384740948058862
94.009497869018218807469 93.62675539198576757 94.009497869018218807469 13.82462545365760498
97.009497869018190385759 93.85120154679387383 97.009497869018190385759 13.54977980319024056
99.504748934509109403734 94.02390297877538217 99.504748934509109403734 14.02996439590190114
nan nan nan nan

