Time Pressure difference Time.1 Pressure.1 difference.1
(hr) (psi) (hr) (psi)
0.000200000000006639311 0.34546196896562864 0.000200000000006639311 0.27768192222971194
0.000399999999999067768 0.68574937296437166 0.000399999999999067768 0.70418281132680927
0.000600000000005707079 1.02184831342629012 0.000600000000005707079 1.01986641790547106
0.000799999999998135536 1.35421674573906481 0.000799999999998135536 1.33528569223634075
0.001007140329434719206 1.69483789383067251 0.001007140329434719206 1.66027726226584460
0.001267914553963578328 2.11879471788841300 0.001267914553963578328 2.06404063590537534
0.001596209851982166583 2.64535127442041551 0.001596209851982166583 2.55998695129402964
0.002009509145224797066 3.29769282760859506 0.002009509145224797066 3.16634182178291912
0.002529822128138903281 4.10347529616563733 0.002529822128138903281 3.90361693628224460
0.003184857364431081805 5.09532789224918048 0.003184857364431081805 4.79424828929036462
0.004009497869020606231 6.31123563739186366 0.004009497869020606231 5.86184172307312412
0.005047658755842121536 7.79469409504516708 0.005047658755842121536 7.12985102216492805
0.006354625877790454069 9.59448248479158572 0.006354625877790454069 8.61953727789423674
0.008000000000009777068 11.76387781029509760 0.008000000000009777068 10.34709672453467455
0.010071403294347192059 14.35910419355901979 0.010071403294347192059 12.31983745539856834
0.012679145539706837553 17.43678498320904069 0.012679145539706837553 14.53156961450495821
0.015962098519750611558 21.05026769620453564 0.015962098519750611558 16.95767640349756533
0.020095091452091651263 25.24480474435923583 0.020095091452091651263 19.55076900817780583
0.025298221281360611101 30.05187617214698648 0.025298221281360611101 22.23800846835809608
0.031848573644296607199 35.48313651320426487 0.031848573644296607199 24.92299821316650110
0.040094978690177640601 41.52560937600301827 0.040094978690177640601 27.49188730210753207
0.050476587558421215363 48.13844648067509269 0.050476587558421215363 29.82728389406690184
0.063546258777961384112 55.25453115785526848 0.063546258777961384112 31.82584852851876533
0.079999999999998294697 62.78534033871446951 0.079999999999998294697 33.41702657687383038
0.100714032943542974863 70.63117193338332811 0.100714032943542974863 34.57938122353363042
0.126791455396897845276 78.69351958917432910 0.126791455396897845276 35.34353762685797307
0.159620985197506115583 86.88664077623495530 0.159620985197506115583 35.78563842116837179
0.200950914520760193227 95.14689422373243133 0.200950914520760193227 36.00997811512294788
0.252982212813478213320 103.43628309881133021 0.252982212813478213320 36.12578603655774145
0.318485736442795541734 111.74107129974407826 0.318485736442795541734 36.22838937210216415
0.400949786901833249431 120.06662165948878851 0.400949786901833249431 36.38757955664181054
0.504765875584155310207 128.43062333712305190 0.504765875584155310207 36.64264250797723577
0.635462587779443310865 136.85561126650335950 0.635462587779443310865 37.01204612093100366
0.799999999999997157829 145.36659282581945263 0.799999999999997157829 37.49510344907497483
1.007140329435344483500 153.98429395114931140 1.007140329435344483500 38.08087776080908071
1.267914553968893187630 162.72678847038920935 1.267914553968893187630 38.76153321272965258
1.596209851975103788391 171.60876294374344297 1.596209851975103788391 39.52902776114295591
2.009509145207672986544 180.64149257467926191 2.009509145207672986544 40.37979222917864064
2.529822128134711078928 189.83405440514906104 2.529822128134711078928 41.31546661410028776
3.184857364427998049905 199.19340180306659249 3.184857364427998049905 42.34017543193593269
4.009497869018190385759 208.72405086440164723 4.009497869018190385759 43.45137641964551278
5.009497869018204596614 218.10169400598238099 5.009497869018204596614 44.58833589197840297
6.009497869018204596614 225.87580835727015938 6.009497869018204596614 45.56177939114218844
7.009497869018204596614 232.52186878655351165 7.009497869018204596614 46.41028611543472238
8.009497869018204596614 238.32514970319235204 8.009497869018204596614 47.16059730565189057
9.009497869018204596614 243.47530456764437190 9.009497869018204596614 47.82765999865946327
10.009497869018190385759 248.10124514630479098 10.009497869018190385759 48.41828629058224465
11.009497869018190385759 252.29611395696167619 11.009497869018190385759 48.96140697700976574
12.009497869018190385759 256.13154286719674246 12.009497869018190385759 49.43213360730351980
13.009497869018190385759 259.66461075429549510 13.009497869018190385759 49.88067287140638228
14.009497869018190385759 262.92892068994126475 14.009497869018190385759 50.31928393464603744
15.009497869018190385759 265.97011785121543426 15.009497869018190385759 50.68313438760342393
16.009497869018204596614 268.81453847192187823 16.009497869018204596614 51.00855462295589859
17.009497869018204596614 271.47554301747152294 17.009497869018204596614 51.36970119347375885
18.009497869018204596614 273.97297250820855652 18.009497869018204596614 51.62995521371910002
19.009497869018204596614 276.33787317783634307 19.009497869018204596614 51.88225019539655847
20.009497869018204596614 278.57543280112292905 20.009497869018204596614 52.12398188328759829
21.009497869018204596614 280.69218621580506579 21.009497869018204596614 52.41707646025171385
22.009497869018190385759 282.69252730068188839 22.009497869018190385759 52.68205870892871445
23.009497869018190385759 284.60346691698214272 23.009497869018190385759 52.85088872513991021
24.009497869018190385759 286.43424353337138655 24.009497869018190385759 53.02482518436483616
25.009497869018190385759 288.18341668357180652 25.009497869018190385759 53.25995819750440319
26.009497869018190385759 289.85397690289534012 26.009497869018190385759 53.40837768671651986
27.009497869018204596614 291.44583592369906455 27.009497869018204596614 53.59155674876062392
28.009497869018190385759 292.96821223118962507 28.009497869018190385759 53.71876698823708551
29.009497869018190385759 294.43479004722161108 29.009497869018190385759 53.66852618847048007
30.009497869018190385759 295.84870347554226555 30.009497869018190385759 53.66059435325860960
31.009497869018190385759 297.20792794559514505 31.009497869018190385759 53.68369872247416197
32.009497869018190385759 298.51325481290876951 32.009497869018190385759 53.74429295056255285
33.009497869018218807469 299.75872651509467914 33.009497869018218807469 53.71697505939971506
34.009497869018190385759 300.95068690824837176 34.009497869018190385759 53.76167682072287590
35.009497869018218807469 302.09808848422665051 35.009497869018218807469 53.77722940588386535
36.009497869018190385759 303.20841428437029208 36.009497869018190385759 53.74271175832081582
37.009497869018218807469 304.28877434124319734 37.009497869018218807469 53.70383848542474681
38.009497869018190385759 305.33521700773729890 38.009497869018190385759 53.73411648993536005
39.009497869018190385759 306.34783731139242491 39.009497869018190385759 53.85241637314635454
40.009497869018190385759 307.32708768629146334 40.009497869018190385759 53.99113225912830671
41.009497869018190385759 308.27476619099854815 41.009497869018190385759 54.09317870009945750
42.009497869018190385759 309.19097635815325020 42.009497869018190385759 54.22607044052668357
43.009497869018190385759 310.07819459215056668 43.009497869018190385759 54.30446870782391500
44.009497869018218807469 310.94351243464319623 44.009497869018218807469 54.34800884884958805
46.009497869018218807469 312.61242639821369949 46.009497869018218807469 54.46177430091981364
48.009497869018218807469 314.20410659293293065 48.009497869018218807469 54.55288938921089681
50.009497869018218807469 315.71052684220654783 50.009497869018218807469 54.75132325505623498
52.009497869018190385759 317.13509056404620878 52.009497869018190385759 54.81308007234170532
54.009497869018190385759 318.47926818022114048 54.009497869018190385759 54.79593709087027520
56.009497869018190385759 319.76175680472135809 56.009497869018190385759 54.64069393734941116
58.009497869018190385759 320.99138033654111268 58.009497869018190385759 54.04127137663250835
60.009497869018190385759 322.16732198581433977 60.009497869018190385759 53.63422703841555261
62.009497869018190385759 323.28228750277855852 62.009497869018190385759 53.23702178257101991
64.009497869018190385759 324.33497459241544902 64.009497869018190385759 52.85081033783796300
66.009497869018218807469 325.33049139662091420 66.009497869018218807469 52.48193691246762427
68.009497869018218807469 326.24780516696927180 68.009497869018218807469 51.96803169069745110
70.009497869018218807469 327.11465034275244079 70.009497869018218807469 51.63089842719416112
72.009497869018218807469 327.94288233620181927 72.009497869018218807469 51.37562565228200384
74.009497869018190385759 328.73995492996363055 74.009497869018190385759 51.03652505127401184
76.009497869018190385759 329.50267185731121344 76.009497869018190385759 50.70391231413826461
78.009497869018190385759 330.22985941065951465 78.009497869018190385759 50.62259820340161554
80.009497869018190385759 330.92904376540383282 80.009497869018190385759 50.37841562490345382
82.009497869018190385759 331.61791991926781975 82.009497869018190385759 50.16155086843021849
84.009497869018190385759 332.28398686104912940 84.009497869018190385759 50.12765781880086280
86.009497869018190385759 332.92923937140199087 86.009497869018190385759 50.09738231688665167
88.009497869018218807469 333.55244018173129916 88.009497869018218807469 50.02753581825380280
91.009497869018190385759 334.44759625765931332 91.009497869018190385759 49.82822277412279277
94.009497869018218807469 335.29581631830802735 94.009497869018218807469 49.50870141096185506
97.009497869018190385759 336.09960212056950013 97.009497869018190385759 48.52442510715137303
99.504748934509109403734 336.71807989834945829 99.504748934509109403734 50.24406052891364993
nan nan nan nan

