Time Pressure difference Time.1 Pressure.1 difference.1
(hr) (psi) (hr) (psi)
0.000200000000006639311 0.77254860362958011 0.000200000000006639311 0.62097365424639628
0.000399999999999067768 1.53352544741674546 0.000399999999999067768 1.57474771888596710
0.000600000000005707079 2.28513572716093938 0.000600000000005707079 2.28070366008932313
0.000799999999998135536 3.02840355789380355 0.000799999999998135536 2.98606848120632762
0.001007140329434719206 3.79012674586954690 0.001007140329434719206 3.71283960559211579
0.001267914553963578328 4.73821157675762006 0.001267914553963578328 4.61576629079555278
0.001596209851982166583 5.91573781415734956 0.001596209851982166583 5.72483955456445237
0.002009509145224797066 7.37455412761158424 0.002009509145224797066 7.08081691410643188
0.002529822128138903281 9.17650680789308382 0.002529822128138903281 8.72956818447843119
0.003184857364431081805 11.39456380677203384 0.003184857364431081805 10.72126646077582635
0.004009497869020606231 14.11367014853502688 0.004009497869020606231 13.10870094157402654
0.005047658755842121536 17.43109395479074308 0.005047658755842121536 15.94432078226381400
0.006354625877790454069 21.45591906503511836 0.006354625877790454069 19.27567166918114339
0.008000000000009777068 26.30728760918020726 0.008000000000009777068 23.13897286608350612
0.010071403294347192059 32.11093228965346213 0.010071403294347192059 27.55056729286028272
0.012679145539706837553 38.99347859013573725 0.012679145539706837553 32.49661271787862660
0.015962098519750611558 47.07422632778914107 0.015962098519750611558 37.92205916486210526
0.020095091452091651263 56.45437242354320517 0.020095091452091651263 43.72093212568641007
0.025298221281360611101 67.20431497208049620 0.025298221281360611101 49.73034351993207025
0.031848573644296607199 79.35011673716562086 0.031848573644296607199 55.73472392777330242
0.040094978690177640601 92.86275891483252565 0.040094978690177640601 61.47947112667006309
0.050476587558421215363 107.65089344246435132 0.050476587558421215363 66.70206446000163680
0.063546258777961384112 123.56442886613459109 0.063546258777961384112 71.17140828453958079
0.079999999999998294697 140.40540309636148208 0.079999999999998294697 74.72972291773456277
0.100714032943542974863 157.95085465770927158 0.100714032943542974863 77.32906970513367639
0.126791455396897845276 175.98049607412016826 0.126791455396897845276 79.03793497939361146
0.159620985197506115583 194.30258331105525826 0.159620985197506115583 80.02659475091827801
0.200950914520760193227 212.77479686786941215 0.200950914520760193227 80.52828041496468359
0.252982212813478213320 231.31216530688834609 0.252982212813478213320 80.78725898867448052
0.318485736442795541734 249.88397090181430826 0.318485736442795541734 81.01670845264852971
0.400949786901833249431 268.50220643184007940 0.400949786901833249431 81.37270177702477270
0.504765875584155310207 287.20642975390046558 0.504765875584155310207 81.94309315029754259
0.635462587779443310865 306.04703521888700379 0.635462587779443310865 82.76918189812016635
0.799999999999997157829 325.07994624771561121 0.799999999999997157829 83.84943181809845214
1.007140329435344483500 344.35151177142461165 1.007140329435344483500 85.15938535054442582
1.267914553968893187630 363.90214987292284832 1.267914553968893187630 86.68151938025701497
1.596209851975103788391 383.76470376679617402 1.596209851975103788391 88.39784967110013270
2.009509145207672986544 403.96438792953335906 2.009509145207672986544 90.30039455546631189
2.529822128134711078928 424.52150113991575608 2.529822128134711078928 92.39282152126962444
3.184857364427998049905 445.45159305363580415 3.184857364427998049905 94.68435412821949626
4.009497869018190385759 466.76476291156166099 4.009497869018190385759 97.16930717233375958
5.009497869018204596614 487.73576917328267655 5.009497869018204596614 99.71186331929300195
6.009497869018204596614 505.12084112353733190 6.009497869018204596614 101.88875248090747050
7.009497869018204596614 519.98327220286546435 7.009497869018204596614 103.78624842520845561
8.009497869018204596614 532.96101496871415293 8.009497869018204596614 105.46415196991841867
9.009497869018204596614 544.47818706415944234 9.009497869018204596614 106.95588882755110660
10.009497869018190385759 554.82307088803725037 10.009497869018190385759 108.27669273096793745
11.009497869018190385759 564.20395889659448585 11.009497869018190385759 109.49126094858748104
12.009497869018190385759 572.78103977700084215 12.009497869018190385759 110.54393601442339445
13.009497869018190385759 580.68195770113322851 13.009497869018190385759 111.54699398689207612
14.009497869018190385759 587.98185844027443636 14.009497869018190385759 112.52784975361178965
15.009497869018190385759 594.78281724722887702 15.009497869018190385759 113.34152009829213625
16.009497869018204596614 601.14372923195890053 16.009497869018204596614 114.06924983701594556
17.009497869018204596614 607.09447209396375911 17.009497869018204596614 114.87687355199263095
18.009497869018204596614 612.67941584771222097 18.009497869018204596614 115.45887359249354631
19.009497869018204596614 617.96798846690364826 19.009497869018204596614 116.02307501929971068
20.009497869018204596614 622.97179125215325257 20.009497869018204596614 116.56365399675532046
21.009497869018204596614 627.70543790980752874 21.009497869018204596614 117.21909461397579832
22.009497869018190385759 632.17875436930523847 22.009497869018190385759 117.81166828225825327
23.009497869018190385759 636.45214439430128550 23.009497869018190385759 118.18921893903603859
24.009497869018190385759 640.54626775839858510 24.009497869018190385759 118.57818901610943385
25.009497869018190385759 644.45790318020715404 25.009497869018190385759 119.10401152998001351
26.009497869018190385759 648.19373832461326401 26.009497869018190385759 119.43591859774078046
27.009497869018204596614 651.75357580073034569 27.009497869018204596614 119.84555769352913046
28.009497869018190385759 655.15803069361493272 28.009497869018190385759 120.13003500710776450
29.009497869018190385759 658.43770471180584991 29.009497869018190385759 120.01768266968218768
30.009497869018190385759 661.59960657895737768 30.009497869018190385759 119.99994489022270727
31.009497869018190385759 664.63920879480338044 31.009497869018190385759 120.05161265622504629
32.009497869018190385759 667.55828104939280365 32.009497869018190385759 120.18711812572102815
33.009497869018218807469 670.34350058387519766 33.009497869018218807469 120.12602775813255107
34.009497869018190385759 673.00905401677493956 34.009497869018190385759 120.22599327211774778
35.009497869018218807469 675.57496159837796768 35.009497869018218807469 120.26077315826535141
36.009497869018190385759 678.05795748079947316 36.009497869018190385759 120.18358214211600909
37.009497869018218807469 680.47394166526225945 37.009497869018218807469 120.09665074186871436
38.009497869018190385759 682.81407717482056796 38.009497869018190385759 120.16436074240914422
39.009497869018190385759 685.07857651736208027 39.009497869018190385759 120.42891203254923482
40.009497869018190385759 687.26845146075197590 40.009497869018190385759 120.73911915704826470
41.009497869018190385759 689.38772296173181076 41.009497869018190385759 120.96732325058042079
42.009497869018190385759 691.43662254794651290 42.009497869018190385759 121.26450597320646807
43.009497869018190385759 693.42068814521496734 43.009497869018190385759 121.43982620341530776
44.009497869018218807469 695.35577840396342708 44.009497869018218807469 121.53719401282114632
46.009497869018218807469 699.08793206474047111 46.009497869018218807469 121.79160505957484872
48.009497869018218807469 702.64736963622465282 48.009497869018218807469 121.99536362217328644
50.009497869018218807469 706.01614236550710757 50.009497869018218807469 122.43911668254817471
52.009497869018190385759 709.20186123749704166 52.009497869018190385759 122.57722202335126838
54.009497869018190385759 712.20781452235610232 54.009497869018190385759 122.53888557075285348
56.009497869018190385759 715.07581414325522928 56.009497869018190385759 122.19171890046874296
58.009497869018190385759 717.82559278123858348 58.009497869018190385759 120.85124410478438506
60.009497869018190385759 720.45532386803824920 60.009497869018190385759 119.94098027445197374
62.009497869018190385759 722.94869544177447551 62.009497869018190385759 119.05271935625069091
64.009497869018190385759 725.30279521024658607 64.009497869018190385759 118.18904364332736634
66.009497869018218807469 727.52904639292080446 66.009497869018218807469 117.36414054172354327
68.009497869018218807469 729.58041394140877856 68.009497869018218807469 116.21490619136876887
70.009497869018218807469 731.51891974023646981 70.009497869018218807469 115.46098287895209467
72.009497869018218807469 733.37107577332005803 72.009497869018218807469 114.89012228207215571
74.009497869018190385759 735.15355076223363540 74.009497869018190385759 114.13179945833830686
76.009497869018190385759 736.85919696969131110 76.009497869018190385759 113.38798529438557239
78.009497869018190385759 738.48538966059174982 78.009497869018190385759 113.20614443099597679
80.009497869018190385759 740.04895944673830854 80.009497869018190385759 112.66008458361464761
82.009497869018190385759 741.58947724189488326 82.009497869018190385759 112.17511494921029680
84.009497869018190385759 743.07898732411240417 84.009497869018190385759 112.09932070696039830
86.009497869018190385759 744.52195057518758858 86.009497869018190385759 112.03161630291836559
88.009497869018218807469 745.91560012000525148 88.009497869018218807469 111.87542019499717583
91.009497869018190385759 747.91741692941957353 91.009497869018190385759 111.42970104857532476
94.009497869018218807469 749.81427181445019414 94.009497869018218807469 110.71516282117244145
97.009497869018190385759 751.61175939611848662 97.009497869018190385759 108.51404850930987322
99.504748934509109403734 752.99484693258580137 99.504748934509109403734 112.35962939282121908
nan nan nan nan

