Time Pressure difference Time.1 Pressure.1 difference.1
(hr) (psi) (hr) (psi)
0.000200000000006639311 0.39822942961908986 0.000200000000006639311 0.32009634471825976
0.000399999999999067768 0.79049390725964575 0.000399999999999067768 0.81174295434570132
0.000600000000005707079 1.17793015604987628 0.000600000000005707079 1.17564553663088911
0.000799999999998135536 1.56106608160374294 0.000799999999998135536 1.53924341133687959
0.001007140329434719206 1.95371528095516633 0.001007140329434719206 1.91387569850692851
0.001267914553963578328 2.44242923326993644 0.001267914553963578328 2.37931175928948990
0.001596209851982166583 3.04941447624119499 0.001596209851982166583 2.95101121115755660
0.002009509145224797066 3.80139769865143595 0.002009509145224797066 3.64998353203138404
0.002529822128138903281 4.73025911228640261 0.002529822128138903281 4.49987346115590459
0.003184857364431081805 5.87361186624428289 0.003184857364431081805 5.52654397070941705
0.004009497869020606231 7.27524299011997666 0.004009497869020606231 6.75720656860219382
0.005047658755842121536 8.98529176111411942 0.005047658755842121536 8.21889747901112244
0.006354625877790454069 11.05998816265951312 0.006354625877790454069 9.93612531079454797
0.008000000000009777068 13.56074697463611578 0.008000000000009777068 11.92756018603877521
0.010071403294347192059 16.55238025176373995 0.010071403294347192059 14.20162647006565138
0.012679145539706837553 20.10016025510731907 0.012679145539706837553 16.75118883963220995
0.015962098519750611558 24.26558304836943236 0.015962098519750611558 19.54787041262368774
0.020095091452091651263 29.10081310626613771 0.020095091452091651263 22.53704398794721087
0.025298221281360611101 34.64213888101907912 0.025298221281360611101 25.63474484538654252
0.031848573644296607199 40.90299507369369536 0.031848573644296607199 28.72985235551174554
0.040094978690177640601 47.86842321863832694 0.040094978690177640601 31.69112545803803727
0.050476587558421215363 55.49133568058727661 0.050476587558421215363 34.38324133850671416
0.063546258777961384112 63.69436407934151134 0.063546258777961384112 36.68707598872210696
0.079999999999998294697 72.37546392267086048 0.079999999999998294697 38.52129793945121605
0.100714032943542974863 81.41970416187147919 0.100714032943542974863 39.86119601662707623
0.126791455396897845276 90.71353212785490427 0.126791455396897845276 40.74207320709403746
0.159620985197506115583 100.15810857976488535 0.159620985197506115583 41.25170252368573642
0.200950914520760193227 109.68007138439799064 0.200950914520760193227 41.51030890120377848
0.252982212813478213320 119.23561989672046479 0.252982212813478213320 41.64380586075749591
0.318485736442795541734 128.80891989922767493 0.318485736442795541734 41.76208130483376380
0.400949786901833249431 138.40615336881404573 0.400949786901833249431 41.94558693522194659
0.504765875584155310207 148.04771138861676150 0.504765875584155310207 42.23960938270407439
0.635462587779443310865 157.75957098262799150 0.635462587779443310865 42.66543741386556832
0.799999999999997157829 167.57055927176801902 0.799999999999997157829 43.22227915490027073
1.007140329435344483500 177.50456796755398159 1.007140329435344483500 43.89752734718565108
1.267914553968893187630 187.58243157803812551 1.267914553968893187630 44.68214926431604539
1.596209851975103788391 197.82107995663028532 1.596209851975103788391 45.56687448360870718
2.009509145207672986544 208.23351053358018703 2.009509145207672986544 46.54758865559255554
2.529822128134711078928 218.83018682025539192 2.529822128134711078928 47.62618227830654405
3.184857364427998049905 229.61912427417937010 3.184857364427998049905 48.80740986545359306
4.009497869018190385759 240.60552880073032611 4.009497869018190385759 50.08834083696606854
5.009497869018204596614 251.41555657491520037 5.009497869018204596614 51.39896476330685715
6.009497869018204596614 260.37712514692481136 6.009497869018204596614 52.52109652964600173
7.009497869018204596614 268.03833561791253715 7.009497869018204596614 53.49920809965387036
8.009497869018204596614 274.72803653136492130 8.009497869018204596614 54.36412529505933833
9.009497869018204596614 280.66484989539918615 9.009497869018204596614 55.13307823234491423
10.009497869018190385759 285.99737805648021549 10.009497869018190385759 55.81391951873800394
11.009497869018190385759 290.83299055181981885 11.009497869018190385759 56.43999897349813466
12.009497869018190385759 295.25426063211466499 12.009497869018190385759 56.98262656880095989
13.009497869018190385759 299.32698566664612372 13.009497869018190385759 57.49967779687180069
14.009497869018190385759 303.08990141585115907 14.009497869018190385759 58.00528434471130623
15.009497869018190385759 306.59562511249896488 15.009497869018190385759 58.42471100050704536
16.009497869018204596614 309.87451570868319095 16.009497869018204596614 58.79983742932625290
17.009497869018204596614 312.94197440916167352 17.009497869018204596614 59.21614719915948655
18.009497869018204596614 315.82087284359130308 18.009497869018204596614 59.51615362345185645
19.009497869018204596614 318.54699939115744201 19.009497869018204596614 59.80698530877455710
20.009497869018204596614 321.12633423136605870 20.009497869018204596614 60.08564021390909460
21.009497869018204596614 323.56641036332666772 21.009497869018204596614 60.42350341360758392
22.009497869018190385759 325.87229280722993963 22.009497869018190385759 60.72896027783429673
23.009497869018190385759 328.07511818831119399 23.009497869018190385759 60.92357817241665430
24.009497869018190385759 330.18553610171454693 24.009497869018190385759 61.12408249176184682
25.009497869018190385759 332.20188605767344825 25.009497869018190385759 61.39513081001103956
26.009497869018190385759 334.12761537970988002 26.009497869018190385759 61.56622057919828706
27.009497869018204596614 335.96262231777245688 27.009497869018204596614 61.77737925931117502
28.009497869018190385759 337.71753343118035673 28.009497869018190385759 61.92402017975778961
29.009497869018190385759 339.40812313319338500 29.009497869018190385759 61.86610536761632773
30.009497869018190385759 341.03800424507619482 30.009497869018190385759 61.85696198716922822
31.009497869018190385759 342.60484295399152188 31.009497869018190385759 61.88359542471366126
32.009497869018190385759 344.10955149077557280 32.009497869018190385759 61.95344509575587466
33.009497869018218807469 345.54526230737644710 33.009497869018218807469 61.92195454341304384
34.009497869018190385759 346.91928824984239554 34.009497869018190385759 61.97348425873305899
35.009497869018218807469 348.24194925508703591 35.009497869018218807469 61.99141241776111855
36.009497869018190385759 349.52187135883258406 36.009497869018190385759 61.95162238489011486
37.009497869018218807469 350.76725061293672070 37.009497869018218807469 61.90681142830585060
38.009497869018190385759 351.97353177741553054 38.009497869018190385759 61.94171423541474297
39.009497869018190385759 353.14082439475544106 39.009497869018190385759 62.07808379052431746
40.009497869018190385759 354.26965000591587795 40.009497869018190385759 62.23798778319563496
41.009497869018190385759 355.36208131325128079 41.009497869018190385759 62.35562127004304500
42.009497869018190385759 356.41823766345584090 42.009497869018190385759 62.50881151020140436
43.009497869018190385759 357.44097371839785637 43.009497869018190385759 62.59918469183521239
44.009497869018218807469 358.43846421463638308 44.009497869018218807469 62.64937535559511161
46.009497869018218807469 360.36229582419383632 46.009497869018218807469 62.78051786955673208
48.009497869018218807469 362.19709662144771301 48.009497869018218807469 62.88555029830276766
50.009497869018218807469 363.93361447442902090 50.009497869018218807469 63.11429387158033677
52.009497869018190385759 365.57577265497451435 52.009497869018190385759 63.18548371107647910
54.009497869018190385759 367.12526618388255883 54.009497869018190385759 63.16572223124185825
56.009497869018190385759 368.60364805890316120 56.009497869018190385759 62.98676651966531637
58.009497869018190385759 370.02108998221802949 58.009497869018190385759 62.29578538165513635
60.009497869018190385759 371.37665040369529379 60.009497869018190385759 61.82656720657448801
62.009497869018190385759 372.66192091609082127 62.009497869018190385759 61.36869098086348373
64.009497869018190385759 373.87540030581544670 64.009497869018190385759 60.92348781187526185
66.009497869018218807469 375.02297695600930183 66.009497869018218807469 60.49827095160349444
68.009497869018218807469 376.08040547886918148 68.009497869018218807469 59.90586946684216940
70.009497869018218807469 377.07965660035665678 70.009497869018218807469 59.51724090772023601
72.009497869018218807469 378.03439658325891060 72.009497869018218807469 59.22297658723677216
74.009497869018190385759 378.95321773549505906 74.009497869018190385759 58.83208019037076042
76.009497869018190385759 379.83243557775972477 76.009497869018190385759 58.44866264374410747
78.009497869018190385759 380.67069712493690758 78.009497869018190385759 58.35492823924339945
80.009497869018190385759 381.47667813529841396 80.009497869018190385759 58.07344808312259943
82.009497869018190385759 382.27077642244955769 82.009497869018190385759 57.82345839964629164
84.009497869018190385759 383.03858151285623990 84.009497869018190385759 57.78438836868929940
86.009497869018190385759 383.78239287920558809 86.009497869018190385759 57.74948844643497381
88.009497869018218807469 384.50078426676896015 88.009497869018218807469 57.66897327020665642
91.009497869018190385759 385.53267062637098661 91.009497869018190385759 57.43921622888140632
94.009497869018218807469 386.51045174640279356 94.009497869018218807469 57.07088969330447270
97.009497869018190385759 387.43701151368753699 97.009497869018190385759 55.93627046958022220
99.504748934509109403734 388.14995845084200710 99.504748934509109403734 57.91857096769759039
nan nan nan nan

