Time Pressure difference Time.1 Pressure.1 difference.1
(hr) (psi) (hr) (psi)
0.000200000000006639311 0.46253977229049564 0.000200000000006639311 0.37178892212617753
0.000399999999999067768 0.91815130843201076 0.000399999999999067768 0.94283187864997597
0.000600000000005707079 1.36815490174737175 0.000600000000005707079 1.36550133757749226
0.000799999999998135536 1.81316370968881935 0.000799999999998135536 1.78781688149066142
0.001007140329434719206 2.26922209651314377 0.001007140329434719206 2.22294879267574919
0.001267914553963578328 2.83685879889116821 0.001267914553963578328 2.76354844091387974
0.001596209851982166583 3.54186650346026966 0.001596209851982166583 3.42757202786623028
0.002009509145224797066 4.41528801023489681 0.002009509145224797066 4.23942186639670027
0.002529822128138903281 5.49415188818358580 0.002529822128138903281 5.22656110084567782
0.003184857364431081805 6.82214545955081331 0.003184857364431081805 6.41902933243888896
0.004009497869020606231 8.45012695125736357 0.004009497869020606231 7.84843247409074607
0.005047658755842121536 10.43633266663565351 0.005047658755842121536 9.54617284829242152
0.006354625877790454069 12.84607320756104798 0.006354625877790454069 11.54071697589180445
0.008000000000009777068 15.75068126867672902 0.008000000000009777068 13.85375002974690162
0.010071403294347192059 19.22543544770073964 0.010071403294347192059 16.49505683169116210
0.012679145539706837553 23.34614886773334774 0.012679145539706837553 19.45634977025603973
0.015962098519750611558 28.18424863382039547 0.015962098519750611558 22.70466936124614676
0.020095091452091651263 33.80032329734017083 0.020095091452091651263 26.17656661954116615
0.025298221281360611101 40.23652155745694614 0.025298221281360611101 29.77451730488995807
0.031848573644296607199 47.50844769429019721 0.031848573644296607199 33.36945584149500377
0.040094978690177640601 55.59872758935010495 0.040094978690177640601 36.80894696057833926
0.050476587558421215363 64.45266939298025477 0.050476587558421215363 39.93581447391773764
0.063546258777961384112 73.98041045240287872 0.063546258777961384112 42.61169695584493411
0.079999999999998294697 84.06342704061771087 0.079999999999998294697 44.74212866259241395
0.100714032943542974863 94.56822781534140177 0.100714032943542974863 46.29840779570970710
0.126791455396897845276 105.36292240937183351 0.126791455396897845276 47.32153844550673227
0.159620985197506115583 116.33270996531696539 0.159620985197506115583 47.91346814862877324
0.200950914520760193227 127.39238104895916592 0.200950914520760193227 48.21383704673979054
0.252982212813478213320 138.49106161917222835 0.252982212813478213320 48.36889252150094620
0.318485736442795541734 149.61036037984825953 0.318485736442795541734 48.50626834785040131
0.400949786901833249431 160.75745763955421808 0.400949786901833249431 48.71940842786648318
0.504765875584155310207 171.95603745137475471 0.504765875584155310207 49.06091276127740031
0.635462587779443310865 183.23627188665486187 0.635462587779443310865 49.55550805212957499
0.799999999999997157829 194.63164337776782986 0.799999999999997157829 50.20227454637484499
1.007140329435344483500 206.16990192504718493 1.007140329435344483500 50.98656903058209622
1.267914553968893187630 217.87524661548528115 1.267914553968893187630 51.89790007718696074
1.596209851975103788391 229.76734131608608891 1.596209851975103788391 52.92550017661383777
2.009509145207672986544 241.86128242099061936 2.009509145207672986544 54.06459055028452099
2.529822128134711078928 254.16922320116620426 2.529822128134711078928 55.31736699405790603
3.184857364427998049905 266.70047353584806160 3.184857364427998049905 56.68935183130324162
4.009497869018190385759 279.46108003563085731 4.009497869018190385759 58.17714122057549986
5.009497869018204596614 292.01682658080216015 5.009497869018204596614 59.69941870023838959
6.009497869018204596614 302.42560498431640781 6.009497869018204596614 61.00276429219753993
7.009497869018204596614 311.32402956863131749 7.009497869018204596614 62.13883176792095497
8.009497869018204596614 319.09405485320024809 8.009497869018204596614 63.14342503214967195
9.009497869018204596614 325.98960826360024612 9.009497869018204596614 64.03655670464905825
10.009497869018190385759 332.18329004075656030 10.009497869018190385759 64.82734751555283026
11.009497869018190385759 337.79980890180308961 11.009497869018190385759 65.55453296921834294
12.009497869018190385759 342.93507290810833865 12.009497869018190385759 66.18478986562595878
13.009497869018190385759 347.66550509107338485 13.009497869018190385759 66.78534004978277494
14.009497869018190385759 352.03609667555383567 14.009497869018190385759 67.37259734447836479
15.009497869018190385759 356.10796208718818434 15.009497869018190385759 67.85975749748334351
16.009497869018204596614 359.91636296598608169 16.009497869018204596614 68.29546334959012199
17.009497869018204596614 363.47918766778406052 17.009497869018204596614 68.77900326858896562
18.009497869018204596614 366.82300137733898282 18.009497869018204596614 69.12745793531364313
19.009497869018204596614 369.98937196364244073 19.009497869018204596614 69.46525622820398382
20.009497869018204596614 372.98524534947483744 20.009497869018204596614 69.78891130435404477
21.009497869018204596614 375.81937104311850817 21.009497869018204596614 70.18133626301005279
22.009497869018190385759 378.49763201833542325 22.009497869018190385759 70.53612156493797158
23.009497869018190385759 381.05619317524337930 23.009497869018190385759 70.76216843628517950
24.009497869018190385759 383.50742391938274523 24.009497869018190385759 70.99505233515196778
25.009497869018190385759 385.84939560735983832 25.009497869018190385759 71.30987243150350707
26.009497869018190385759 388.08611227332761473 26.009497869018190385759 71.50859160441042661
27.009497869018204596614 390.21745573554932207 27.009497869018204596614 71.75385044404465873
28.009497869018190385759 392.25576864366911423 28.009497869018190385759 71.92417250692363950
29.009497869018190385759 394.21937283172155730 29.009497869018190385759 71.85690499220034155
30.009497869018190385759 396.11246455794565691 30.009497869018190385759 71.84628504099779889
31.009497869018190385759 397.93233312047465233 31.009497869018190385759 71.87721953056802704
32.009497869018190385759 399.68003806692564694 32.009497869018190385759 71.95834927271023673
33.009497869018218807469 401.34760280421983225 33.009497869018218807469 71.92177328955428095
34.009497869018190385759 402.94352113491009959 34.009497869018190385759 71.98162457380794876
35.009497869018218807469 404.47977956957311108 35.009497869018218807469 72.00244796348651732
36.009497869018190385759 405.96639716833351486 36.009497869018190385759 71.95623221102142963
37.009497869018218807469 407.41289356906310104 37.009497869018218807469 71.90418470244220828
38.009497869018190385759 408.81397790296091443 38.009497869018190385759 71.94472398771775090
39.009497869018190385759 410.16977740260415430 39.009497869018190385759 72.10311595545370267
40.009497869018190385759 411.48089783295824873 40.009497869018190385759 72.28884295315269526
41.009497869018190385759 412.74974661849682889 41.009497869018190385759 72.42547315216181403
42.009497869018190385759 413.97646237929347990 42.009497869018190385759 72.60340218886747721
43.009497869018190385759 415.16436077851176378 43.009497869018190385759 72.70836979734896488
44.009497869018218807469 416.32293669650312040 44.009497869018218807469 72.76666578569121668
46.009497869018218807469 418.55744918710712454 46.009497869018218807469 72.91898659383296888
48.009497869018218807469 420.68855321870017860 48.009497869018218807469 73.04098078125849725
50.009497869018218807469 422.70550252620012088 50.009497869018218807469 73.30666431046908826
52.009497869018190385759 424.61285395329332459 52.009497869018190385759 73.38935064578448930
54.009497869018190385759 426.41257625084500660 54.009497869018190385759 73.36639787106975064
56.009497869018190385759 428.12970302493721420 56.009497869018190385759 73.15854247936282206
58.009497869018190385759 429.77604861288671145 58.009497869018190385759 72.35597432527646333
60.009497869018190385759 431.35051941298769407 60.009497869018190385759 71.81098178651819808
62.009497869018190385759 432.84334913856508820 62.009497869018190385759 71.27916281628243667
64.009497869018190385759 434.25279414402172051 64.009497869018190385759 70.76206348335823293
66.009497869018218807469 435.58569373151391346 66.009497869018218807469 70.26817806180032733
68.009497869018218807469 436.81388710899710759 68.009497869018218807469 69.58010925651855416
70.009497869018218807469 437.97450797681176482 70.009497869018218807469 69.12872080586139134
72.009497869018218807469 439.08342957185976729 72.009497869018218807469 68.78693553921289094
74.009497869018190385759 440.15063177973655684 74.009497869018190385759 68.33291301614491431
76.009497869018190385759 441.17183511205632840 76.009497869018190385759 67.88757710795123046
78.009497869018190385759 442.14546808921244292 78.009497869018190385759 67.77870547042554961
80.009497869018190385759 443.08160752360748802 80.009497869018190385759 67.45176889157717426
82.009497869018190385759 444.00394528570228658 82.009497869018190385759 67.16140820331587236
84.009497869018190385759 444.89574374474602791 84.009497869018190385759 67.11602872636584038
86.009497869018190385759 445.75967371684129148 86.009497869018190385759 67.07549279182198632
88.009497869018218807469 446.59407862040870896 88.009497869018218807469 66.98197516477418390
91.009497869018190385759 447.79260501323835797 91.009497869018190385759 66.71511450186845593
94.009497869018218807469 448.92828867439328633 94.009497869018218807469 66.28730666240954861
97.009497869018190385759 450.00447921155011954 97.009497869018190385759 64.96945700504038257
99.504748934509109403734 450.83256043669223345 99.504748934509109403734 67.27188056496552804
nan nan nan nan

