Time Pressure difference Time.1 Pressure.1 difference.1
(hr) (psi) (hr) (psi)
0.000200000000006639311 0.11048187074318436 0.000200000000006639311 0.08880519708539712
0.000399999999999067768 0.21930886868072988 0.000399999999999067768 0.22520404944580533
0.000600000000005707079 0.32679635799313334 0.000600000000005707079 0.32616252983134392
0.000799999999998135536 0.43309079696666986 0.000799999999998135536 0.42703647436675335
0.001007140329434719206 0.54202452929190958 0.001007140329434719206 0.53097172587976893
0.001267914553963578328 0.67760976658006511 0.001267914553963578328 0.66009891458548997
0.001596209851982166583 0.84600732881225704 0.001596209851982166583 0.81870704408925998
0.002009509145224797066 1.05463207374594692 0.002009509145224797066 1.01262483083272348
0.002529822128138903281 1.31232861500285281 0.002529822128138903281 1.24841209895422600
0.003184857364431081805 1.62953207055224403 0.003184857364431081805 1.53324408297114267
0.004009497869020606231 2.01839039477448612 0.004009497869020606231 1.87467014532648846
0.005047658755842121536 2.49281386333186727 0.005047658755842121536 2.28019101902171961
0.006354625877790454069 3.06840251303597222 0.006354625877790454069 2.75660619388502992
0.008000000000009777068 3.76219481283900503 0.008000000000009777068 3.30909537252421559
0.010071403294347192059 4.59217174686613028 0.010071403294347192059 3.93999574945920816
0.012679145539706837553 5.57644197553702003 0.012679145539706837553 4.64732775261017750
0.015962098519750611558 6.73206651859524552 0.015962098519750611558 5.42321870660781435
0.020095091452091651263 8.07351750774257226 0.020095091452091651263 6.25251323889218646
0.025298221281360611101 9.61086254670094675 0.025298221281360611101 7.11191678940330529
0.031848573644296607199 11.34782886102475352 0.031848573644296607199 7.97060086053534977
0.040094978690177640601 13.28026648301767132 0.040094978690177640601 8.79215488897949626
0.050476587558421215363 15.39511176231613909 0.050476587558421215363 9.53903589929585749
0.063546258777961384112 17.67090017936182633 0.063546258777961384112 10.17819499480075152
0.079999999999998294697 20.07932125390868805 0.079999999999998294697 10.68706816539640414
0.100714032943542974863 22.58848935339705832 0.100714032943542974863 11.05879972303939596
0.126791455396897845276 25.16690125286243429 0.126791455396897845276 11.30318387111925560
0.159620985197506115583 27.78713571364077239 0.159620985197506115583 11.44457171464573264
0.200950914520760193227 30.42883968014354679 0.200950914520760193227 11.51631758335674327
0.252982212813478213320 33.07986142062223678 0.252982212813478213320 11.55335400691822834
0.318485736442795541734 35.73580800516874945 0.318485736442795541734 11.58616748415678011
0.400949786901833249431 38.39839451639976176 0.400949786901833249431 11.63707794890215474
0.504765875584155310207 41.07327810781500688 0.504765875584155310207 11.71864939395930705
0.635462587779443310865 43.76766565563592337 0.635462587779443310865 11.83678801958175342
0.799999999999997157829 46.48955474620479578 0.799999999999997157829 11.99127413407171083
1.007140329435344483500 49.24557372184727910 1.007140329435344483500 12.17861007147593888
1.267914553968893187630 52.04150275663997860 1.267914553968893187630 12.39628985800900551
1.596209851975103788391 54.88203874573179775 1.596209851975103788391 12.64174157516266384
2.009509145207672986544 57.77078760144874536 2.009509145207672986544 12.91382376780414631
2.529822128134711078928 60.71065224412883055 2.529822128134711078928 13.21306092193183623
3.184857364427998049905 63.70385642389241809 3.184857364427998049905 13.54077209517760139
4.009497869018190385759 66.75184442918812522 4.009497869018190385759 13.89614424876491405
5.009497869018204596614 69.75089975370318029 5.009497869018204596614 14.25975419934393074
6.009497869018204596614 72.23713202833938851 6.009497869018204596614 14.57107025874237038
7.009497869018204596614 74.36260242815792765 7.009497869018204596614 14.84243040445883821
8.009497869018204596614 76.21854429648632845 8.009497869018204596614 15.08238672782184508
9.009497869018204596614 77.86561052998651178 9.009497869018204596614 15.29571942677892160
10.009497869018190385759 79.34502828067981284 10.009497869018190385759 15.48460707145112281
11.009497869018190385759 80.68658537048416690 11.009497869018190385759 15.65830199264751599
12.009497869018190385759 81.91319032029682035 12.009497869018190385759 15.80884463813525542
13.009497869018190385759 83.04309747273411801 13.009497869018190385759 15.95229156269321003
14.009497869018190385759 84.08705339487381991 14.009497869018190385759 16.09256335857415010
15.009497869018190385759 85.05965582831234428 15.009497869018190385759 16.20892603326696602
16.009497869018204596614 85.96932733946904648 16.009497869018204596614 16.31299837583792822
17.009497869018204596614 86.82034072635127586 17.009497869018204596614 16.42849632440449525
18.009497869018204596614 87.61904132720751193 18.009497869018204596614 16.51172792037794679
19.009497869018204596614 88.37535800914096740 19.009497869018204596614 16.59241414363517464
20.009497869018204596614 89.09094986957153139 20.009497869018204596614 16.66972212973875500
21.009497869018204596614 89.76790680887322083 21.009497869018204596614 16.76345643358885340
22.009497869018190385759 90.40763402933501425 22.009497869018190385759 16.84820015989605935
23.009497869018190385759 91.01876984934511938 23.009497869018190385759 16.90219353023567450
24.009497869018190385759 91.60426881496842100 24.009497869018190385759 16.95781998736250173
25.009497869018190385759 92.16367025202535501 25.009497869018190385759 17.03301765743577434
26.009497869018190385759 92.69793056083048555 26.009497869018190385759 17.08048355613368585
27.009497869018204596614 93.20702151259111190 27.009497869018204596614 17.13906588146521059
28.009497869018190385759 93.69389126248067612 28.009497869018190385759 17.17974886974646509
29.009497869018190385759 94.16291614875345317 29.009497869018190385759 17.16368140633662165
30.009497869018190385759 94.61509848621160756 30.009497869018190385759 17.16114473350036818
31.009497869018190385759 95.04979079882996018 31.009497869018190385759 17.16853372031393477
32.009497869018190385759 95.46724616928349860 32.009497869018190385759 17.18791230399852310
33.009497869018218807469 95.86555931508993922 33.009497869018218807469 17.17917579465289180
34.009497869018190385759 96.24675905896248196 34.009497869018190385759 17.19347182333380530
35.009497869018218807469 96.61370848898894792 35.009497869018218807469 17.19844568111799177
36.009497869018190385759 96.96880074965541496 36.009497869018190385759 17.18740662437945232
37.009497869018218807469 97.31430969385820617 37.009497869018218807469 17.17497459915731639
38.009497869018190385759 97.64897154901382237 38.009497869018190385759 17.18465777959746532
39.009497869018190385759 97.97281670579137369 39.009497869018190385759 17.22249115513510986
40.009497869018190385759 98.28598985671372645 40.009497869018190385759 17.26685375351597429
41.009497869018190385759 98.58906603721671047 41.009497869018190385759 17.29948913081939921
42.009497869018190385759 98.88207835797740586 42.009497869018190385759 17.34198911463144910
43.009497869018190385759 99.16581879558036405 43.009497869018190385759 17.36706159152363682
44.009497869018218807469 99.44255528936082555 44.009497869018218807469 17.38098612349843464
46.009497869018218807469 99.97628911064590795 46.009497869018218807469 17.41736934683354221
48.009497869018218807469 100.48532287220288595 48.009497869018218807469 17.44650877841112191
50.009497869018218807469 100.96708972996580655 50.009497869018218807469 17.50996972834733967
52.009497869018190385759 101.42267812788111314 52.009497869018190385759 17.52972011860093104
54.009497869018190385759 101.85255832016618172 54.009497869018190385759 17.52423763765302311
56.009497869018190385759 102.26270981344312361 56.009497869018190385759 17.47458946922391831
58.009497869018190385759 102.65595457063604101 58.009497869018190385759 17.28288869801612293
60.009497869018190385759 103.03203137493824215 60.009497869018190385759 17.15271222708278032
62.009497869018190385759 103.38860745912249683 62.009497869018190385759 17.02568238392485966
64.009497869018190385759 103.72526633743120783 64.009497869018190385759 16.90216846126560313
66.009497869018218807469 104.04364163996945081 66.009497869018218807469 16.78419939444071929
68.009497869018218807469 104.33700690304030445 68.009497869018218807469 16.61984784380300439
70.009497869018218807469 104.61423185185878992 70.009497869018218807469 16.51202956860147353
72.009497869018218807469 104.87910795477577608 72.009497869018218807469 16.43039102006154550
74.009497869018190385759 105.13401899908144799 74.009497869018190385759 16.32194357248381067
76.009497869018190385759 105.37794278968902972 76.009497869018190385759 16.21557100261223638
78.009497869018190385759 105.61050396426820441 78.009497869018190385759 16.18956601254371819
80.009497869018190385759 105.83410946196684677 80.009497869018190385759 16.11147420939633079
82.009497869018190385759 106.05441830353672117 82.009497869018190385759 16.04211889348364650
84.009497869018190385759 106.26743255222096707 84.009497869018190385759 16.03127958882891591
86.009497869018190385759 106.47379015696387228 86.009497869018190385759 16.02159720874179172
88.009497869018218807469 106.67309542804770217 88.009497869018218807469 15.99925966502627972
91.009497869018190385759 106.95937445949009259 91.009497869018190385759 15.93551754590084535
94.009497869018218807469 107.23064292757344163 94.009497869018218807469 15.83333171615486457
97.009497869018190385759 107.48770091684085060 97.009497869018190385759 15.51855122758540340
99.504748934509109403734 107.68549571928122077 99.504748934509109403734 16.06850623120388732
nan nan nan nan

