Time Pressure difference Time.1 Pressure.1 difference.1
(hr) (psi) (hr) (psi)
0.000200000000006639311 0.88467945751818511 0.000200000000006639311 0.71110430203456054
0.000399999999999067768 1.75610758279420254 0.000399999999999067768 1.80331302280111294
0.000600000000005707079 2.61680964273605987 0.000600000000005707079 2.61173428738083624
0.000799999999998135536 3.46795839660624416 0.000799999999998135536 3.41947863429497279
0.001007140329434719206 4.34024119350909654 0.001007140329434719206 4.25173628260441827
0.001267914553963578328 5.42593492194335791 0.001267914553963578328 5.28571742798679711
0.001596209851982166583 6.77437211802650552 0.001596209851982166583 6.55576610677444727
0.002009509145224797066 8.44492697857762131 0.002009509145224797066 8.10855554838441961
0.002529822128138903281 10.50842241714971159 0.002529822128138903281 9.99661329983496039
0.003184857364431081805 13.04841725151162457 0.003184857364431081805 12.27739478379131555
0.004009497869020606231 16.16218577308226756 0.004009497869020606231 15.01135123832330009
0.005047658755842121536 19.96111399518726515 0.005047658755842121536 18.25854450306197663
0.006354625877790454069 24.57011863050446365 0.006354625877790454069 22.07342123909430498
0.008000000000009777068 30.12563458340487088 0.008000000000009777068 26.49745772177972114
0.010071403294347192059 36.77164391333849380 0.010071403294347192059 31.54936894902783351
0.012679145539706837553 44.65315104291957482 0.012679145539706837553 37.21330357127403232
0.015962098519750611558 53.90677145113954083 0.015962098519750611558 43.42622143425510473
0.020095091452091651263 64.64839019259537167 0.020095091452091651263 50.06676645769638867
0.025298221281360611101 76.95862322843369441 0.025298221281360611101 56.94840832111751183
0.031848573644296607199 90.86731617820566953 0.031848573644296607199 63.82428898025694508
0.040094978690177640601 106.34123833043254592 0.040094978690177640601 70.40285220802239508
0.050476587558421215363 123.27578299227774039 0.050476587558421215363 76.38347402943624331
0.063546258777961384112 141.49907382429285008 0.063546258777961384112 81.50151663747168129
0.079999999999998294697 160.78441571226881024 0.079999999999998294697 85.57629956321150644
0.100714032943542974863 180.87648564324658196 0.100714032943542974863 88.55292614045724520
0.126791455396897845276 201.52302271881637807 0.126791455396897845276 90.50982308739523319
0.159620985197506115583 222.50445239355633475 0.159620985197506115583 91.64198096876769739
0.200950914520760193227 243.65779833428376833 0.200950914520760193227 92.21648333538645659
0.252982212813478213320 264.88575600244524821 0.252982212813478213320 92.51305111509894630
0.318485736442795541734 286.15314917571697606 0.318485736442795541734 92.77580380970317719
0.400949786901833249431 307.47371131415627588 0.400949786901833249431 93.18346745650754315
0.504765875584155310207 328.89274186332465888 0.504765875584155310207 93.83664775909205957
0.635462587779443310865 350.46794961565177573 0.635462587779443310865 94.78263839560612780
0.799999999999997157829 372.26337494535630412 0.799999999999997157829 96.01968019297720502
1.007140329435344483500 394.33209405628451805 1.007140329435344483500 97.51976572159463785
1.267914553968893187630 416.72039147667686620 1.267914553968893187630 99.26282848987808904
1.596209851975103788391 439.46587741918068559 1.596209851975103788391 101.22827395633984793
2.009509145207672986544 462.59742609219773612 2.009509145207672986544 103.40696196159589704
2.529822128134711078928 486.13828252201665236 2.529822128134711078928 105.80309230770791373
3.184857364427998049905 510.10625330475050987 3.184857364427998049905 108.42722729944452453
4.009497869018190385759 534.51290352626006097 4.009497869018190385759 111.27285655913993878
5.009497869018204596614 558.52772713226499945 5.009497869018204596614 114.18444967086594488
6.009497869018204596614 578.43613930155345315 6.009497869018204596614 116.67730140022808882
7.009497869018204596614 595.45576421950340773 7.009497869018204596614 118.85020764167413176
8.009497869018204596614 610.31714947858085907 8.009497869018204596614 120.77164894740924694
9.009497869018204596614 623.50597088563824855 9.009497869018204596614 122.47990257413270854
10.009497869018190385759 635.35235332216007009 10.009497869018190385759 123.99241334079891885
11.009497869018190385759 646.09482166066800346 11.009497869018190385759 125.38326894112526588
12.009497869018190385759 655.91681502745143462 12.009497869018190385759 126.58873355760542267
13.009497869018190385759 664.96450438987835696 13.009497869018190385759 127.73737945350606537
14.009497869018190385759 673.32394248283287652 14.009497869018190385759 128.86060062500047252
15.009497869018190385759 681.11202017745620196 15.009497869018190385759 129.79237040071234333
16.009497869018204596614 688.39618086007681086 16.009497869018204596614 130.62572580055294225
17.009497869018204596614 695.21063880130532198 17.009497869018204596614 131.55057131407480142
18.009497869018204596614 701.60620406040050057 18.009497869018204596614 132.21704521317562353
19.009497869018204596614 707.66238167021094796 19.009497869018204596614 132.86313713522793023
20.009497869018204596614 713.39245679141981782 20.009497869018204596614 133.48217794932600100
21.009497869018204596614 718.81316422329086890 21.009497869018204596614 134.23275188985701334
22.009497869018190385759 723.93575607072000366 22.009497869018190385759 134.91133411618258719
23.009497869018190385759 728.82940334587544839 23.009497869018190385759 135.34368401449913222
24.009497869018190385759 733.51776446612768723 24.009497869018190385759 135.78911079432808151
25.009497869018190385759 737.99715060017308588 25.009497869018190385759 136.39125333155661224
26.009497869018190385759 742.27522008784421814 26.009497869018190385759 136.77133474426452153
27.009497869018204596614 746.35174688813629018 27.009497869018204596614 137.24043052844905333
28.009497869018190385759 750.25033824359525170 28.009497869018190385759 137.56619803908924382
29.009497869018190385759 754.00603751949586240 29.009497869018190385759 137.43753842536713705
30.009497869018190385759 757.62687071421680685 30.009497869018190385759 137.41722611228277628
31.009497869018190385759 761.10765318764583753 31.009497869018190385759 137.47639314848396452
32.009497869018190385759 764.45041148985956170 32.009497869018190385759 137.63156643425685388
33.009497869018218807469 767.63988914247397588 33.009497869018218807469 137.56160916166086849
34.009497869018190385759 770.69233186766223298 34.009497869018190385759 137.67608407788935665
35.009497869018218807469 773.63066573645630797 35.009497869018218807469 137.71591205850450024
36.009497869018190385759 776.47405376403185073 36.009497869018190385759 137.62751722357575090
37.009497869018218807469 779.24070374261089000 37.009497869018218807469 137.52796824549105281
38.009497869018190385759 781.92049606038688125 38.009497869018190385759 137.60550595155285691
39.009497869018190385759 784.51367406950862460 39.009497869018190385759 137.90845529447742024
40.009497869018190385759 787.02139638995390669 40.009497869018190385759 138.26368714569133545
41.009497869018190385759 789.44826759651903103 41.009497869018190385759 138.52501371171055666
42.009497869018190385759 791.79455282171466024 42.009497869018190385759 138.86533074626524353
43.009497869018190385759 794.06659378849042241 43.009497869018190385759 139.06609766943930140
44.009497869018218807469 796.28255093644906992 44.009497869018218807469 139.17759783965536258
46.009497869018218807469 800.55640459494827610 46.009497869018218807469 139.46893514292830218
48.009497869018218807469 804.63247344681860795 48.009497869018218807469 139.70226805399352088
50.009497869018218807469 808.49020358397990549 50.009497869018218807469 140.21042924266191676
52.009497869018190385759 812.13831068071976915 52.009497869018190385759 140.36857975566266532
54.009497869018190385759 815.58056028013663763 54.009497869018190385759 140.32467899404247191
56.009497869018190385759 818.86483305839146851 56.009497869018190385759 139.92712313789002110
58.009497869018190385759 822.01372577830204591 58.009497869018190385759 138.39208636545745890
60.009497869018190385759 825.02514675603538308 60.009497869018190385759 137.34970313178970969
62.009497869018190385759 827.88041644506301964 62.009497869018190385759 136.33251640262221827
64.009497869018190385759 830.57619985122153139 64.009497869018190385759 135.34348327565663794
66.009497869018218807469 833.12557820662107133 66.009497869018218807469 134.39885037488724606
68.009497869018218807469 835.47468960419587347 68.009497869018218807469 133.08281146567631481
70.009497869018218807469 837.69455803764537904 70.009497869018218807469 132.21946065007000470
72.009497869018218807469 839.81554354831644105 72.009497869018218807469 131.56574301885103750
74.009497869018190385759 841.85673422398804178 74.009497869018190385759 130.69735412891887449
76.009497869018190385759 843.80994487564430528 76.009497869018190385759 129.84557974479798759
78.009497869018190385759 845.67216980343118848 78.009497869018190385759 129.63734575715974984
80.009497869018190385759 847.46268248276442137 80.009497869018190385759 129.01202855733032493
82.009497869018190385759 849.22679731115613322 82.009497869018190385759 128.45666845304444337
84.009497869018190385759 850.93250095920234344 84.009497869018190385759 128.36987312547330475
86.009497869018190385759 852.58490177927035347 86.009497869018190385759 128.29234182820854926
88.009497869018218807469 854.18083130071045161 88.009497869018218807469 128.11347478039698444
91.009497869018190385759 856.47319996293185795 91.009497869018190385759 127.60306213993737856
94.009497869018218807469 858.64537209915147287 94.009497869018218807469 126.78481292115051815
97.009497869018190385759 860.70375435649418705 97.009497869018190385759 124.26421990447116173
99.504748934509109403734 862.28758885663239653 99.504748934509109403734 128.66796407523708012
nan nan nan nan

