Time Pressure difference Time.1 Pressure.1 difference.1
(hr) (psi) (hr) (psi)
0.000200000000006639311 0.40070290433722083 0.000200000000006639311 0.32208452077241045
0.000399999999999067768 0.79540380730473670 0.000399999999999067768 0.81678483604971186
0.000600000000005707079 1.18524649242285673 0.000600000000005707079 1.18294768282114293
0.000799999999998135536 1.57076214422239957 0.000799999999998135536 1.54880392941971734
0.001007140329434719206 1.96585015847662725 0.001007140329434719206 1.92576312520572923
0.001267914553963578328 2.45759960117844534 0.001267914553963578328 2.39409009319812016
0.001596209851982166583 3.06835493882654387 0.001596209851982166583 2.96934047333865925
0.002009509145224797066 3.82500886448156896 0.002009509145224797066 3.67265423719928075
0.002529822128138903281 4.75963960366706385 0.002529822128138903281 4.52782298575935727
0.003184857364431081805 5.91009392752530349 0.003184857364431081805 5.56087033077593595
0.004009497869020606231 7.32043083477910717 0.004009497869020606231 6.79917679573636846
0.005047658755842121536 9.04110102671110027 0.005047658755842121536 8.26994653167578875
0.006354625877790454069 11.12868374130957072 0.006354625877790454069 9.99784037483675014
0.008000000000009777068 13.64497521671460056 0.008000000000009777068 12.00164441079678035
0.010071403294347192059 16.65519006699208404 0.010071403294347192059 14.28983533012817198
0.012679145539706837553 20.22500597097755204 0.012679145539706837553 16.85523349081004696
0.015962098519750611558 24.41630095550216240 0.015962098519750611558 19.66928575680147517
0.020095091452091651263 29.28156349823052551 0.020095091452091651263 22.67702562762389817
0.025298221281360611101 34.85730744549746163 0.025298221281360611101 25.79396686305975095
0.031848573644296607199 41.15705094371664075 0.031848573644296607199 28.90829864343417555
0.040094978690177640601 48.16574261751185304 0.040094978690177640601 31.88796474659727664
0.050476587558421215363 55.83600236183315957 0.050476587558421215363 34.59680184371482881
0.063546258777961384112 64.08998124753618697 0.063546258777961384112 36.91494602591913576
0.079999999999998294697 72.82500096566880643 0.079999999999998294697 38.76056065957203600
0.100714032943542974863 81.92541661008186793 0.100714032943542974863 40.10878108505333017
0.126791455396897845276 91.27697021560554447 0.126791455396897845276 40.99512956241759554
0.159620985197506115583 100.78020863305535215 0.159620985197506115583 41.50792427849123811
0.200950914520760193227 110.36131406380420117 0.200950914520760193227 41.76813690680131685
0.252982212813478213320 119.97621380912244149 0.252982212813478213320 41.90246304001686184
0.318485736442795541734 129.60897530232847430 0.318485736442795541734 42.02147311418055864
0.400949786901833249431 139.26581891768867649 0.400949786901833249431 42.20611853109289058
0.504765875584155310207 148.96726239103054468 0.504765875584155310207 42.50196720495689107
0.635462587779443310865 158.73944409432132829 0.635462587779443310865 42.93044013072187681
0.799999999999997157829 168.61137019892186117 0.799999999999997157829 43.49074051611082581
1.007140329435344483500 178.60708081207297937 1.007140329435344483500 44.17018279654705992
1.267914553968893187630 188.74753984870918089 1.267914553968893187630 44.95967814173415888
1.596209851975103788391 199.04978231660933830 1.596209851975103788391 45.84989854872429049
2.009509145207672986544 209.52688637540364880 2.009509145207672986544 46.83670411308070669
2.529822128134711078928 220.18938052721350118 2.529822128134711078928 47.92199707506621564
3.184857364427998049905 231.04533001501280864 3.184857364427998049905 49.11056147952473339
4.009497869018190385759 242.09997307899570274 4.009497869018190385759 50.39944854402796892
5.009497869018204596614 252.97714388283395692 5.009497869018204596614 51.71821299165036834
6.009497869018204596614 261.99437437143984653 6.009497869018204596614 52.84731452051337186
7.009497869018204596614 269.70317000063249679 7.009497869018204596614 53.83150131766414148
8.009497869018204596614 276.43442185143550205 8.009497869018204596614 54.70179066956281133
9.009497869018204596614 282.40810983263764911 9.009497869018204596614 55.47551971204892141
10.009497869018190385759 287.77375928664469029 10.009497869018190385759 56.16058982630780605
11.009497869018190385759 292.63940664220376675 11.009497869018190385759 56.79055797333352729
12.009497869018190385759 297.08813802734516685 12.009497869018190385759 57.33655592637114751
13.009497869018190385759 301.18615949066247595 13.009497869018190385759 57.85681865275298463
14.009497869018190385759 304.97244738737816760 14.009497869018190385759 58.36556561393311426
15.009497869018190385759 308.49994576537159219 15.009497869018190385759 58.78759740423690516
16.009497869018204596614 311.79920214165639436 16.009497869018204596614 59.16505381087485915
17.009497869018204596614 314.88571338064718930 17.009497869018204596614 59.58394935567600470
18.009497869018204596614 317.78249317181234801 18.009497869018204596614 59.88581917390807519
19.009497869018204596614 320.52555218240684098 19.009497869018204596614 60.17845726721414223
20.009497869018204596614 323.12090773590870185 20.009497869018204596614 60.45884294815697757
21.009497869018204596614 325.57613962024174725 21.009497869018204596614 60.79880467704614233
22.009497869018190385759 327.89634431534943815 22.009497869018190385759 61.10615878887674057
23.009497869018190385759 330.11285184165467399 23.009497869018190385759 61.30198549025774923
24.009497869018190385759 332.23637794085561836 24.009497869018190385759 61.50373517804608525
25.009497869018190385759 334.26525180958446981 25.009497869018190385759 61.77646702622229213
26.009497869018190385759 336.20294218331059710 26.009497869018190385759 61.94861946478336279
27.009497869018204596614 338.04934667999464182 27.009497869018204596614 62.16108968949323810
28.009497869018190385759 339.81515786242988497 28.009497869018190385759 62.30864142311031628
29.009497869018190385759 341.51624812159832345 29.009497869018190385759 62.25036689163878378
30.009497869018190385759 343.15625271864809065 30.009497869018190385759 62.24116672000879191
31.009497869018190385759 344.73282334501016066 31.009497869018190385759 62.26796558263112757
32.009497869018190385759 346.24687789755057565 32.009497869018190385759 62.33824910256181084
33.009497869018218807469 347.69150617263966296 33.009497869018218807469 62.30656295672616096
34.009497869018190385759 349.07406643772958432 34.009497869018190385759 62.35841273238977323
35.009497869018218807469 350.40494272872109605 35.009497869018218807469 62.37645224644286657
36.009497869018190385759 351.69281465919800667 36.009497869018190385759 62.33641507051054020
37.009497869018218807469 352.94592918817232885 37.009497869018218807469 62.29132578500340145
38.009497869018190385759 354.15970278224421008 38.009497869018190385759 62.32644537973409626
39.009497869018190385759 355.33424566428811886 39.009497869018190385759 62.46366195071390592
40.009497869018190385759 356.47008261464827683 40.009497869018190385759 62.62455913588629386
41.009497869018190385759 357.56929920960686786 41.009497869018190385759 62.74292326550916243
42.009497869018190385759 358.63201553714191050 42.009497869018190385759 62.89706499784240634
43.009497869018190385759 359.66110398994072739 43.009497869018190385759 62.98799950358574051
44.009497869018218807469 360.66479007932355216 44.009497869018218807469 63.03850191059880359
46.009497869018218807469 362.60057095353670320 46.009497869018218807469 63.17045897433659007
48.009497869018218807469 364.44676802903433099 48.009497869018218807469 63.27614377841645421
50.009497869018218807469 366.19407170718943689 50.009497869018218807469 63.50630811922990659
52.009497869018190385759 367.84642962798676535 52.009497869018190385759 63.57794013164217262
54.009497869018190385759 369.40554734030422424 54.009497869018190385759 63.55805590969678320
56.009497869018190385759 370.89311171144294121 56.009497869018190385759 63.37798867196137564
58.009497869018190385759 372.31935762185912608 58.009497869018190385759 62.68271572564056981
60.009497869018190385759 373.68333767328346084 60.009497869018190385759 62.21058315195694632
62.009497869018190385759 374.97659123233978562 62.009497869018190385759 61.74986297453344264
64.009497869018190385759 376.19760776113105294 64.009497869018190385759 61.30189456847075746
66.009497869018218807469 377.35231221660563961 66.009497869018218807469 60.87403660968798391
68.009497869018218807469 378.41630861848949507 68.009497869018218807469 60.27795561259895862
70.009497869018218807469 379.42176626868183575 70.009497869018218807469 59.88691321149489255
72.009497869018218807469 380.38243631358972152 72.009497869018218807469 59.59082116231277837
74.009497869018190385759 381.30696442950437586 74.009497869018190385759 59.19749683751592073
76.009497869018190385759 382.19164325215575673 76.009497869018190385759 58.81169781544438990
78.009497869018190385759 383.03511139279362396 78.009497869018190385759 58.71738120967347641
80.009497869018190385759 383.84609849638724199 80.009497869018190385759 58.43415272960162099
82.009497869018190385759 384.64512907103619455 82.009497869018190385759 58.18261031517204174
84.009497869018190385759 385.41770313715966267 84.009497869018190385759 58.14329761321531720
86.009497869018190385759 386.16613444988388437 86.009497869018190385759 58.10818092125754930
88.009497869018218807469 386.88898789575512183 88.009497869018218807469 58.02716565076694621
91.009497869018190385759 387.92728348740433830 91.009497869018190385759 57.79598154707321811
94.009497869018218807469 388.91113778209472684 94.009497869018218807469 57.42536726903928468
97.009497869018190385759 389.84345257898996806 97.009497869018190385759 56.28370072094407561
99.504748934509109403734 390.56082775799006868 99.504748934509109403734 58.27831364451559182
nan nan nan nan

