Time Pressure difference Time.1 Pressure.1 difference.1
(hr) (psi) (hr) (psi)
0.000200000000006639311 0.83217517851571143 0.000200000000006639311 0.66350443539873460
0.000399999999999067768 1.66364128864414207 0.000399999999999067768 1.73560655457356550
0.000600000000019917934 2.49450642941756806 0.000600000000019917934 2.53880923934909974
0.000799999999998135536 3.32481126544160865 0.000799999999998135536 3.35616666188653490
0.001007140329448930061 4.18420112557146417 0.001007140329448930061 4.21383128285698216
0.001267914553963578328 5.26533205123586789 0.001267914553963578328 5.30065092859818154
0.001596209851982166583 6.62520904631782859 0.001596209851982166583 6.66663412387074938
0.002009509145210586212 8.33537979031084042 0.002009509145210586212 8.38287231220367879
0.002529822128153114136 10.48558410388274531 0.002529822128153114136 10.53822855551910997
0.003184857364431081805 13.18828629569541810 0.003184857364431081805 13.24359914746699474
0.004009497869020606231 16.58428583607144446 0.004009497869020606231 16.63709735451404370
0.005047658755856332391 20.84963480271186853 0.005047658755856332391 20.89030213343520259
0.006354625877790454069 26.20412289846743903 0.006354625877790454069 26.21570186295326010
0.007999999999995566213 32.92161770667014054 0.007999999999995566213 32.87542208418756928
0.010071403294347192059 41.34256093834871137 0.010071403294347192059 41.19123811954545999
0.012679145539706837553 51.88890717237983807 0.012679145539706837553 51.55571003644273986
0.015962098519764822413 65.08172861612962379 0.015962098519764822413 64.44399786548545706
0.020095091452077440408 81.56156524042154388 0.020095091452077440408 80.42546228633952410
0.025298221281346400247 102.11132650353557949 0.025298221281346400247 100.17345445984973651
0.031848573644282396344 127.68108130021840907 0.031848573644282396344 124.47065450080128812
0.040094978690177640601 159.41331568833331289 0.040094978690177640601 154.20582673792239348
0.050476587558421215363 198.66607781202426963 0.050476587558421215363 190.35582645913450506
0.063546258777947173257 247.02973193966690246 0.063546258777947173257 233.94407429093445216
0.079999999999998294697 306.33067462150177107 0.079999999999998294697 285.96359967476979591
0.100714032943528764008 378.61223520883015681 0.100714032943528764008 347.24951769803851676
0.126791455396883634421 466.07913413328276420 0.126791455396883634421 418.28341210173471154
0.159620985197506115583 570.98767112593679940 0.159620985197506115583 498.91275443798178912
0.200950914520774404082 695.46033633821014064 0.200950914520774404082 587.97681222920050459
0.252982212813464002465 841.20329308181385386 0.252982212813464002465 682.85503622842577442
0.318485736442795541734 1009.11319850066968229 0.318485736442795541734 779.00712363041691333
0.400949786901833249431 1198.78433593567251592 0.400949786901833249431 869.66541028320784790
0.504765875584169521062 1407.97734777300684073 0.504765875584169521062 945.95596946280943484
0.635462587779429100010 1632.18847141103606191 0.635462587779429100010 997.79488704079540184
0.800000000000011368684 1864.53976140400823169 0.800000000000011368684 1015.79360350012188974
1.007140329435344483500 2096.23440931764207562 1.007140329435344483500 993.98278251746535261
1.267914553968893187630 2317.70471707571232400 1.267914553968893187630 932.49285647113424602
1.596209851975103788391 2520.29366109430884535 1.596209851975103788391 838.82428513362640388
2.009509145207672986544 2697.96517676934308838 2.009509145207672986544 726.59091861373963184
2.529822128134725289783 2848.37543019437089242 2.529822128134725289783 611.81551750919197730
3.184857364427998049905 2972.85109228702731343 3.184857364427998049905 508.32780594142161590
4.009497869018190385759 3075.33657024626154453 4.009497869018190385759 424.29783064789756963
5.009497869018204596614 3158.25178674302469517 5.009497869018204596614 363.07406726544871844
6.009497869018190385759 3217.25839592297506897 6.009497869018190385759 326.42142389104003541
7.009497869018190385759 3262.55017027831172527 7.009497869018190385759 303.25462065290548708
8.009497869018204596614 3299.09600531087016861 8.009497869018204596614 287.53330411749294626
9.009497869018190385759 3329.60683970425498046 9.009497869018190385759 276.29606644787770620
10.009497869018190385759 3355.70161466449280852 10.009497869018190385759 267.73233071327251764
11.009497869018204596614 3378.41908265493930230 11.009497869018204596614 260.40802514511244681
12.009497869018190385759 3398.46502508436560674 12.009497869018190385759 254.23527331327085221
13.009497869018190385759 3416.34069144388513450 13.009497869018190385759 248.82691392169351730
14.009497869018204596614 3432.41567073088936013 14.009497869018204596614 243.93469281956188865
15.009497869018190385759 3446.97061218698945595 15.009497869018190385759 239.39419356229100799
16.009497869018190385759 3460.22392269395777475 16.009497869018190385759 235.09254049152775679
17.009497869018190385759 3472.34892368356895531 17.009497869018190385759 230.88750286179333671
18.009497869018204596614 3483.48577555689007568 18.009497869018204596614 226.84461486453130874
19.009497869018190385759 3493.74956081718664791 19.009497869018190385759 222.76643360531045346
20.009497869018190385759 3503.23622757159591856 20.009497869018190385759 218.81983071206775548
21.009497869018204596614 3512.02627558833819421 21.009497869018204596614 214.89167858301425440
22.009497869018190385759 3520.18834875023776476 22.009497869018190385759 210.96723216611138696
23.009497869018190385759 3527.78145300741380197 23.009497869018190385759 206.93102729751041124
24.009497869018204596614 3534.85684423344764582 24.009497869018204596614 202.99342726240905677
25.009497869018190385759 3541.45922679813156719 25.009497869018190385759 199.04291387691031900
26.009497869018190385759 3547.62813731147571161 26.009497869018190385759 194.94657948515433077
27.009497869018204596614 3553.39842653437108311 27.009497869018204596614 190.97866668444498828
28.009497869018190385759 3558.80144488883524900 28.009497869018190385759 187.00483888495452334
29.009497869018190385759 3563.86491736483503701 29.009497869018190385759 182.92170420316790569
30.009497869018190385759 3568.61457899381457537 30.009497869018190385759 178.95203231567865032
31.009497869018190385759 3573.07243087269534954 31.009497869018190385759 174.98585091291090521
32.009497869018190385759 3577.25984041177025574 32.009497869018190385759 171.03110991925041162
33.009497869018190385759 3581.19515599527721861 33.009497869018190385759 166.97571728346787268
34.009497869018190385759 3584.89584651277982630 34.009497869018190385759 163.06374412727393519
35.009497869018190385759 3588.37796388940023462 35.009497869018190385759 159.09805182856874239
36.009497869018190385759 3591.65524582879697846 36.009497869018190385759 155.24871275377401503
37.009497869018190385759 3594.74191394097306329 37.009497869018190385759 151.43306339629148738
38.009497869018190385759 3597.65005857951564394 38.009497869018190385759 147.65750644106185518
39.009497869018190385759 3600.39065079458396212 39.009497869018190385759 143.86777638267943757
40.009497869018190385759 3602.97511928329731745 40.009497869018190385759 140.03924050267659140
41.009497869018190385759 3605.41288387348140532 41.009497869018190385759 136.46513798263663375
42.009497869018190385759 3607.71253636501751316 42.009497869018190385759 132.84497101791674822
43.009497869018190385759 3609.88325599103973218 43.009497869018190385759 129.36358392696442365
44.009497869018190385759 3611.93288519870657183 44.009497869018190385759 125.86400543164803878
46.009497869018190385759 3615.69594815190430381 46.009497869018190385759 119.05848412748585474
48.009497869018190385759 3619.05608626246021231 48.009497869018190385759 112.56018951502788639
50.009497869018218807469 3622.05859962503927818 50.009497869018218807469 106.29192077666633054
52.009497869018190385759 3624.74503138319050777 52.009497869018190385759 100.28330826064383530
54.009497869018190385759 3627.14999938072287478 54.009497869018190385759 94.57205965377238499
56.009497869018190385759 3629.30518223366198072 56.009497869018190385759 89.11178939520681297
58.009497869018190385759 3631.23739506046058523 58.009497869018190385759 83.92864259026420370
60.009497869018190385759 3632.97169970501317948 60.009497869018190385759 78.99191632608584257
62.009497869018190385759 3634.52845588798300014 62.009497869018190385759 74.29456793772862966
64.009497869018190385759 3635.92803898324564216 64.009497869018190385759 69.83352552781049383
66.009497869018218807469 3637.18611882059667550 66.009497869018218807469 65.64968932351087005
68.009497869018190385759 3638.31786978159698265 68.009497869018190385759 61.69876491740845381
70.009497869018190385759 3639.33665140454604625 70.009497869018190385759 57.90812580221317063
72.009497869018190385759 3640.25355084802504280 72.009497869018190385759 54.38294983084802681
74.009497869018218807469 3641.07973509730754813 74.009497869018218807469 51.02422949435605659
76.009497869018190385759 3641.82443983424491307 76.009497869018190385759 47.84927178928526814
78.009497869018190385759 3642.49583394928913549 78.009497869018190385759 44.84282713600497061
80.009497869018218807469 3643.10146681247488232 80.009497869018218807469 42.02110152754367789
82.009497869018190385759 3643.64772729451306077 82.009497869018190385759 39.34094022304467586
84.009497869018190385759 3644.14034102710184015 84.009497869018190385759 36.72747323166733935
86.009497869018218807469 3644.58497400317719439 86.009497869018218807469 34.33482285490597974
88.009497869018190385759 3644.98631758023066141 88.009497869018190385759 32.00235445151577807
91.009497869018190385759 3645.51626621907371373 91.009497869018190385759 28.77548947082093633
94.009497869018190385759 3645.97122411576356171 94.009497869018190385759 25.77674610788950105
97.009497869018190385759 3646.36108408950349258 97.009497869018190385759 23.06671197509515636
99.504748934509137825444 3646.64254339362878454 99.504748934509137825444 19.61727730104459511
nan nan nan nan

