Time Pressure difference Time.1 Pressure.1 difference.1
(hr) (psi) (hr) (psi)
0.000200000000006639311 0.87378393744149707 0.000200000000006639311 0.69667965716867131
0.000399999999999067768 1.74682335307634906 0.000399999999999067768 1.82238688230224377
0.000600000000019917934 2.61923175088844662 0.000600000000019917934 2.66574970131655453
0.000799999999998135536 3.49105182871368935 0.000799999999998135536 3.52397499498086209
0.001007140329448930061 4.39341118185003765 0.001007140329448930061 4.42452284699983078
0.001267914553963578328 5.52859865379766191 0.001267914553963578328 5.56568347502809058
0.001596209851982166583 6.95646949863371944 0.001596209851982166583 6.99996583006428708
0.002009509145210586212 8.75214877982638306 0.002009509145210586212 8.80201592781386211
0.002529822128153114136 11.00986330907688071 0.002529822128153114136 11.06513998329506521
0.003184857364431081805 13.84770061048019052 0.003184857364431081805 13.90577910484034518
0.004009497869020606231 17.41350012787501456 0.004009497869020606231 17.46895222223974287
0.005047658755856332391 21.89211654284745734 0.005047658755856332391 21.93481724010696254
0.006354625877790454069 27.51432904339081276 0.006354625877790454069 27.52648695610092489
0.007999999999995566213 34.56769859200364436 0.007999999999995566213 34.51919318839694739
0.010071403294347192059 43.40968898526614339 0.010071403294347192059 43.25080002552273584
0.012679145539706837553 54.48335253099882891 0.012679145539706837553 54.13349553826487437
0.015962098519764822413 68.33581504693610498 0.015962098519764822413 67.66619775875972209
0.020095091452077440408 85.63964350244260970 0.020095091452077440408 84.44673540065650741
0.025298221281346400247 107.21689282871236060 0.025298221281346400247 105.18212718284222262
0.031848573644282396344 134.06513536522930963 0.031848573644282396344 130.69418722584131842
0.040094978690177640601 167.38398147274997996 0.040094978690177640601 161.91611807481851315
0.050476587558421215363 208.59938170262549306 0.050476587558421215363 199.87361778209120189
0.063546258777947173257 259.38121853665023764 0.063546258777947173257 245.64127800548121172
0.079999999999998294697 321.64720835257685394 0.079999999999998294697 300.26177965850831697
0.100714032943528764008 397.54284696927163623 0.100714032943528764008 364.61199358294044259
0.126791455396883634421 489.38309083994687398 0.126791455396883634421 439.19758270682143575
0.159620985197506115583 599.53705468223358821 0.159620985197506115583 523.85839215988085016
0.200950914520774404082 730.23335315512065335 0.200950914520774404082 617.37565284066056392
0.252982212813464002465 883.26345773590458066 0.252982212813464002465 716.99778803984713704
0.318485736442795541734 1059.56885842570318346 0.318485736442795541734 817.95747981193767373
0.400949786901833249431 1258.72355273245602802 0.400949786901833249431 913.14868079736822892
0.504765875584169521062 1478.37621516165700086 0.504765875584169521062 993.25376793595000890
0.635462587779429100010 1713.79789498158788774 0.635462587779429100010 1047.68463139283517194
0.800000000000011368684 1957.76674947420883655 0.800000000000011368684 1066.58328367512808654
1.007140329435344483500 2201.04612978352406572 1.007140329435344483500 1043.68192164333868277
1.267914553968893187630 2433.58995292949839495 1.267914553968893187630 979.11749929469101517
1.596209851975103788391 2646.30834414902483331 1.596209851975103788391 880.76549939030769565
2.009509145207672986544 2832.86343560781006090 2.009509145207672986544 762.92046454442663617
2.529822128134725289783 2990.79420170408911872 2.529822128134725289783 642.40629338465146247
3.184857364427998049905 3121.49364690137872458 3.184857364427998049905 533.74419623849269101
4.009497869018190385759 3229.10339875857425795 4.009497869018190385759 445.51272218029242822
5.009497869018204596614 3316.16437608017577077 5.009497869018204596614 381.22777062872114584
6.009497869018190385759 3378.12131571912368599 6.009497869018190385759 342.74249508559211108
7.009497869018190385759 3425.67767879222674310 7.009497869018190385759 318.41735168555078417
8.009497869018204596614 3464.05080557641394989 8.009497869018204596614 301.90996932336759073
9.009497869018190385759 3496.08718168946734295 9.009497869018190385759 290.11086977027156308
10.009497869018190385759 3523.48669539771708514 10.009497869018190385759 281.11894724893613784
11.009497869018204596614 3547.34003678768613099 11.009497869018204596614 273.42842640236807483
12.009497869018190385759 3568.38827633858409172 12.009497869018190385759 266.94703697893442040
13.009497869018190385759 3587.15772601607932302 13.009497869018190385759 261.26825961777819884
14.009497869018204596614 3604.03645426743378266 14.009497869018204596614 256.13142746053995324
15.009497869018190385759 3619.31914279633883780 15.009497869018190385759 251.36390324040553423
16.009497869018190385759 3633.23511882865614098 16.009497869018190385759 246.84716751610415031
17.009497869018190385759 3645.96636986774728939 17.009497869018190385759 242.43187800488300354
18.009497869018204596614 3657.66006433473467041 18.009497869018204596614 238.18684560775787418
19.009497869018190385759 3668.43703885804552556 19.009497869018190385759 233.90475528557598750
20.009497869018190385759 3678.39803895017575996 20.009497869018190385759 229.76082224767111484
21.009497869018204596614 3687.62758936775526308 21.009497869018204596614 225.63626251216496144
22.009497869018190385759 3696.19776618774949384 22.009497869018190385759 221.51559377441694210
23.009497869018190385759 3704.17052565778476492 23.009497869018190385759 217.27757866238593465
24.009497869018204596614 3711.59968644512036917 24.009497869018204596614 213.14309862552951813
25.009497869018190385759 3718.53218813803869125 25.009497869018190385759 208.99505957075584206
26.009497869018190385759 3725.00954417704951993 26.009497869018190385759 204.69390845941202883
27.009497869018204596614 3731.06834786108947810 27.009497869018204596614 200.52760001866721495
28.009497869018190385759 3736.74151713327728430 28.009497869018190385759 196.35508082920227935
29.009497869018190385759 3742.05816323307681159 29.009497869018190385759 192.06778941332629529
30.009497869018190385759 3747.04530794350557699 30.009497869018190385759 187.89963393146257431
31.009497869018190385759 3751.72605241633027617 31.009497869018190385759 183.73514345855645047
32.009497869018190385759 3756.12283243235879127 32.009497869018190385759 179.58266541521291515
33.009497869018190385759 3760.25491379504092038 33.009497869018190385759 175.32450314764125210
34.009497869018190385759 3764.14063883841890856 34.009497869018190385759 171.21693133363763195
35.009497869018190385759 3767.79686208387010993 35.009497869018190385759 167.05295441999717809
36.009497869018190385759 3771.23800812023682738 36.009497869018190385759 163.01114839146273994
37.009497869018190385759 3774.47900963802158003 37.009497869018190385759 159.00471656610608306
38.009497869018190385759 3777.53256150849119877 38.009497869018190385759 155.04038176311493658
39.009497869018190385759 3780.41018333431293286 39.009497869018190385759 151.06116520181342366
40.009497869018190385759 3783.12387524746191048 40.009497869018190385759 147.04120252781041245
41.009497869018190385759 3785.68352806715574843 41.009497869018190385759 143.28839488176848249
42.009497869018190385759 3788.09816318326829787 42.009497869018190385759 139.48721956881257711
43.009497869018190385759 3790.37741879059149142 43.009497869018190385759 135.83176312331264057
44.009497869018190385759 3792.52952945864171852 44.009497869018190385759 132.15720570323043148
46.009497869018190385759 3796.48074555949960995 46.009497869018190385759 125.01140833386016027
48.009497869018190385759 3800.00889057558379136 48.009497869018190385759 118.18819899077928426
50.009497869018218807469 3803.16152960629142399 50.009497869018218807469 111.60651681549965986
52.009497869018190385759 3805.98228295235003316 52.009497869018190385759 105.29747367367602351
54.009497869018190385759 3808.50749934975920041 54.009497869018190385759 99.30066263646101277
56.009497869018190385759 3810.77044134534480690 56.009497869018190385759 93.56737886496716783
58.009497869018190385759 3812.79926481348365996 58.009497869018190385759 88.12507471977740181
60.009497869018190385759 3814.62028469026381572 60.009497869018190385759 82.94151214239013825
62.009497869018190385759 3816.25487868238224110 62.009497869018190385759 78.00929633461505830
64.009497869018190385759 3817.72444093240801521 64.009497869018190385759 73.32520180420101497
66.009497869018218807469 3819.04542476162669118 66.009497869018218807469 68.93217378968640219
68.009497869018190385759 3820.23376327067671809 68.009497869018190385759 64.78370316327887224
70.009497869018190385759 3821.30348397477337130 70.009497869018190385759 60.80353209232382738
72.009497869018190385759 3822.26622839042647684 72.009497869018190385759 57.10209732239042779
74.009497869018218807469 3823.13372185217303922 74.009497869018218807469 53.57544096907385267
76.009497869018190385759 3823.91566182595715873 76.009497869018190385759 50.24173537874953155
78.009497869018190385759 3824.62062564675352405 78.009497869018190385759 47.08496849280521701
80.009497869018218807469 3825.25654015309874012 80.009497869018218807469 44.12215660392086392
82.009497869018190385759 3825.83011365923857738 82.009497869018190385759 41.30798723419690788
84.009497869018190385759 3826.34735807845663658 84.009497869018190385759 38.56384689325070525
86.009497869018218807469 3826.81422270333587221 86.009497869018218807469 36.05156399765127873
88.009497869018190385759 3827.23563345924230816 88.009497869018190385759 33.60247217409156661
91.009497869018190385759 3827.79207953002742215 91.009497869018190385759 30.21426394436198493
94.009497869018190385759 3828.26978532155135326 94.009497869018190385759 27.06558341328397788
97.009497869018190385759 3828.67913829397866721 97.009497869018190385759 24.22004757384991436
99.504748934509137825444 3828.97467056331061031 99.504748934509137825444 20.59814116609682699
nan nan nan nan

