Time Pressure difference Time.1 Pressure.1 difference.1
(hr) (psi) (hr) (psi)
0.000200000000006639311 0.11650452499219961 0.000200000000006639311 0.09289062095582284
0.000399999999999067768 0.23290978041017987 0.000399999999999067768 0.24298491764029920
0.000600000000019917934 0.34923090011845953 0.000600000000019917934 0.35543329350887398
0.000799999999998135536 0.46547357716182519 0.000799999999998135536 0.46986333266411495
0.001007140329448930061 0.58578815758000502 0.001007140329448930061 0.58993637959997747
0.001267914553963578328 0.73714648717302156 0.001267914553963578328 0.74209113000374549
0.001596209851982166583 0.92752926648449596 0.001596209851982166583 0.93332877734190489
0.002009509145210586212 1.16695317064351767 0.002009509145210586212 1.17360212370851502
0.002529822128153114136 1.46798177454358436 0.002529822128153114136 1.47535199777267545
0.003184857364431081805 1.84636008139735863 0.003184857364431081805 1.85410388064537934
0.004009497869020606231 2.32180001705000194 0.004009497869020606231 2.32919362963196575
0.005047658755856332391 2.91894887237966127 0.005047658755856332391 2.92464229868092840
0.006354625877790454069 3.66857720578544155 0.006354625877790454069 3.67019826081345624
0.007999999999995566213 4.60902647893381978 0.007999999999995566213 4.60255909178625888
0.010071403294347192059 5.78795853136881888 0.010071403294347192059 5.76677333673636472
0.012679145539706837553 7.26444700413317701 0.012679145539706837553 7.21779940510198337
0.015962098519764822413 9.11144200625814626 0.015962098519764822413 9.02215970116796306
0.020095091452077440408 11.41861913365901593 0.020095091452077440408 11.25956472008753373
0.025298221281346400247 14.29558571049498106 0.025298221281346400247 14.02428362437896325
0.031848573644282396344 17.87535138203057272 0.031848573644282396344 17.42589163011217934
0.040094978690177640601 22.31786419636666352 0.040094978690177640601 21.58881574330913722
0.050476587558421215363 27.81325089368339931 0.050476587558421215363 26.64981570427882929
0.063546258777947173257 34.58416247155336265 0.063546258777947173257 32.75217040073082586
0.079999999999998294697 42.88629444701025051 0.079999999999998294697 40.03490395446777228
0.100714032943528764008 53.00571292923621769 0.100714032943528764008 48.61493247772538950
0.126791455396883634421 65.25107877865958983 0.126791455396883634421 58.55967769424285763
0.159620985197506115583 79.93827395763113941 0.159620985197506115583 69.84778562131745616
0.200950914520774404082 97.36444708734943276 0.200950914520774404082 82.31675371208807235
0.252982212813464002465 117.76846103145395261 0.252982212813464002465 95.59970507197961354
0.318485736442795541734 141.27584779009373506 0.318485736442795541734 109.06099730825836502
0.400949786901833249431 167.82980703099414654 0.400949786901833249431 121.75315743964908677
0.504765875584169521062 197.11682868822094861 0.504765875584169521062 132.43383572479334020
0.635462587779429100010 228.50638599754503844 0.635462587779429100010 139.69128418571133921
0.800000000000011368684 261.03556659656118200 0.800000000000011368684 142.21110449001704978
1.007140329435344483500 293.47281730446985648 1.007140329435344483500 139.15758955244513118
1.267914553968893187630 324.47866039059971399 1.267914553968893187630 130.54899990595879444
1.596209851975103788391 352.84111255320328837 1.596209851975103788391 117.43539991870770223
2.009509145207672986544 377.71512474770804602 2.009509145207672986544 101.72272860592354959
2.529822128134725289783 398.77256022721189765 2.529822128134725289783 85.65417245128686830
3.184857364427998049905 416.19915292018379205 3.184857364427998049905 71.16589283179902736
4.009497869018190385759 430.54711983447657531 4.009497869018190385759 59.40169629070565804
5.009497869018204596614 442.15525014402339821 5.009497869018204596614 50.83036941716282087
6.009497869018190385759 450.41617542921653694 6.009497869018190385759 45.69899934474560865
7.009497869018190385759 456.75702383896356196 7.009497869018190385759 42.45564689140677217
8.009497869018204596614 461.87344074352182588 8.009497869018204596614 40.25466257644901447
9.009497869018190385759 466.14495755859564952 9.009497869018190385759 38.68144930270287318
10.009497869018190385759 469.79822605302894090 10.009497869018190385759 37.48252629985815076
11.009497869018204596614 472.97867157169145003 11.009497869018204596614 36.45712352031575421
12.009497869018190385759 475.78510351181120086 12.009497869018190385759 35.59293826385791704
13.009497869018190385759 478.28769680214389837 13.009497869018190385759 34.83576794903709839
14.009497869018204596614 480.53819390232450814 14.009497869018204596614 34.15085699473866043
15.009497869018190385759 482.57588570617849655 15.009497869018190385759 33.51518709872074453
16.009497869018190385759 484.43134917715411802 16.009497869018190385759 32.91295566881388623
17.009497869018190385759 486.12884931569971059 17.009497869018190385759 32.32425040065106714
18.009497869018204596614 487.68800857796458104 18.009497869018204596614 31.75824608103438607
19.009497869018190385759 489.12493851440615344 19.009497869018190385759 31.18730070474346761
20.009497869018190385759 490.45307186002338540 20.009497869018190385759 30.63477629968948079
21.009497869018204596614 491.68367858236734946 21.009497869018204596614 30.08483500162199320
22.009497869018190385759 492.82636882503328479 22.009497869018190385759 29.53541250325559275
23.009497869018190385759 493.88940342103802550 23.009497869018190385759 28.97034382165146127
24.009497869018204596614 494.87995819268269315 24.009497869018204596614 28.41907981673726979
25.009497869018190385759 495.80429175173844669 25.009497869018190385759 27.86600794276744608
26.009497869018190385759 496.66793922360659508 26.009497869018190385759 27.29252112792160645
27.009497869018204596614 497.47577971481194936 27.009497869018204596614 26.73701333582229722
28.009497869018190385759 498.23220228443699398 28.009497869018190385759 26.18067744389363227
29.009497869018190385759 498.94108843107682105 29.009497869018190385759 25.60903858844350722
30.009497869018190385759 499.60604105913404283 30.009497869018190385759 25.05328452419501062
31.009497869018190385759 500.23014032217736258 31.009497869018190385759 24.49801912780752744
32.009497869018190385759 500.81637765764781989 32.009497869018190385759 23.94435538869505464
33.009497869018190385759 501.36732183933878559 33.009497869018190385759 23.37660041968550217
34.009497869018190385759 501.88541851178928255 34.009497869018190385759 22.82892417781835093
35.009497869018190385759 502.37291494451608287 35.009497869018190385759 22.27372725599962422
36.009497869018190385759 502.83173441603162246 36.009497869018190385759 21.73481978552836580
37.009497869018190385759 503.26386795173630162 37.009497869018190385759 21.20062887548080965
38.009497869018190385759 503.67100820113211057 38.009497869018190385759 20.67205090174865845
39.009497869018190385759 504.05469111124176607 39.009497869018190385759 20.14148869357511984
40.009497869018190385759 504.41651669966165628 40.009497869018190385759 19.60549367037472024
41.009497869018190385759 504.75780374228736491 41.009497869018190385759 19.10511931756912674
42.009497869018190385759 505.07975509110247003 42.009497869018190385759 18.59829594250834361
43.009497869018190385759 505.38365583874553977 43.009497869018190385759 18.11090174977501732
44.009497869018190385759 505.67060392781888822 44.009497869018190385759 17.62096076043072301
46.009497869018190385759 506.19743274126659571 46.009497869018190385759 16.66818777784801853
48.009497869018190385759 506.66785207674450930 48.009497869018190385759 15.75842653210390409
50.009497869018218807469 507.08820394750551941 50.009497869018218807469 14.88086890873328549
52.009497869018190385759 507.46430439364661424 52.009497869018190385759 14.03966315649013552
54.009497869018190385759 507.80099991330126841 54.009497869018190385759 13.24008835152813468
56.009497869018190385759 508.10272551271265229 56.009497869018190385759 12.47565051532895630
58.009497869018190385759 508.37323530846441599 58.009497869018190385759 11.75000996263698738
60.009497869018190385759 508.61603795870183831 60.009497869018190385759 11.05886828565201796
62.009497869018190385759 508.83398382431761320 62.009497869018190385759 10.40123951128200730
64.009497869018190385759 509.02992545765442856 64.009497869018190385759 9.77669357389346949
66.009497869018218807469 509.20605663488356640 66.009497869018218807469 9.19095650529152053
68.009497869018190385759 509.36450176942355483 68.009497869018190385759 8.63782708843718439
70.009497869018190385759 509.50713119663640782 70.009497869018190385759 8.10713761230984353
72.009497869018190385759 509.63549711872343551 72.009497869018190385759 7.61361297631872347
74.009497869018218807469 509.75116291362309084 74.009497869018218807469 7.14339212920984767
76.009497869018190385759 509.85542157679424236 76.009497869018190385759 6.69889805049993736
78.009497869018190385759 509.94941675290044714 78.009497869018190385759 6.27799579904069560
80.009497869018218807469 510.03420535374652900 80.009497869018218807469 5.88295421385611572
82.009497869018190385759 510.11068182123182169 82.009497869018190385759 5.50773163122625409
84.009497869018190385759 510.17964774379419168 84.009497869018190385759 5.14184625243342719
86.009497869018218807469 510.24189636044479812 86.009497869018218807469 4.80687519968683663
88.009497869018190385759 510.29808446123229260 88.009497869018190385759 4.48032962321220829
91.009497869018190385759 510.37227727067033811 91.009497869018190385759 4.02856852591493109
94.009497869018190385759 510.43597137620685089 94.009497869018190385759 3.60874445510453024
97.009497869018190385759 510.49055177253052307 97.009497869018190385759 3.22933967651332132
99.504748934509137825444 510.52995607510803211 99.504748934509137825444 2.74641882214624333
nan nan nan nan

