Time Pressure difference Time.1 Pressure.1 difference.1
(hr) (psi) (hr) (psi)
0.000200000000006639311 0.14979153213282806 0.000200000000006639311 0.11943079837177221
0.000399999999999067768 0.29945543195594559 0.000399999999999067768 0.31240917982324179
0.000600000000019917934 0.44901115729516228 0.000600000000019917934 0.45698566308283795
0.000799999999998135536 0.59846602777948954 0.000799999999998135536 0.60410999913957630
0.001007140329448930061 0.75315620260286353 0.001007140329448930061 0.75848963091425681
0.001267914553963578328 0.94775976922245631 0.001267914553963578328 0.95411716714767270
0.001596209851982166583 1.19253762833720911 0.001596209851982166583 1.19999414229673484
0.002009509145210586212 1.50036836225595138 0.002009509145210586212 1.50891701619666208
0.002529822128153114136 1.88740513869889415 0.002529822128153114136 1.89688113999343977
0.003184857364431081805 2.37389153322517554 0.003184857364431081805 2.38384784654405912
0.004009497869020606231 2.98517145049285970 0.004009497869020606231 2.99467752381252739
0.005047658755856332391 3.75293426448813605 0.005047658755856332391 3.76025438401833645
0.006354625877790454069 4.71674212172413831 0.006354625877790454069 4.71882633533158646
0.007999999999995566213 5.92589118720062569 0.007999999999995566213 5.91757597515376244
0.010071403294347192059 7.44166096890276751 0.010071403294347192059 7.41442286151818308
0.012679145539706837553 9.34000329102837057 0.012679145539706837553 9.28002780655969239
0.015962098519764822413 11.71471115090333015 0.015962098519764822413 11.59991961578738007
0.020095091452077440408 14.68108174327587712 0.020095091452077440408 14.47658321154111682
0.025298221281346400247 18.38003877063640701 0.025298221281346400247 18.03122180277295072
0.031848573644282396344 22.98259463403931235 0.031848573644282396344 22.40471781014422703
0.040094978690177640601 28.69439682389999291 0.040094978690177640601 27.75704881282603509
0.050476587558421215363 35.75989400616437308 0.050476587558421215363 34.26404876264420807
0.063546258777947173257 44.46535174914004074 0.063546258777947173257 42.10993337236820366
0.079999999999998294697 55.13952143187032107 0.079999999999998294697 51.47344794145856639
0.100714032943528764008 68.15020233758943391 0.100714032943528764008 62.50491318564692733
0.126791455396883634421 83.89424414399088903 0.126791455396883634421 75.29101417831223841
0.159620985197506115583 102.77778080266860172 0.159620985197506115583 89.80429579883671920
0.200950914520774404082 125.18286054087784009 0.200950914520774404082 105.83582620125609708
0.252982212813464002465 151.41659275472648005 0.252982212813464002465 122.91390652111664394
0.318485736442795541734 181.64037573012055304 0.318485736442795541734 140.22128225347503871
0.400949786901833249431 215.78118046842104150 0.400949786901833249431 156.53977385097743991
0.504765875584169521062 253.43592259914120746 0.504765875584169521062 170.27207450330570282
0.635462587779429100010 293.79392485398648205 0.635462587779429100010 179.60307966734316665
0.800000000000011368684 335.61715705272149535 0.800000000000011368684 182.84284863002196175
1.007140329435344483500 377.32219367717556224 1.007140329435344483500 178.91690085314377257
1.267914553968893187630 417.18684907362819558 1.267914553968893187630 167.84871416480416428
1.596209851975103788391 453.65285899697562400 1.596209851975103788391 150.98837132405273564
2.009509145207672986544 485.63373181848180593 2.009509145207672986544 130.78636535047314737
2.529822128134725289783 512.70757743498677428 2.529822128134725289783 110.12679315165455307
3.184857364427998049905 535.11319661166498918 3.184857364427998049905 91.49900506945587608
4.009497869018190385759 553.56058264432704163 4.009497869018190385759 76.37360951662155628
5.009497869018204596614 568.48532161374441785 5.009497869018204596614 65.35333210778077273
6.009497869018190385759 579.10651126613561246 6.009497869018190385759 58.75585630038721519
7.009497869018190385759 587.25903065009606507 7.009497869018190385759 54.58583171752298568
8.009497869018204596614 593.83728095595665764 8.009497869018204596614 51.75599474114873288
9.009497869018190385759 599.32923114676577825 9.009497869018190385759 49.73329196061798285
10.009497869018190385759 604.02629063960864642 10.009497869018190385759 48.19181952838905403
11.009497869018204596614 608.11543487788912898 11.009497869018204596614 46.87344452612024526
12.009497869018190385759 611.72370451518588652 12.009497869018190385759 45.76234919638875454
13.009497869018190385759 614.94132445989930602 13.009497869018190385759 44.78884450590484079
14.009497869018204596614 617.83482073156005754 14.009497869018204596614 43.90824470752113484
15.009497869018190385759 620.45471019365811571 15.009497869018190385759 43.09095484121237973
16.009497869018190385759 622.84030608491241310 16.009497869018190385759 42.31665728847499253
17.009497869018190385759 625.02280626304241196 17.009497869018190385759 41.55975051512280061
18.009497869018204596614 627.02743960024031367 18.009497869018204596614 40.83203067561563415
19.009497869018190385759 628.87492094709364210 19.009497869018190385759 40.09795804895588134
20.009497869018190385759 630.58252096288720168 20.009497869018190385759 39.38756952817219315
21.009497869018204596614 632.16472960590090224 21.009497869018204596614 38.68050214494256522
22.009497869018190385759 633.63390277504277037 22.009497869018190385759 37.97410178990004681
23.009497869018190385759 635.00066154133457985 23.009497869018190385759 37.24758491355187573
24.009497869018204596614 636.27423196202062172 24.009497869018204596614 36.53881690723363107
25.009497869018190385759 637.46266082366366845 25.009497869018190385759 35.82772449784386026
26.009497869018190385759 638.57306471606568721 26.009497869018190385759 35.09038430732777414
27.009497869018204596614 639.61171677618676767 27.009497869018204596614 34.37616000320009846
28.009497869018190385759 640.58426007999037211 28.009497869018190385759 33.66087099929181647
29.009497869018190385759 641.49568512567032030 29.009497869018190385759 32.92590675657022814
30.009497869018190385759 642.35062421888665085 30.009497869018190385759 32.21136581682215905
31.009497869018190385759 643.15303755708521294 31.009497869018190385759 31.49745316432396436
32.009497869018190385759 643.90677127411856873 32.009497869018190385759 30.78559978546507381
33.009497869018190385759 644.61512807914982659 33.009497869018190385759 30.05562911102421708
34.009497869018190385759 645.28125237230040057 34.009497869018190385759 29.35147394290930833
35.009497869018190385759 645.90803350009196038 35.009497869018190385759 28.63764932914237349
36.009497869018190385759 646.49794424918343339 36.009497869018190385759 27.94476829567932441
37.009497869018190385759 647.05354450937522870 37.009497869018190385759 27.25795141133247057
38.009497869018190385759 647.57701054431277043 38.009497869018190385759 26.57835115939113280
39.009497869018190385759 648.07031714302502223 39.009497869018190385759 25.89619974888230303
40.009497869018190385759 648.53552147099355807 40.009497869018190385759 25.20706329048178418
41.009497869018190385759 648.97431909722661203 41.009497869018190385759 24.56372483687459507
42.009497869018190385759 649.38825654570314327 42.009497869018190385759 23.91209478322501525
43.009497869018190385759 649.77898607838710632 43.009497869018190385759 23.28544510685359725
44.009497869018190385759 650.14791933576725569 44.009497869018190385759 22.65552097769664286
46.009497869018190385759 650.82527066734269283 46.009497869018190385759 21.43052714294745442
48.009497869018190385759 651.43009552724288369 48.009497869018190385759 20.26083411270501955
50.009497869018218807469 651.97054793250708826 50.009497869018218807469 19.13254573979994078
52.009497869018190385759 652.45410564897429140 52.009497869018190385759 18.05099548691588751
54.009497869018190385759 652.88699988853011291 54.009497869018190385759 17.02297073767902802
56.009497869018190385759 653.27493280205919746 56.009497869018190385759 16.04012209113722776
58.009497869018190385759 653.62273111088279620 58.009497869018190385759 15.10715566624755368
60.009497869018190385759 653.93490594690229045 60.009497869018190385759 14.21854493869545166
62.009497869018190385759 654.21512205983685817 62.009497869018190385759 13.37302222879115376
64.009497869018190385759 654.46704701698422468 64.009497869018190385759 12.57003459500588782
66.009497869018218807469 654.69350138770732883 66.009497869018218807469 11.81694407823195547
68.009497869018190385759 654.89721656068752509 68.009497869018190385759 11.10577768513352304
70.009497869018190385759 655.08059725281827923 70.009497869018190385759 10.42346264439837000
72.009497869018190385759 655.24563915264457137 72.009497869018190385759 9.78893096955264497
74.009497869018218807469 655.39435231751542688 74.009497869018218807469 9.18436130898409075
76.009497869018190385759 655.52839917016410709 76.009497869018190385759 8.61286892207134791
78.009497869018190385759 655.64925011087211715 78.009497869018190385759 8.07170888448089485
80.009497869018218807469 655.75826402624556977 80.009497869018218807469 7.56379827495786294
82.009497869018190385759 655.85659091301238277 82.009497869018190385759 7.08136924014804148
84.009497869018190385759 655.94526138487833578 84.009497869018190385759 6.61094518170012080
86.009497869018218807469 656.02529532057189954 86.009497869018218807469 6.18026811388307529
88.009497869018190385759 656.09753716444151905 88.009497869018190385759 5.76042380127283948
91.009497869018190385759 656.19292791943325938 91.009497869018190385759 5.17958810474776854
94.009497869018190385759 656.27482034083743656 94.009497869018190385759 4.63981429942011037
97.009497869018190385759 656.34499513611069688 97.009497869018190385759 4.15200815551712843
99.504748934509137825444 656.39565781085320850 99.504748934509137825444 3.53110991418802733
nan nan nan nan

