Time Pressure difference Time.1 Pressure.1 difference.1
(hr) (psi) (hr) (psi)
0.000200000000006639311 0.48266160353911264 0.000200000000006639311 0.38483257253126607
0.000399999999999067768 0.96491194741360231 0.000399999999999067768 1.00665180165266799
0.000600000000019917934 1.44681372906218941 0.000600000000019917934 1.47250935882247802
0.000799999999998135536 1.92839053395613291 0.000799999999998135536 1.94657666389419037
0.001007140329448930061 2.42683665283144911 0.001007140329448930061 2.44402214405704976
0.001267914553963578328 3.05389258971680322 0.001267914553963578328 3.07437753858694540
0.001596209851982166583 3.84262124686434037 0.001596209851982166583 3.86664779184503482
0.002009509145210586212 4.83452027838028808 0.002009509145210586212 4.86206594107813306
0.002529822128153114136 6.08163878025199178 0.002529822128153114136 6.11217256220108407
0.003184857364431081805 7.64920605150334332 0.003184857364431081805 7.68128750553085737
0.004009497869020606231 9.61888578492143687 0.004009497869020606231 9.64951646561814513
0.005047658755856332391 12.09278818557288382 0.005047658755856332391 12.11637523739241828
0.006354625877790454069 15.19839128111111570 0.006354625877790454069 15.20510708051289051
0.007999999999995566213 19.09453826986868208 0.007999999999995566213 19.06774480882878819
0.010071403294347192059 23.97868534424225473 0.010071403294347192059 23.89091810933636495
0.012679145539706837553 30.09556615998030793 0.012679145539706837553 29.90231182113678798
0.015962098519764822413 37.74740259735517611 0.015962098519764822413 37.37751876198156253
0.020095091452077440408 47.30570783944449431 0.020095091452077440408 46.64676812607693535
0.025298221281346400247 59.22456937205064520 0.025298221281346400247 58.10060358671284320
0.031848573644282396344 74.05502715412666248 0.031848573644282396344 72.19297961046473233
0.040094978690177640601 92.45972309923331522 0.040094978690177640601 89.43937950799499959
0.050476587558421215363 115.22632513097408946 0.050476587558421215363 110.40637934629801009
0.063546258777947173257 143.27724452500680741 0.063546258777947173257 135.68756308874199590
0.079999999999998294697 177.67179128047104086 0.079999999999998294697 165.85888781136648618
0.100714032943528764008 219.59509642112149663 0.100714032943528764008 201.40472026486233403
0.126791455396883634421 270.32589779730398050 0.126791455396883634421 242.60437901900610314
0.159620985197506115583 331.17284925304329590 0.159620985197506115583 289.36939757402939222
0.200950914520774404082 403.36699507616191340 0.200950914520774404082 341.02655109293630176
0.252982212813464002465 487.89790998745206707 0.252982212813464002465 396.05592101248697645
0.318485736442795541734 585.28565513038836343 0.318485736442795541734 451.82413170564177562
0.400949786901833249431 695.29491484269010471 0.400949786901833249431 504.40593796426060180
0.504765875584169521062 816.62686170834376753 0.504765875584169521062 548.65446228842949949
0.635462587779429100010 946.66931341840086134 0.635462587779429100010 578.72103448366124212
0.800000000000011368684 1081.43306161432474255 0.800000000000011368684 589.16029003007076881
1.007140329435344483500 1215.81595740423222196 1.007140329435344483500 576.51001386012978855
1.267914553968893187630 1344.26873590391323887 1.267914553968893187630 540.84585675325786269
1.596209851975103788391 1461.77032343469932130 1.596209851975103788391 486.51808537750332562
2.009509145207672986544 1564.81980252621906402 2.009509145207672986544 421.42273279596895463
2.529822128134725289783 1652.05774951273497209 2.529822128134725289783 354.85300015533135820
3.184857364427998049905 1724.25363352647582360 3.184857364427998049905 294.83012744602450539
4.009497869018190385759 1783.69521074283170492 4.009497869018190385759 246.09274177578060971
5.009497869018204596614 1831.78603631095415949 5.009497869018204596614 210.58295901396024874
6.009497869018190385759 1866.00986963532568552 6.009497869018190385759 189.32442585680323077
7.009497869018190385759 1892.27909876142052781 7.009497869018190385759 175.88767997868518478
8.009497869018204596614 1913.47568308030486151 8.009497869018204596614 166.76931638814590997
9.009497869018190385759 1931.17196702846763401 9.009497869018190385759 160.25171853976905822
10.009497869018190385759 1946.30693650540592898 10.009497869018190385759 155.28475181369805114
11.009497869018204596614 1959.48306793986466801 11.009497869018204596614 151.03665458416523393
12.009497869018190385759 1971.10971454893228838 12.009497869018190385759 147.45645852169710111
13.009497869018190385759 1981.47760103745349625 13.009497869018190385759 144.31961007458224344
14.009497869018204596614 1990.80108902391543779 14.009497869018204596614 141.48212183534587894
15.009497869018190385759 1999.24295506845396631 15.009497869018190385759 138.84863226612878861
16.009497869018190385759 2006.92987516249559121 16.009497869018190385759 136.35367348508611940
17.009497869018190385759 2013.96237573646976671 17.009497869018190385759 133.91475165984013529
18.009497869018204596614 2020.42174982299638941 18.009497869018204596614 131.56987662142816475
19.009497869018190385759 2026.37474527396830126 19.009497869018190385759 129.20453149108004709
20.009497869018190385759 2031.87701199152547815 20.009497869018190385759 126.91550181299928113
21.009497869018204596614 2036.97523984123631635 21.009497869018204596614 124.63717357814826414
22.009497869018190385759 2041.70924227513773985 22.009497869018190385759 122.36099465634458738
23.009497869018190385759 2046.11324274429989600 23.009497869018190385759 120.01999583255603454
24.009497869018204596614 2050.21696965539968005 24.009497869018204596614 117.73618781219725804
25.009497869018190385759 2054.04635154291645449 25.009497869018190385759 115.44489004860800208
26.009497869018190385759 2057.62431964065626744 26.009497869018190385759 113.06901610138950787
27.009497869018204596614 2060.97108738993529187 27.009497869018204596614 110.76762667697806819
28.009497869018190385759 2064.10483803552460813 28.009497869018190385759 108.46280655327362297
29.009497869018190385759 2067.04165207160394857 29.009497869018190385759 106.09458843783738757
30.009497869018190385759 2069.79645581641216268 30.009497869018190385759 103.79217874309362912
31.009497869018190385759 2072.38200990616360286 31.009497869018190385759 101.49179352948831934
32.009497869018190385759 2074.81070743882673924 32.009497869018190385759 99.19804375316523704
33.009497869018190385759 2077.09319047726057761 33.009497869018190385759 96.84591602441136615
34.009497869018190385759 2079.23959097741271762 34.009497869018190385759 94.57697159381888241
35.009497869018190385759 2081.25921905585209970 35.009497869018190385759 92.27687006056986263
36.009497869018190385759 2083.16004258070233846 36.009497869018190385759 90.04425339718893895
37.009497869018190385759 2084.95031008576415843 37.009497869018190385759 87.83117676984907973
38.009497869018190385759 2086.63703397611925539 38.009497869018190385759 85.64135373581586919
39.009497869018190385759 2088.22657746085860708 39.009497869018190385759 83.44331030195408516
40.009497869018190385759 2089.72556918431246231 40.009497869018190385759 81.22275949155240937
41.009497869018190385759 2091.13947264661919689 41.009497869018190385759 79.14978002992924644
42.009497869018190385759 2092.47327109171010306 42.009497869018190385759 77.05008319039171738
43.009497869018190385759 2093.73228847480322656 43.009497869018190385759 75.03087867763936458
44.009497869018190385759 2094.92107341524979347 44.009497869018190385759 73.00112315035585198
46.009497869018190385759 2097.10364992810445983 46.009497869018190385759 69.05392079394179916
48.009497869018190385759 2099.05253003222696861 48.009497869018190385759 65.28490991871618121
50.009497869018218807469 2100.79398778252289048 50.009497869018218807469 61.64931405046647228
52.009497869018190385759 2102.35211820225049451 52.009497869018190385759 58.16431879117342163
54.009497869018190385759 2103.74699964081946746 54.009497869018190385759 54.85179459918798273
56.009497869018190385759 2104.99700569552396701 56.009497869018190385759 51.68483784921996005
58.009497869018190385759 2106.11768913506693934 58.009497869018190385759 48.67861270235323445
60.009497869018190385759 2107.12358582890783509 60.009497869018190385759 45.81531146912978869
62.009497869018190385759 2108.02650441503010370 62.009497869018190385759 43.09084940388260065
64.009497869018190385759 2108.83826261028252702 64.009497869018190385759 40.50344480613008358
66.009497869018218807469 2109.56794891594608998 66.009497869018218807469 38.07681980763630492
68.009497869018190385759 2110.22436447332620446 68.009497869018190385759 35.78528365209690065
70.009497869018190385759 2110.81525781463642488 70.009497869018190385759 33.58671296528363825
72.009497869018190385759 2111.34705949185445206 72.009497869018190385759 31.54211090189185640
74.009497869018218807469 2111.82624635643833244 74.009497869018218807469 29.59405310672650913
76.009497869018190385759 2112.25817510386195863 76.009497869018190385759 27.75257763778545694
78.009497869018190385759 2112.64758369058745302 78.009497869018190385759 26.00883973888288381
80.009497869018218807469 2112.99885075123529532 80.009497869018218807469 24.37223888597533161
82.009497869018190385759 2113.31568183081753887 82.009497869018190385759 22.81774532936590916
84.009497869018190385759 2113.60139779571909457 84.009497869018190385759 21.30193447436705512
86.009497869018218807469 2113.85928492184257266 86.009497869018218807469 19.91419725584546541
88.009497869018190385759 2114.09206419653355624 88.009497869018190385759 18.56136558187915142
91.009497869018190385759 2114.39943440706292677 91.009497869018190385759 16.68978389307614307
94.009497869018190385759 2114.66330998714283851 94.009497869018190385759 14.95051274257591167
97.009497869018190385759 2114.88942877191175285 97.009497869018190385759 13.37869294555518884
99.504748934509137825444 2115.05267516830463137 99.504748934509137825444 11.37802083460586466
nan nan nan nan

