Time Pressure difference Time.1 Pressure.1 difference.1
(hr) (psi) (hr) (psi)
0.000200000000006639311 0.54923561782036956 0.000200000000006639311 0.43791292736316484
0.000399999999999067768 1.09800325050513381 0.000399999999999067768 1.14550032601855323
0.000600000000019917934 1.64637424341559502 0.000600000000019917934 1.67561409797040595
0.000799999999998135536 2.19437543519146150 0.000799999999998135536 2.21506999684511330
0.001007140329448930061 2.76157274287716614 0.001007140329448930061 2.78112864668560800
0.001267914553963578328 3.47511915381567293 0.001267914553963578328 3.49842961287480003
0.001596209851982166583 4.37263797056976689 0.001596209851982166583 4.39997852175469450
0.002009509145210586212 5.50135066160515507 0.002009509145210586212 5.53269572605442761
0.002529822128153114136 6.92048550856261180 0.002529822128153114136 6.95523084664261315
0.003184857364431081805 8.70426895515897669 0.003184857364431081805 8.74077543732821738
0.004009497869020606231 10.94562865180715150 0.004009497869020606231 10.98048425397926842
0.005047658755856332391 13.76075896978983160 0.005047658755856332391 13.78759940806723172
0.006354625877790454069 17.29472111298851189 0.006354625877790454069 17.30236322954915096
0.007999999999995566213 21.72826768640229389 0.007999999999995566213 21.69777857556379530
0.010071403294347192059 27.28609021931014667 0.010071403294347192059 27.18621715890000345
0.012679145539706837553 34.24667873377068616 0.012679145539706837553 34.02676862405220248
0.015962098519764822413 42.95394088664554744 0.015962098519764822413 42.53303859122039654
0.020095091452077440408 53.83063305867821668 0.020095091452077440408 53.08080510898409443
0.025298221281346400247 67.39347549233349355 0.025298221281346400247 66.11447994350082524
0.031848573644282396344 84.26951365814413464 0.031848573644282396344 82.15063197052884902
0.040094978690177640601 105.21278835429997400 0.040094978690177640601 101.77584564702878822
0.050476587558421215363 131.11961135593602990 0.050476587558421215363 125.63484546302878186
0.063546258777947173257 163.03962308018014937 0.063546258777947173257 154.40308903201673729
0.079999999999998294697 202.17824525019116777 0.079999999999998294697 188.73597578534804597
0.100714032943528764008 249.88407523782791486 0.100714032943528764008 229.18468168070540969
0.126791455396883634421 307.61222852796663574 0.126791455396883634421 276.06705198714490734
0.159620985197506115583 376.85186294311824895 0.159620985197506115583 329.28241792906794672
0.200950914520774404082 459.00382198321875649 0.200950914520774404082 388.06469607127235122
0.252982212813464002465 555.19417343399720721 0.252982212813464002465 450.68432391076100885
0.318485736442795541734 666.01471101044194256 0.318485736442795541734 514.14470159607515143
0.400949786901833249431 791.19766171754395145 0.400949786901833249431 573.97917078691716597
0.504765875584169521062 929.26504953018434207 0.504765875584169521062 624.33093984545428157
0.635462587779429100010 1077.24439113128369172 0.635462587779429100010 658.54462544692489701
0.800000000000011368684 1230.59624252664548294 0.800000000000011368684 670.42377831008047906
1.007140329435344483500 1383.51471014964363349 1.007140329435344483500 656.02863646152707133
1.267914553968893187630 1529.68511326997031574 1.267914553968893187630 615.44528527094860237
1.596209851975103788391 1663.39381632224421992 1.596209851975103788391 553.62402818819339245
2.009509145207672986544 1780.65701666776658385 2.009509145207672986544 479.55000628506815019
2.529822128134725289783 1879.92778392828472533 2.529822128134725289783 403.79824155606667091
3.184857364427998049905 1962.08172090943799049 3.184857364427998049905 335.49635192133825967
4.009497869018190385759 2029.72213636253263758 4.009497869018190385759 280.03656822761234935
5.009497869018204596614 2084.44617925039619877 5.009497869018204596614 239.62888439519616668
6.009497869018190385759 2123.39054130916338181 6.009497869018190385759 215.43813976808644384
7.009497869018190385759 2153.28311238368542035 7.009497869018190385759 200.14804963091762602
8.009497869018204596614 2177.40336350517463870 8.009497869018204596614 189.77198071754537523
9.009497869018190385759 2197.54051420480800516 9.009497869018190385759 182.35540385559926335
10.009497869018190385759 2214.76306567856499896 10.009497869018190385759 176.70333827075984345
11.009497869018204596614 2229.75659455225968486 11.009497869018204596614 171.86929659577424445
12.009497869018190385759 2242.98691655568154601 12.009497869018190385759 167.79528038675877610
13.009497869018190385759 2254.78485635296419787 13.009497869018190385759 164.22576318831775666
14.009497869018204596614 2265.39434268238665027 14.009497869018204596614 160.99689726091082775
15.009497869018190385759 2275.00060404341274989 15.009497869018190385759 158.00016775111205902
16.009497869018190385759 2283.74778897801252242 16.009497869018190385759 155.16107672440833198
17.009497869018190385759 2291.75028963115528313 17.009497869018190385759 152.38575188878360223
18.009497869018204596614 2299.10061186754728624 18.009497869018204596614 149.71744581059067514
19.009497869018190385759 2305.87471013934282382 19.009497869018190385759 147.02584617950489587
20.009497869018190385759 2312.13591019725345177 20.009497869018190385759 144.42108826996471294
21.009497869018204596614 2317.93734188830330822 21.009497869018204596614 141.82850786478940108
22.009497869018190385759 2323.32431017515682470 22.009497869018190385759 139.23837322963350971
23.009497869018190385759 2328.33575898489334577 23.009497869018190385759 136.57447801635686346
24.009497869018204596614 2333.00551719407576456 24.009497869018204596614 133.97566199318998770
25.009497869018190385759 2337.36308968676712539 25.009497869018190385759 131.36832315876083044
26.009497869018190385759 2341.43457062557399695 26.009497869018190385759 128.66474246020183614
27.009497869018204596614 2345.24296151268481481 27.009497869018204596614 126.04592001173368487
28.009497869018190385759 2348.80895362663159176 28.009497869018190385759 123.42319366406998427
29.009497869018190385759 2352.15084546079106076 29.009497869018190385759 120.72832477409080809
30.009497869018190385759 2355.28562213591749241 30.009497869018190385759 118.10834132834791887
31.009497869018190385759 2358.22780437597884884 31.009497869018190385759 115.49066160252120028
32.009497869018190385759 2360.99149467176857797 32.009497869018190385759 112.88053254670525405
33.009497869018190385759 2363.58880295688277329 33.009497869018190385759 110.20397340708879597
34.009497869018190385759 2366.03125869843506734 34.009497869018190385759 107.62207112400079723
35.009497869018190385759 2368.32945616700408209 35.009497869018190385759 105.00471420685536827
36.009497869018190385759 2370.49246224700618768 36.009497869018190385759 102.46415041749085617
37.009497869018190385759 2372.52966320104269471 37.009497869018190385759 99.94582184155238735
38.009497869018190385759 2374.44903866248023405 38.009497869018190385759 97.45395425110082499
39.009497869018190385759 2376.25782952442523310 39.009497869018190385759 94.95273241256843733
40.009497869018190385759 2377.96357872697626590 40.009497869018190385759 92.42589873176655146
41.009497869018190385759 2379.57250335649769113 41.009497869018190385759 90.06699106854017600
42.009497869018190385759 2381.09027400091144955 42.009497869018190385759 87.67768087182504644
43.009497869018190385759 2382.52294895408613229 43.009497869018190385759 85.37996539179651734
44.009497869018190385759 2383.87570423114630103 44.009497869018190385759 83.07024358488770588
46.009497869018190385759 2386.35932578025676776 46.009497869018190385759 78.57859952414067095
48.009497869018190385759 2388.57701693322405845 48.009497869018190385759 74.28972507991841212
50.009497869018218807469 2390.55867575252568713 50.009497869018218807469 70.15266771259977929
52.009497869018190385759 2392.33172071290573513 52.009497869018190385759 66.18698345202493272
54.009497869018190385759 2393.91899959127704278 54.009497869018190385759 62.41755937148978006
56.009497869018190385759 2395.34142027421694365 56.009497869018190385759 58.81378100083650651
58.009497869018190385759 2396.61668073990358607 58.009497869018190385759 55.39290410957436706
60.009497869018190385759 2397.76132180530885307 60.009497869018190385759 52.13466477521665610
62.009497869018190385759 2398.78878088606870733 62.009497869018190385759 49.03441483890089359
64.009497869018190385759 2399.71250572894177822 64.009497869018190385759 46.09012684835492735
66.009497869018218807469 2400.54283842159384221 66.009497869018218807469 43.32879495351717480
68.009497869018190385759 2401.28979405585414497 68.009497869018190385759 40.72118484548958861
70.009497869018190385759 2401.96218992700050876 70.009497869018190385759 38.21936302946069475
72.009497869018190385759 2402.56734355969638273 72.009497869018190385759 35.89274688835970295
74.009497869018218807469 2403.11262516422311819 74.009497869018218807469 33.67599146627499351
76.009497869018190385759 2403.60413029060191548 76.009497869018190385759 31.58051938092827626
78.009497869018190385759 2404.04725040653056567 78.009497869018190385759 29.59626590976328231
80.009497869018218807469 2404.44696809623337685 80.009497869018218807469 27.73392700817882783
82.009497869018190385759 2404.80750001437854735 82.009497869018190385759 25.96502054720948394
84.009497869018190385759 2405.13262507788704170 84.009497869018190385759 24.24013233290044411
86.009497869018218807469 2405.42608284209700287 86.009497869018218807469 22.66098308423794450
88.009497869018190385759 2405.69096960295200915 88.009497869018190385759 21.12155393800041026
91.009497869018190385759 2406.04073570458831455 91.009497869018190385759 18.99182305074181798
94.009497869018190385759 2406.34100791640366879 94.009497869018190385759 17.01265243120707282
97.009497869018190385759 2406.59831549907221415 97.009497869018190385759 15.22402990356280306
99.504748934509137825444 2406.78407863979509784 99.504748934509137825444 12.94740301868943355
nan nan nan nan

