Time Pressure difference Time.1 Pressure.1 difference.1
(hr) (psi) (hr) (psi)
0.000200000000006639311 0.56587912139068386 0.000200000000006639311 0.45118301607113953
0.000399999999999067768 1.13127607627801674 0.000399999999999067768 1.18021245711002454
0.000600000000019917934 1.69626437200394631 0.000600000000019917934 1.72639028275738782
0.000799999999998135536 2.26087166050029387 0.000799999999998135536 2.28219333008284364
0.001007140329448930061 2.84525676538859562 0.001007140329448930061 2.86540527234274789
0.001267914553963578328 3.58042579484039036 0.001267914553963578328 3.60444263144676347
0.001596209851982166583 4.50514215149612340 0.001596209851982166583 4.53331120423210976
0.002009509145210586212 5.66805825741137248 0.002009509145210586212 5.70035317229850058
0.002529822128153114136 7.13019719064026614 0.002529822128153114136 7.16599541775299542
0.003184857364431081805 8.96803468107288460 0.003184857364431081805 9.00564742027755649
0.004009497869020606231 11.27731436852858060 0.004009497869020606231 11.31322620106954879
0.005047658755856332391 14.17775166584407032 0.005047658755856332391 14.20540545073593641
0.006354625877790454069 17.81880357095786138 0.006354625877790454069 17.82667726680821829
0.007999999999995566213 22.38670004053569684 0.007999999999995566213 22.35528701724754796
0.010071403294347192059 28.11294143807712231 0.010071403294347192059 28.01004192129091308
0.012679145539706837553 35.28445687721828961 0.012679145539706837553 35.05788282478106055
0.015962098519764822413 44.25557545896813849 0.015962098519764822413 43.82191854853010682
0.020095091452077440408 55.46186436348664728 0.020095091452077440408 54.68931435471088065
0.025298221281346400247 69.43570202240420031 0.025298221281346400247 68.11794903269780832
0.031848573644282396344 86.82313528414850623 0.031848573644282396344 84.64004506054486399
0.040094978690177640601 108.40105466806663514 0.040094978690177640601 104.85996218178723893
0.050476587558421215363 135.09293291217650790 0.050476587558421215363 129.44196199221144639
0.063546258777947173257 167.98021771897347776 0.063546258777947173257 159.08197051783542975
0.079999999999998294697 208.30485874262120660 0.079999999999998294697 194.45524777884347145
0.100714032943528764008 257.45631994200448389 0.100714032943528764008 236.12967203466618571
0.126791455396883634421 316.93381121063225692 0.126791455396883634421 284.43272022917960840
0.159620985197506115583 388.27161636563698721 0.159620985197506115583 339.26067301782762797
0.200950914520774404082 472.91302870998288199 0.200950914520774404082 399.82423231585630674
0.252982212813464002465 572.01823929563340698 0.252982212813464002465 464.34142463532953116
0.318485736442795541734 686.19697498045536577 0.318485736442795541734 529.72484406868352380
0.400949786901833249431 815.17334843625735630 0.400949786901833249431 591.37247899258136385
0.504765875584169521062 957.42459648564454255 0.504765875584169521062 643.25005923471042024
0.635462587779429100010 1109.88816055950451300 0.635462587779429100010 678.50052318774089599
0.800000000000011368684 1267.88703775472572488 0.800000000000011368684 690.73965038008293504
1.007140329435344483500 1425.43939833599665690 1.007140329435344483500 675.90829211187644887
1.267914553968893187630 1576.03920761148447127 1.267914553968893187630 634.09514240037128729
1.596209851975103788391 1713.79968954413016036 1.596209851975103788391 570.40051389086590916
2.009509145207672986544 1834.61632020315323643 2.009509145207672986544 494.08182465734296329
2.529822128134725289783 1936.89529253217210680 2.529822128134725289783 416.03455190625049909
3.184857364427998049905 2021.53874275517841852 3.184857364427998049905 345.66290804016665561
4.009497869018190385759 2091.22886776745781390 4.009497869018190385759 288.52252484057032689
5.009497869018204596614 2147.61121498525653806 5.009497869018204596614 246.89036574050513195
6.009497869018190385759 2187.73570922762337432 6.009497869018190385759 221.96656824590724000
7.009497869018190385759 2218.53411578925170033 7.009497869018190385759 206.21314204397572212
8.009497869018204596614 2243.38528361139196932 8.009497869018204596614 195.52264679989522733
9.009497869018190385759 2264.13265099889304111 9.009497869018190385759 187.88132518455682884
10.009497869018190385759 2281.87709797185516436 10.009497869018190385759 182.05798488502531995
11.009497869018204596614 2297.32497620535878013 11.009497869018204596614 177.07745709867648998
12.009497869018190385759 2310.95621705736857621 12.009497869018190385759 172.87998585302418064
13.009497869018190385759 2323.11167018184141853 13.009497869018190385759 169.20230146675160654
14.009497869018204596614 2334.04265609700451023 14.009497869018204596614 165.87559111730206496
15.009497869018190385759 2343.94001628715250263 15.009497869018190385759 162.78805162235786952
16.009497869018190385759 2352.95226743189141416 16.009497869018190385759 159.86292753423887802
17.009497869018190385759 2361.19726810482688961 17.009497869018190385759 157.00350194601946896
18.009497869018204596614 2368.77032737868512413 18.009497869018204596614 154.25433810788126721
19.009497869018190385759 2375.74970135568719343 19.009497869018190385759 151.48117485161111517
20.009497869018190385759 2382.20063474868538833 20.009497869018190385759 148.79748488420608510
21.009497869018204596614 2388.17786740007022672 21.009497869018204596614 146.12634143644970663
22.009497869018190385759 2393.72807715016188013 22.009497869018190385759 143.45771787295572608
23.009497869018190385759 2398.89138804504136715 23.009497869018190385759 140.71309856230709556
24.009497869018204596614 2403.70265407874467201 24.009497869018204596614 138.03553053843816656
25.009497869018190385759 2408.19227422272933836 25.009497869018190385759 135.34918143629903398
26.009497869018190385759 2412.38713337180388407 26.009497869018190385759 132.56367404990493242
27.009497869018204596614 2416.31093004337208185 27.009497869018204596614 129.86549334542257839
28.009497869018190385759 2419.98498252440822398 28.009497869018190385759 127.16329044176907814
29.009497869018190385759 2423.42814380808795249 29.009497869018190385759 124.38675885815418098
30.009497869018190385759 2426.65791371579416591 30.009497869018190385759 121.68738197466149131
31.009497869018190385759 2429.68925299343300139 31.009497869018190385759 118.99037862077940986
32.009497869018190385759 2432.53669148000381028 32.009497869018190385759 116.30115474509027251
33.009497869018190385759 2435.21270607678843589 33.009497869018190385759 113.54348775275815342
34.009497869018190385759 2437.72917562869088215 34.009497869018190385759 110.88334600654627593
35.009497869018190385759 2440.09701544479230506 35.009497869018190385759 108.18667524342673403
36.009497869018190385759 2442.32556716358203630 36.009497869018190385759 105.56912467256633192
37.009497869018190385759 2444.42450147986164666 37.009497869018190385759 102.97448310947822847
38.009497869018190385759 2446.40203983407036503 38.009497869018190385759 100.40710437992206039
39.009497869018190385759 2448.26564254031745804 39.009497869018190385759 97.83008794022201471
40.009497869018190385759 2450.02308111264210311 40.009497869018190385759 95.22668354182007988
41.009497869018190385759 2451.68076103396742838 41.009497869018190385759 92.79629382819291550
42.009497869018190385759 2453.24452472821167248 42.009497869018190385759 90.33458029218338936
43.009497869018190385759 2454.72061407390674503 43.009497869018190385759 87.96723707033579842
44.009497869018190385759 2456.11436193512054160 44.009497869018190385759 85.58752369352065159
46.009497869018190385759 2458.67324474329507211 46.009497869018190385759 80.95976920669038179
48.009497869018190385759 2460.95813865847321722 48.009497869018190385759 76.54092887021896274
50.009497869018218807469 2462.99984774502672735 50.009497869018218807469 72.27850612813310249
52.009497869018190385759 2464.82662134056954528 52.009497869018190385759 68.19264961723781937
54.009497869018190385759 2466.46199957889166399 54.009497869018190385759 64.30900056456522407
56.009497869018190385759 2467.92752391889007413 56.009497869018190385759 60.59601678874064135
58.009497869018190385759 2469.24142864111308882 58.009497869018190385759 57.07147696137965198
60.009497869018190385759 2470.42075579940865282 60.009497869018190385759 53.71450310173837295
62.009497869018190385759 2471.47935000382813087 62.009497869018190385759 50.52030619765546504
64.009497869018190385759 2472.43106650860727314 64.009497869018190385759 47.48679735891113296
66.009497869018218807469 2473.28656079800566658 66.009497869018218807469 44.64178873998738339
68.009497869018190385759 2474.05615145148613010 68.009497869018190385759 41.95516014383775172
70.009497869018190385759 2474.74892295509107498 70.009497869018190385759 39.37752554550495176
72.009497869018190385759 2475.37241457665732014 72.009497869018190385759 36.98040588497666192
74.009497869018218807469 2475.93421986616931463 74.009497869018218807469 34.69647605616211195
76.009497869018190385759 2476.44061908728644994 76.009497869018190385759 32.53750481671398376
78.009497869018190385759 2476.89716708551623015 78.009497869018190385759 30.49312245248338016
80.009497869018218807469 2477.30899743248301093 80.009497869018218807469 28.57434903872970011
82.009497869018190385759 2477.68045456026857210 82.009497869018190385759 26.75183935167037674
84.009497869018190385759 2478.01543189842914217 84.009497869018190385759 24.97468179753379047
86.009497869018218807469 2478.31778232216038305 86.009497869018218807469 23.34767954133606338
88.009497869018190385759 2478.59069595455684976 88.009497869018190385759 21.76160102703072852
91.009497869018190385759 2478.95106102896988887 91.009497869018190385759 19.56733284015823671
94.009497869018190385759 2479.26043239871887636 94.009497869018190385759 17.52818735336486000
97.009497869018190385759 2479.52553718086255685 97.009497869018190385759 15.68536414306470483
99.504748934509137825444 2479.71692950766782815 99.504748934509137825444 13.33974856471032489
nan nan nan nan

