Time Pressure difference Time.1 Pressure.1 difference.1
(hr) (psi) (hr) (psi)
0.000200000000006639311 0.59084437674615509 0.000200000000006639311 0.47108814913310160
0.000399999999999067768 1.18118531493734080 0.000399999999999067768 1.23228065374723150
0.000600000000019917934 1.77109956488647335 0.000600000000019917934 1.80255455993786073
0.000799999999998135536 2.36061599846354220 0.000799999999998135536 2.38287832993944004
0.001007140329448930061 2.97078279915573962 0.001007140329448930061 2.99182021082845750
0.001267914553963578328 3.73838575637746606 0.001267914553963578328 3.76346215930470906
0.001596209851982166583 4.70389842288565863 0.001596209851982166583 4.73331022794823220
0.002009509145210586212 5.91811965112069682 0.002009509145210586212 5.95183934166461182
0.002529822128153114136 7.44476471375674809 0.002529822128153114136 7.48214227441856838
0.003184857364431081805 9.36368326994374733 0.003184857364431081805 9.40295539470156783
0.004009497869020606231 11.77484294361072337 0.004009497869020606231 11.81233912170496936
0.005047658755856332391 14.80324070992542396 0.005047658755856332391 14.83211451473899345
0.006354625877790454069 18.60492725791187851 0.006354625877790454069 18.61314832269681574
0.007999999999995566213 23.37434857173580127 0.007999999999995566213 23.34154967977317341
0.010071403294347192059 29.35321826622758223 0.010071403294347192059 29.24577906487727574
0.012679145539706837553 36.84112409238968411 0.012679145539706837553 36.60455412587434409
0.015962098519764822413 46.20802731745202863 0.015962098519764822413 45.75523848449466868
0.020095091452077440408 57.90871132069929672 0.020095091452077440408 57.10207822330107064
0.025298221281346400247 72.49904181751026044 0.025298221281346400247 71.12315266649329715
0.031848573644282396344 90.65356772315506362 0.031848573644282396344 88.37416469556890775
0.040094978690177640601 113.18345413871664107 0.040094978690177640601 109.48613698392490790
0.050476587558421215363 141.05291524653725332 0.050476587558421215363 135.15263678598549291
0.063546258777947173257 175.39110967716348455 0.063546258777947173257 166.10029274656346843
0.079999999999998294697 217.49477898126627906 0.079999999999998294697 203.03415576908656703
0.100714032943528764008 268.81468699826939428 0.100714032943528764008 246.54715756560730711
0.126791455396883634421 330.91618523463074553 0.126791455396883634421 296.98122259223163155
0.159620985197506115583 405.40124649941509460 0.159620985197506115583 354.22805565096706459
0.200950914520774404082 493.77683880012926920 0.200950914520774404082 417.46353668273241055
0.252982212813464002465 597.25433808808782032 0.252982212813464002465 484.82707572218231462
0.318485736442795541734 716.47037093547544373 0.318485736442795541734 553.09505777759602552
0.400949786901833249431 851.13687851432746356 0.400949786901833249431 617.46244130107766068
0.504765875584169521062 999.66391691883472959 0.504765875584169521062 671.62873831859474194
0.635462587779429100010 1158.85381470183551755 0.635462587779429100010 708.43436979896466710
0.800000000000011368684 1323.82323059684586042 0.800000000000011368684 721.21345848508656218
1.007140329435344483500 1488.32643061552585095 1.007140329435344483500 705.72777558740028780
1.267914553968893187630 1645.57034912375570457 1.267914553968893187630 662.06992809450525783
1.596209851975103788391 1789.40849937695952576 1.596209851975103788391 595.56524244487479791
2.009509145207672986544 1915.55527550623378374 2.009509145207672986544 515.87955221575509768
2.529822128134725289783 2022.34655543800295163 2.529822128134725289783 434.38901743152626977
3.184857364427998049905 2110.72427552378940163 3.184857364427998049905 360.91274221840933478
4.009497869018190385759 2183.48896487484535101 4.009497869018190385759 301.25145976000726478
5.009497869018204596614 2242.35876858754727436 5.009497869018204596614 257.78258775846865092
6.009497869018190385759 2284.25346110531245358 6.009497869018190385759 231.75921096263846266
7.009497869018190385759 2316.41062089760134768 7.009497869018190385759 215.31078066356289469
8.009497869018204596614 2342.35816377071796524 8.009497869018204596614 204.14864592342001970
9.009497869018190385759 2364.02085619002082240 9.009497869018190385759 196.17020717799317708
10.009497869018190385759 2382.54814641178973034 10.009497869018190385759 190.08995480642346365
11.009497869018204596614 2398.67754868500696830 11.009497869018204596614 184.88969785302987248
12.009497869018190385759 2412.91016780989957624 12.009497869018190385759 180.50704405242231587
13.009497869018190385759 2425.60189092515838638 13.009497869018190385759 176.66710888440240979
14.009497869018204596614 2437.01512621893152755 14.009497869018204596614 173.19363190188892077
15.009497869018190385759 2447.34913465276258648 15.009497869018190385759 169.96987742922661369
16.009497869018190385759 2456.75898511270997915 16.009497869018190385759 166.91570374898469709
17.009497869018190385759 2465.36773581533407196 17.009497869018190385759 163.93012703187326906
18.009497869018204596614 2473.27490064539188097 18.009497869018204596614 161.05967655381724057
19.009497869018190385759 2480.56218818020215622 19.009497869018190385759 158.16416785977042991
20.009497869018190385759 2487.29772157583329317 20.009497869018190385759 155.36207980556810071
21.009497869018204596614 2493.53865566771992235 21.009497869018204596614 152.57309179394013654
22.009497869018190385759 2499.33372761266855377 22.009497869018190385759 149.78673483793909327
23.009497869018190385759 2504.72483163526385397 23.009497869018190385759 146.92102938123238687
24.009497869018204596614 2509.74835940574803317 24.009497869018204596614 144.12533335631044906
25.009497869018190385759 2514.43605102667333995 25.009497869018190385759 141.32046885260635349
26.009497869018190385759 2518.81597749114780527 26.009497869018190385759 138.41207143445956262
27.009497869018204596614 2522.91288283940320980 27.009497869018204596614 135.59485334595592576
28.009497869018190385759 2526.74902587107317231 28.009497869018190385759 132.77343560831772606
29.009497869018190385759 2530.34409132903283535 29.009497869018190385759 129.87440998424921190
30.009497869018190385759 2533.71635108560849403 30.009497869018190385759 127.05594294413184286
31.009497869018190385759 2536.88142591961377548 31.009497869018190385759 124.23995414816673133
32.009497869018190385759 2539.85448669235665875 32.009497869018190385759 121.43208804266778600
33.009497869018190385759 2542.64856075664692980 33.009497869018190385759 118.55275927126218960
34.009497869018190385759 2545.27605102407369486 34.009497869018190385759 115.77525833036449399
35.009497869018190385759 2547.74835436147395740 35.009497869018190385759 112.95961679828380397
36.009497869018190385759 2550.07522453844603660 36.009497869018190385759 110.22658605517956687
37.009497869018190385759 2552.26675889809121145 37.009497869018190385759 107.51747501136696883
38.009497869018190385759 2554.33154159145578888 38.009497869018190385759 104.83682957315392059
39.009497869018190385759 2556.27736206415465858 39.009497869018190385759 102.14612123170240920
40.009497869018190385759 2558.11233469114131367 40.009497869018190385759 99.42786075690037251
41.009497869018190385759 2559.84314755017203424 41.009497869018190385759 96.89024796767201053
42.009497869018190385759 2561.47590081916268900 42.009497869018190385759 94.31992942272088953
43.009497869018190385759 2563.01711175363789152 43.009497869018190385759 91.84814458814473426
44.009497869018190385759 2564.47234849108190247 44.009497869018190385759 89.36344385647009858
46.009497869018190385759 2567.14412318785207390 46.009497869018190385759 84.53152373051496227
48.009497869018190385759 2569.52982124634672800 48.009497869018190385759 79.91773455566979578
50.009497869018218807469 2571.66160573377783294 50.009497869018218807469 75.46726375143309440
52.009497869018190385759 2573.56897228206526052 52.009497869018190385759 71.20114886505712093
54.009497869018190385759 2575.27649956031336842 54.009497869018190385759 67.14616235417838652
56.009497869018190385759 2576.80667938590022459 56.009497869018190385759 63.26937047059684716
58.009497869018190385759 2578.17855049292666081 58.009497869018190385759 59.58933623908757937
60.009497869018190385759 2579.40990679055948931 60.009497869018190385759 56.08426059152094467
62.009497869018190385759 2580.51520368046794829 62.009497869018190385759 52.74914323578732933
64.009497869018190385759 2581.50890767810460602 64.009497869018190385759 49.58180312474544849
66.009497869018218807469 2582.40214436262340314 66.009497869018218807469 46.61127941969271404
68.009497869018190385759 2583.20568754493388042 68.009497869018190385759 43.80612309136000704
70.009497869018190385759 2583.92902249722737906 70.009497869018190385759 41.11476931957135150
72.009497869018190385759 2584.58002110209781677 72.009497869018190385759 38.61189437990209683
74.009497869018218807469 2585.16661191908860928 74.009497869018218807469 36.22720294099280380
76.009497869018190385759 2585.69535228231370638 76.009497869018190385759 33.97298297039254322
78.009497869018190385759 2586.17204210399540898 78.009497869018190385759 31.83840726656353226
80.009497869018218807469 2586.60204143685723466 80.009497869018218807469 29.83498208455601031
82.009497869018190385759 2586.98988637910451871 82.009497869018190385759 27.93206755836171595
84.009497869018190385759 2587.33964212924229287 84.009497869018190385759 26.07650599448381001
86.009497869018218807469 2587.65533154225568069 86.009497869018218807469 24.37772422698324348
88.009497869018190385759 2587.94028548196411066 88.009497869018190385759 22.72167166057620236
91.009497869018190385759 2588.31654901554247772 91.009497869018190385759 20.43059752428286302
94.009497869018190385759 2588.63956912219191508 94.009497869018190385759 18.30148973660154965
97.009497869018190385759 2588.91636970354738878 97.009497869018190385759 16.37736550231755928
99.504748934509137825444 2589.11620580947646886 99.504748934509137825444 13.92826688374166366
nan nan nan nan

