Time Pressure difference Time.1 Pressure.1 difference.1
(hr) (psi) (hr) (psi)
0.000200000000006639311 0.59916612853131224 0.000200000000006639311 0.47772319348708886
0.000399999999999067768 1.19782172782378238 0.000399999999999067768 1.24963671929296716
0.000600000000019917934 1.79604462918064911 0.000600000000019917934 1.82794265233135178
0.000799999999998135536 2.39386411111795816 0.000799999999998135536 2.41643999655830521
0.001007140329448930061 3.01262481041145413 0.001007140329448930061 3.03395852365702723
0.001267914553963578328 3.79103907688982522 0.001267914553963578328 3.81646866859069078
0.001596209851982166583 4.77015051334883644 0.001596209851982166583 4.79997656918693938
0.002009509145210586212 6.00147344902380553 0.002009509145210586212 6.03566806478664830
0.002529822128153114136 7.54962055479557659 0.002529822128153114136 7.58752455997375908
0.003184857364431081805 9.49556613290070217 0.003184857364431081805 9.53539138617623649
0.004009497869020606231 11.94068580197143881 0.004009497869020606231 11.97871009525010955
0.005047658755856332391 15.01173705795254421 0.005047658755856332391 15.04101753607334579
0.006354625877790454069 18.86696848689655326 0.006354625877790454069 18.87530534132634585
0.007999999999995566213 23.70356474880250275 0.007999999999995566213 23.67030390061504974
0.010071403294347192059 29.76664387561107006 0.010071403294347192059 29.65769144607273233
0.012679145539706837553 37.36001316411348228 0.012679145539706837553 37.12011122623876958
0.015962098519764822413 46.85884460361332060 0.015962098519764822413 46.39967846314952027
0.020095091452077440408 58.72432697310350846 0.020095091452077440408 57.90633284616446730
0.025298221281346400247 73.52015508254562803 0.025298221281346400247 72.12488721109180290
0.031848573644282396344 91.93037853615724941 0.031848573644282396344 89.61887124057690812
0.040094978690177640601 114.77758729559997164 0.040094978690177640601 111.02819525130414036
0.050476587558421215363 143.03957602465749233 0.050476587558421215363 137.05619505057683227
0.063546258777947173257 177.86140699656016295 0.063546258777947173257 168.43973348947281465
0.079999999999998294697 220.55808572748128427 0.079999999999998294697 205.89379176583426556
0.100714032943528764008 272.60080935035773564 0.100714032943528764008 250.01965274258770933
0.126791455396883634421 335.57697657596355612 0.126791455396883634421 301.16405671324895366
0.159620985197506115583 411.11112321067440689 0.159620985197506115583 359.21718319534687680
0.200950914520774404082 500.73144216351136038 0.200950914520774404082 423.34330480502438832
0.252982212813464002465 605.66637101890592021 0.252982212813464002465 491.65562608446657578
0.318485736442795541734 726.56150292048221218 0.318485736442795541734 560.88512901390015486
0.400949786901833249431 863.12472187368416598 0.400949786901833249431 626.15909540390975963
0.504765875584169521062 1013.74369039656482983 0.504765875584169521062 681.08829801322281128
0.635462587779429100010 1175.17569941594592819 0.635462587779429100010 718.41231866937266659
0.800000000000011368684 1342.46862821088598139 0.800000000000011368684 731.37139452008784701
1.007140329435344483500 1509.28877470870224897 1.007140329435344483500 715.66760341257509026
1.267914553968893187630 1668.74739629451278233 1.267914553968893187630 671.39485665921665714
1.596209851975103788391 1814.61143598790249598 1.596209851975103788391 603.95348529621094258
2.009509145207672986544 1942.53492727392722372 2.009509145207672986544 523.14546140189258949
2.529822128134725289783 2050.83030973994709711 2.529822128134725289783 440.50717260661821228
3.184857364427998049905 2140.45278644665995671 3.184857364427998049905 365.99602027782350433
4.009497869018190385759 2214.24233057730816654 4.009497869018190385759 305.49443806648622513
5.009497869018204596614 2273.94128645497767138 5.009497869018204596614 261.41332843112309092
6.009497869018190385759 2316.42604506454244984 6.009497869018190385759 235.02342520154886074
7.009497869018190385759 2349.03612260038426029 7.009497869018190385759 218.34332687009194274
8.009497869018204596614 2375.34912382382663054 8.009497869018204596614 207.02397896459493154
9.009497869018190385759 2397.31692458706311299 9.009497869018190385759 198.93316784247193141
10.009497869018190385759 2416.10516255843458566 10.009497869018190385759 192.76727811355621611
11.009497869018204596614 2432.46173951155651594 11.009497869018204596614 187.49377810448098103
12.009497869018190385759 2446.89481806074354608 12.009497869018190385759 183.04939678555501814
13.009497869018190385759 2459.76529783959722408 13.009497869018190385759 179.15537802361936315
14.009497869018204596614 2471.33928292624023015 14.009497869018204596614 175.63297883008453937
15.009497869018190385759 2481.81884077463246285 15.009497869018190385759 172.36381936484951893
16.009497869018190385759 2491.36122433964965239 16.009497869018190385759 169.26662915389997011
17.009497869018190385759 2500.09122505216964782 17.009497869018190385759 166.23900206049120243
18.009497869018204596614 2508.10975840096125467 18.009497869018204596614 163.32812270246253661
19.009497869018190385759 2515.49968378837456839 19.009497869018190385759 160.39183219582352535
20.009497869018190385759 2522.33008385154880671 20.009497869018190385759 157.55027811268877258
21.009497869018204596614 2528.65891842360360897 21.009497869018204596614 154.72200857977026089
22.009497869018190385759 2534.53561110017108149 22.009497869018190385759 151.89640715960018724
23.009497869018190385759 2540.00264616533831941 23.009497869018190385759 148.99033965420750292
24.009497869018204596614 2545.09692784808248689 24.009497869018204596614 146.15526762893452428
25.009497869018190385759 2549.85064329465467381 25.009497869018190385759 143.31089799137544105
26.009497869018190385759 2554.29225886426274883 26.009497869018190385759 140.36153722931109655
27.009497869018204596614 2558.44686710474707070 27.009497869018204596614 137.50464001280039383
28.009497869018190385759 2562.33704031996148842 28.009497869018190385759 134.64348399716726590
29.009497869018190385759 2565.98274050268128121 29.009497869018190385759 131.70362702628091256
30.009497869018190385759 2569.40249687554660341 30.009497869018190385759 128.84546326728863619
31.009497869018190385759 2572.61215022834085175 31.009497869018190385759 125.98981265729585743
32.009497869018190385759 2575.62708509647427491 32.009497869018190385759 123.14239914186029523
33.009497869018190385759 2578.46051231659930636 33.009497869018190385759 120.22251644409686833
34.009497869018190385759 2581.12500948920160226 34.009497869018190385759 117.40589577163723334
35.009497869018190385759 2583.63213400036784151 35.009497869018190385759 114.55059731656949396
36.009497869018190385759 2585.99177699673373354 36.009497869018190385759 111.77907318271729764
37.009497869018190385759 2588.21417803750091480 37.009497869018190385759 109.03180564532988228
38.009497869018190385759 2590.30804217725108174 38.009497869018190385759 106.31340463756453119
39.009497869018190385759 2592.28126857210008893 39.009497869018190385759 103.58479899552921211
40.009497869018190385759 2594.14208588397423227 40.009497869018190385759 100.82825316192713672
41.009497869018190385759 2595.89727638890644812 41.009497869018190385759 98.25489934749838028
42.009497869018190385759 2597.55302618281257310 42.009497869018190385759 95.64837913290006099
43.009497869018190385759 2599.11594431354842527 43.009497869018190385759 93.14178042741438901
44.009497869018190385759 2600.59167734306902275 44.009497869018190385759 90.62208391078657144
46.009497869018190385759 2603.30108266937077133 46.009497869018190385759 85.72210857178981769
48.009497869018190385759 2605.72038210897153476 48.009497869018190385759 81.04333645082007820
50.009497869018218807469 2607.88219173002835305 50.009497869018218807469 76.53018295919976310
52.009497869018190385759 2609.81642259589716559 52.009497869018190385759 72.20398194766355005
54.009497869018190385759 2611.54799955412045165 54.009497869018190385759 68.09188295071611208
56.009497869018190385759 2613.09973120823678983 56.009497869018190385759 64.16048836454891102
58.009497869018190385759 2614.49092444353118481 58.009497869018190385759 60.42862266499021473
60.009497869018190385759 2615.73962378760916181 60.009497869018190385759 56.87417975478180665
62.009497869018190385759 2616.86048823934743268 62.009497869018190385759 53.49208891516461506
64.009497869018190385759 2617.86818806793689873 64.009497869018190385759 50.28013838002355129
66.009497869018218807469 2618.77400555082931533 66.009497869018218807469 47.26777631292782189
68.009497869018190385759 2619.58886624275010035 68.009497869018190385759 44.42311074053409214
70.009497869018190385759 2620.32238901127311692 70.009497869018190385759 41.69385057759348001
72.009497869018190385759 2620.98255661057828547 72.009497869018190385759 39.15572387821057987
74.009497869018218807469 2621.57740927006170750 74.009497869018218807469 36.73744523593636302
76.009497869018190385759 2622.11359668065642836 76.009497869018190385759 34.45147568828539164
78.009497869018190385759 2622.59700044348846859 78.009497869018190385759 32.28683553792357941
80.009497869018218807469 2623.03305610498227907 80.009497869018218807469 30.25519309983145178
82.009497869018190385759 2623.42636365204953108 82.009497869018190385759 28.32547696059216591
84.009497869018190385759 2623.78104553951334310 84.009497869018190385759 26.44378072680048319
86.009497869018218807469 2624.10118128228759815 86.009497869018218807469 24.72107245553230115
88.009497869018190385759 2624.39014865776607621 88.009497869018190385759 23.04169520509135793
91.009497869018190385759 2624.77171167773303750 91.009497869018190385759 20.71835241899107416
94.009497869018190385759 2625.09928136334974624 94.009497869018190385759 18.55925719768044146
97.009497869018190385759 2625.37998054444278750 97.009497869018190385759 16.60803262206851372
99.504748934509137825444 2625.58263124341283401 99.504748934509137825444 14.12443965675210933
nan nan nan nan

