Time Pressure difference Time.1 Pressure.1 difference.1
(hr) (psi) (hr) (psi)
0.000200000000006639311 0.73231415709382608 0.000200000000006639311 0.58388390315088645
0.000399999999999067768 1.46400433400684493 0.000399999999999067768 1.52733376802473764
0.000600000000019917934 2.19516565788746032 0.000600000000019917934 2.23415213062720763
0.000799999999998135536 2.92583391358861533 0.000799999999998135536 2.95342666246015106
0.001007140329448930061 3.68209699050288863 0.001007140329448930061 3.70817152891414459
0.001267914553963578328 4.63349220508756421 0.001267914553963578328 4.66457281716640004
0.001596209851982166583 5.83018396075968948 0.001596209851982166583 5.86663802900625964
0.002009509145210586212 7.33513421547353950 0.002009509145210586212 7.37692763473923740
0.002529822128153114136 9.22731401141681573 0.002529822128153114136 9.27364112885681635
0.003184857364431081805 11.60569194021197070 0.003184857364431081805 11.65436724977095651
0.004009497869020606231 14.59417153574286807 0.004009497869020606231 14.64064567197235789
0.005047658755856332391 18.34767862638644331 0.005047658755856332391 18.38346587742297800
0.006354625877790454069 23.05962815065134563 0.006354625877790454069 23.06981763939887031
0.007999999999995566213 28.97102358186972637 0.007999999999995566213 28.93037143408506040
0.010071403294347192059 36.38145362574686459 0.010071403294347192059 36.24828954520000934
0.012679145539706837553 45.66223831169426006 0.012679145539706837553 45.36902483206961278
0.015962098519764822413 57.27192118219406325 0.015962098519764822413 56.71071812162718828
0.020095091452077440408 71.77417741157096032 0.020095091452077440408 70.77440681197879258
0.025298221281346400247 89.85796732311131052 0.025298221281346400247 88.15263992466776699
0.031848573644282396344 112.35935154419219373 0.031848573644282396344 109.53417596070512730
0.040094978690177640601 140.28371780573328920 0.040094978690177640601 135.70112752937171763
0.050476587558421215363 174.82614847458140162 0.050476587558421215363 167.51312728403834740
0.063546258777947173257 217.38616410690687530 0.063546258777947173257 205.87078537602232586
0.079999999999998294697 269.57099366692153808 0.079999999999998294697 251.64796771379744200
0.100714032943528764008 333.17876698377051525 0.100714032943528764008 305.57957557427386064
0.126791455396883634421 410.14963803728880976 0.126791455396883634421 368.08940264952650523
0.159620985197506115583 502.46915059082425614 0.159620985197506115583 439.04322390542392895
0.200950914520774404082 612.00509597762493286 0.200950914520774404082 517.41959476169643040
0.252982212813464002465 740.25889791199620049 0.252982212813464002465 600.91243188101475425
0.318485736442795541734 888.01961468058937044 0.318485736442795541734 685.52626879476690647
0.400949786901833249431 1054.93021562339185948 0.400949786901833249431 765.30556104922288796
0.504765875584169521062 1239.02006604024586522 0.504765875584169521062 832.44125312727237542
0.635462587779429100010 1436.32585484171181633 0.635462587779429100010 878.05950059589986267
0.800000000000011368684 1640.79499003552746217 0.800000000000011368684 893.89837108010738120
1.007140329435344483500 1844.68628019952484465 1.007140329435344483500 874.70484861536942844
1.267914553968893187630 2039.58015102662693607 1.267914553968893187630 820.59371369459813650
1.596209851975103788391 2217.85842176299229322 1.596209851975103788391 738.16537091759118994
2.009509145207672986544 2374.20935555702180864 2.009509145207672986544 639.40000838009086692
2.529822128134725289783 2506.57037857104614886 2.529822128134725289783 538.39765540808889455
3.184857364427998049905 2616.10896121258429048 3.184857364427998049905 447.32846922845101290
4.009497869018190385759 2706.29618181671003185 4.009497869018190385759 373.38209097014987492
5.009497869018204596614 2779.26157233386174994 5.009497869018204596614 319.50517919359486996
6.009497869018190385759 2831.18738841221784241 6.009497869018190385759 287.25085302411525845
7.009497869018190385759 2871.04414984491404539 7.009497869018190385759 266.86406617455679680
8.009497869018204596614 2903.20448467356573019 8.009497869018204596614 253.02930762339383364
9.009497869018190385759 2930.05401893974431005 9.009497869018190385759 243.14053847413237008
10.009497869018190385759 2953.01742090475363511 10.009497869018190385759 235.60445102767982917
11.009497869018204596614 2973.00879273634654965 11.009497869018204596614 229.15906212769897365
12.009497869018190385759 2990.64922207424206135 12.009497869018190385759 223.72704051567836814
13.009497869018190385759 3006.37980847061908207 13.009497869018190385759 218.96768425109030431
14.009497869018204596614 3020.52579024318220036 14.009497869018204596614 214.66252968121443701
15.009497869018190385759 3033.33413872455048477 15.009497869018190385759 210.66689033481608817
16.009497869018190385759 3044.99705197068306006 16.009497869018190385759 206.88143563254442370
17.009497869018190385759 3055.66705284154068067 17.009497869018190385759 203.18100251837813630
18.009497869018204596614 3065.46748249006304832 18.009497869018204596614 199.62326108078755738
19.009497869018190385759 3074.49961351912406826 19.009497869018190385759 196.03446157267319450
20.009497869018190385759 3082.84788026300429920 20.009497869018190385759 192.56145102661960777
21.009497869018204596614 3090.58312251773759272 21.009497869018204596614 189.10467715305253478
22.009497869018190385759 3097.76574690020879643 22.009497869018190385759 185.65116430617800347
23.009497869018190385759 3104.44767864652476419 23.009497869018190385759 182.09930402180918918
24.009497869018204596614 3110.67402292543420117 24.009497869018204596614 178.63421599091998360
25.009497869018190385759 3116.48411958235601560 25.009497869018190385759 175.15776421168109778
26.009497869018190385759 3121.91276083409866260 26.009497869018190385759 171.55298994693580994
27.009497869018204596614 3126.99061535024657132 27.009497869018204596614 168.06122668231157036
28.009497869018190385759 3131.74527150217500093 28.009497869018190385759 164.56425821875998849
29.009497869018190385759 3136.20112728105459610 29.009497869018190385759 160.97109969878775360
30.009497869018190385759 3140.38082951455726288 30.009497869018190385759 157.47778843779721569
31.009497869018190385759 3144.30373916797179845 31.009497869018190385759 153.98754880336159090
32.009497869018190385759 3147.98865956235749763 32.009497869018190385759 150.50737672894032926
33.009497869018190385759 3151.45173727584369772 33.009497869018190385759 146.93863120945172795
34.009497869018190385759 3154.70834493124630171 34.009497869018190385759 143.49609483200106297
35.009497869018190385759 3157.77260822267226104 35.009497869018190385759 140.00628560914049103
36.009497869018190385759 3160.65661632934143199 36.009497869018190385759 136.61886722332116051
37.009497869018190385759 3163.37288426805662311 37.009497869018190385759 133.26109578873652595
38.009497869018190385759 3165.93205154997349382 38.009497869018190385759 129.93860566813441437
39.009497869018190385759 3168.34377269923379572 39.009497869018190385759 126.60364321675790222
40.009497869018190385759 3170.61810496930183945 40.009497869018190385759 123.23453164235537827
41.009497869018190385759 3172.76333780866389134 41.009497869018190385759 120.08932142472023941
42.009497869018190385759 3174.78703200121526606 42.009497869018190385759 116.90357449576673332
43.009497869018190385759 3176.69726527211469147 43.009497869018190385759 113.83995385572869452
44.009497869018190385759 3178.50093897486158312 44.009497869018190385759 110.76032477985025082
46.009497869018190385759 3181.81243437367584193 46.009497869018190385759 104.77146603218754706
48.009497869018190385759 3184.76935591096525968 48.009497869018190385759 99.05296677322454002
50.009497869018218807469 3187.41156767003440109 50.009497869018218807469 93.53689028346637713
52.009497869018190385759 3189.77562761720764684 52.009497869018190385759 88.24931126936657222
54.009497869018190385759 3191.89199945503651179 54.009497869018190385759 83.22341249531969254
56.009497869018190385759 3193.78856036562228837 56.009497869018190385759 78.41837466778200394
58.009497869018190385759 3195.48890765320493301 58.009497869018190385759 73.85720547943247993
60.009497869018190385759 3197.01509574041119777 60.009497869018190385759 69.51288636695554146
62.009497869018190385759 3198.38504118142509469 62.009497869018190385759 65.37921978520118671
64.009497869018190385759 3199.61667430525631062 64.009497869018190385759 61.45350246447323173
66.009497869018218807469 3200.72378456212527453 66.009497869018218807469 57.77172660468956167
68.009497869018190385759 3201.71972540780552663 68.009497869018190385759 54.29491312731943964
70.009497869018190385759 3202.61625323600037518 70.009497869018190385759 50.95915070594758589
72.009497869018190385759 3203.42312474626214680 72.009497869018190385759 47.85699585114626586
74.009497869018218807469 3204.15016688563082425 74.009497869018218807469 44.90132195503332468
76.009497869018190385759 3204.80550705413543255 76.009497869018190385759 42.10735917457103739
78.009497869018190385759 3205.39633387537423914 78.009497869018190385759 39.46168787968436931
80.009497869018218807469 3205.92929079497798739 80.009497869018218807469 36.97856934423843711
82.009497869018190385759 3206.41000001917109330 82.009497869018190385759 34.62002739627931902
84.009497869018190385759 3206.84350010384923735 84.009497869018190385759 32.32017644386726118
86.009497869018218807469 3207.23477712279600382 86.009497869018218807469 30.21464411231725933
88.009497869018190385759 3207.58795947060298204 88.009497869018190385759 28.16207191733388271
91.009497869018190385759 3208.05431427278472256 91.009497869018190385759 25.32243073432242397
94.009497869018190385759 3208.45467722187186155 94.009497869018190385759 22.68353657494276376
97.009497869018190385759 3208.79775399876325537 97.009497869018190385759 20.29870653808373504
99.504748934509137825444 3209.04543818639376696 99.504748934509137825444 17.26320402491924355
nan nan nan nan

