Time Pressure difference Time.1 Pressure.1 difference.1
(hr) (psi) (hr) (psi)
0.000200000000006639311 0.79056641958992591 0.000200000000006639311 0.63032921362879790
0.000399999999999067768 1.58045922421193485 0.000399999999999067768 1.64882622684488722
0.000600000000019917934 2.36978110794668995 0.000600000000019917934 2.41186877738164496
0.000799999999998135536 3.15857070216952840 0.000799999999998135536 3.18835832879220815
0.001007140329448930061 3.97499106929289070 0.001007140329448930061 4.00313971871413266
0.001267914553963578328 5.00206544867407477 0.001267914553963578328 5.03561838216827251
0.001596209851982166583 6.29394859400193685 0.001596209851982166583 6.33330241767721169
0.002009509145210586212 7.91861080079529867 0.002009509145210586212 7.96372869659349369
0.002529822128153114136 9.96130489868860813 0.002529822128153114136 10.01131712774315474
0.003184857364431081805 12.52887198091064924 0.003184857364431081805 12.58141919009364607
0.004009497869020606231 15.75507154426786904 0.004009497869020606231 15.80524248678833921
0.005047658755856332391 19.80715306257627262 0.005047658755856332391 19.84578702676344264
0.006354625877790454069 24.89391675354406530 0.006354625877790454069 24.90491676980559532
0.007999999999995566213 31.27553682133663315 0.007999999999995566213 31.23165097997819117
0.010071403294347192059 39.27543289143127225 0.010071403294347192059 39.13167621356819126
0.012679145539706837553 49.29446181376084724 0.012679145539706837553 48.97792453462060536
0.015962098519764822413 61.82764218532313549 0.015962098519764822413 61.22179797221117070
0.020095091452077440408 77.48348697840046384 0.020095091452077440408 76.40418917202255500
0.025298221281346400247 97.00576017835881260 0.025298221281346400247 95.16478173685725039
0.031848573644282396344 121.29702723520746588 0.031848573644282396344 118.24712177576121519
0.040094978690177640601 151.44264990391661740 0.040094978690177640601 146.49553540102630222
0.050476587558421215363 188.73277392142310305 0.050476587558421215363 180.83803513617775138
0.063546258777947173257 234.67824534268353887 0.063546258777947173257 222.24687057638772103
0.079999999999998294697 291.01414089042668820 0.079999999999998294697 271.66541969103133169
0.100714032943528764008 359.68162344838862055 0.100714032943528764008 329.88704181313653407
0.126791455396883634421 442.77517742661859756 0.126791455396883634421 397.36924149664793049
0.159620985197506115583 542.43828756963989690 0.159620985197506115583 473.96711671608267125
0.200950914520774404082 660.68731952129962792 0.200950914520774404082 558.57797161774044525
0.252982212813464002465 799.14312842772324075 0.252982212813464002465 648.71228441700452549
0.318485736442795541734 958.65753857563618112 0.318485736442795541734 740.05676744889615293
0.400949786901833249431 1138.84511913888900381 0.400949786901833249431 826.18213976904758056
0.504765875584169521062 1337.57848038435622584 0.504765875584169521062 898.65817098966897447
0.635462587779429100010 1550.57904784048423608 0.635462587779429100010 947.90514268875551807
0.800000000000011368684 1771.31277333380785421 0.800000000000011368684 965.00392332511592031
1.007140329435344483500 1991.42268885175985815 1.007140329435344483500 944.28364339159202245
1.267914553968893187630 2201.81948122192670780 1.267914553968893187630 885.86821364757759056
1.596209851975103788391 2394.27897803959376688 1.596209851975103788391 796.88307087694511210
2.009509145207672986544 2563.06691793087566111 2.009509145207672986544 690.26137268305262751
2.529822128134725289783 2705.95665868465221138 2.529822128134725289783 581.22474163373237843
3.184857364427998049905 2824.20853767267590229 3.184857364427998049905 482.91141564435048394
4.009497869018190385759 2921.56974173394837635 4.009497869018190385759 403.08293911550271105
5.009497869018204596614 3000.33919740587361957 5.009497869018204596614 344.92036390217629105
6.009497869018190385759 3056.39547612682645195 6.009497869018190385759 310.10035269648807343
7.009497869018190385759 3099.42266176439579795 7.009497869018190385759 288.09188962026018999
8.009497869018204596614 3134.14120504532684208 8.009497869018204596614 273.15663891161830179
9.009497869018190385759 3163.12649771904170848 9.009497869018190385759 262.48126312548379246
10.009497869018190385759 3187.91653393126807714 10.009497869018190385759 254.34571417760889744
11.009497869018204596614 3209.49812852219201886 11.009497869018204596614 247.38762388785684720
12.009497869018190385759 3228.54177383014757652 12.009497869018190385759 241.52350964760731244
13.009497869018190385759 3245.52365687169049124 13.009497869018190385759 236.38556822560889259
14.009497869018204596614 3260.79488719434493760 14.009497869018204596614 231.73795817858376722
15.009497869018190385759 3274.62208157764007410 15.009497869018190385759 227.42448388417645333
16.009497869018190385759 3287.21272655926031803 16.009497869018190385759 223.33791346695136326
17.009497869018190385759 3298.73147749939062123 17.009497869018190385759 219.34312771870366987
18.009497869018204596614 3309.31148677904548094 18.009497869018204596614 215.50238412130474330
19.009497869018190385759 3319.06208277632731551 19.009497869018190385759 211.62811192504494784
20.009497869018190385759 3328.07441619301653191 20.009497869018190385759 207.87883917646436771
21.009497869018204596614 3336.42496180892158009 21.009497869018204596614 204.14709465386351894
22.009497869018190385759 3344.17893131272558094 22.009497869018190385759 200.41887055780580340
23.009497869018190385759 3351.39238035704329377 23.009497869018190385759 196.58447593263488784
24.009497869018204596614 3358.11400202177537722 24.009497869018204596614 192.84375589928862382
25.009497869018190385759 3364.38626545822535263 25.009497869018190385759 189.09076818306482437
26.009497869018190385759 3370.24673044590190329 26.009497869018190385759 185.19925051089660428
27.009497869018204596614 3375.72850520765268811 27.009497869018204596614 181.42973335022270476
28.009497869018190385759 3380.86137264439366845 28.009497869018190385759 177.65459694070682417
29.009497869018190385759 3385.67167149659280767 29.009497869018190385759 173.77561899300951609
30.009497869018190385759 3390.18385004412402850 30.009497869018190385759 170.00443069989472633
31.009497869018190385759 3394.41880932906087764 31.009497869018190385759 166.23655836726535995
32.009497869018190385759 3398.39684839118126547 32.009497869018190385759 162.47955442328787967
33.009497869018190385759 3402.13539819551306209 33.009497869018190385759 158.62693141929446483
34.009497869018190385759 3405.65105418714119878 34.009497869018190385759 154.91055692091023843
35.009497869018190385759 3408.95906569493035931 35.009497869018190385759 151.14314923714030670
36.009497869018190385759 3412.07248353735712953 36.009497869018190385759 147.48627711608531854
37.009497869018190385759 3415.00481824392454655 37.009497869018190385759 143.86141022647692012
38.009497869018190385759 3417.76755565053963437 38.009497869018190385759 140.27463111900874537
39.009497869018190385759 3420.37111825485499139 39.009497869018190385759 136.67438756354547991
40.009497869018190385759 3422.82636331913226968 40.009497869018190385759 133.03727847754274194
41.009497869018190385759 3425.14223967980751695 41.009497869018190385759 129.64188108350481343
42.009497869018190385759 3427.32690954676672845 42.009497869018190385759 126.20272246702090513
43.009497869018190385759 3429.38909319148751820 43.009497869018190385759 122.89540473061620673
44.009497869018190385759 3431.33624093877097039 44.009497869018190385759 119.57080516006563187
46.009497869018190385759 3434.91115074430899767 46.009497869018190385759 113.10555992111156343
48.009497869018190385759 3438.10328194933754276 48.009497869018190385759 106.93218003927648851
50.009497869018218807469 3440.95566964378713237 50.009497869018218807469 100.97732473783301543
52.009497869018190385759 3443.50777981403098238 52.009497869018190385759 95.26914284761164708
54.009497869018190385759 3445.79249941168700389 54.009497869018190385759 89.84345667108377143
56.009497869018190385759 3447.83992312197869978 56.009497869018190385759 84.65619992544647232
58.009497869018190385759 3449.67552530743751049 58.009497869018190385759 79.73221046075099139
60.009497869018190385759 3451.32311471976208850 60.009497869018190385759 75.04232050978154689
62.009497869018190385759 3452.80203309358375918 62.009497869018190385759 70.57983954084220102
64.009497869018190385759 3454.13163703408372385 64.009497869018190385759 66.34184925141995848
66.009497869018218807469 3455.32681287956711458 66.009497869018218807469 62.36720485733532371
68.009497869018190385759 3456.40197629251724720 68.009497869018190385759 58.61382667153803538
70.009497869018190385759 3457.36981883431872120 70.009497869018190385759 55.01271951210251387
72.009497869018190385759 3458.24087330562360876 72.009497869018190385759 51.66380233930562582
74.009497869018218807469 3459.02574834244251178 74.009497869018218807469 48.47301801963824630
76.009497869018190385759 3459.73321784253221267 76.009497869018190385759 45.45680819982101184
78.009497869018190385759 3460.37104225182429218 78.009497869018190385759 42.60068577920472421
80.009497869018218807469 3460.94639347185102451 80.009497869018218807469 39.92004645116649897
82.009497869018190385759 3461.46534092978754416 82.009497869018190385759 37.37389321189243674
84.009497869018190385759 3461.93332397574658899 84.009497869018190385759 34.89109957008396634
86.009497869018218807469 3462.35572530301806182 86.009497869018218807469 32.61808171216067365
88.009497869018190385759 3462.73700170121946940 88.009497869018190385759 30.40223672893998597
91.009497869018190385759 3463.24045290812000530 91.009497869018190385759 27.33671499727989129
94.009497869018190385759 3463.67266290997531542 94.009497869018190385759 24.48790880249502777
97.009497869018190385759 3464.04302988502831795 97.009497869018190385759 21.91337637634039837
99.504748934509137825444 3464.31041622394741353 99.504748934509137825444 18.63641343599236677
nan nan nan nan

