Time Pressure difference Time.1 Pressure.1 difference.1
(hr) (psi) (hr) (psi)
0.000200000000020850166 0.81591644879081293 0.000200000000020850166 0.65032776102891432
0.000399999999999067768 1.63154271965309428 0.000399999999999067768 1.70307898219259535
0.000600000000019917934 2.44692430463823962 0.000600000000019917934 2.49215739111756829
0.000799999999998135536 3.26208062627504924 0.000799999999998135536 3.29572008066273270
0.001007140329434719206 4.10611678300447114 0.001007140329434719206 4.13953587364416720
0.001267914553977789183 5.16838746761066314 0.001267914553977789183 5.20969698305182050
0.001596209851982166583 6.50523941193623934 0.001596209851982166583 6.55608255963385655
0.002009509145224797066 8.18752516769410121 0.002009509145224797066 8.24975880204235246
0.002529822128153114136 10.30431470107768810 0.002529822128153114136 10.37995173512663349
0.003184857364431081805 12.96754439928097824 0.003184857364431081805 13.05862087350442380
0.004009497869034817086 16.31783357303081061 0.004009497869034817086 16.42614847431026703
0.005047658755856332391 20.53175133933080332 0.005047658755856332391 20.65839647441976368
0.006354625877790454069 25.83087961675547817 0.006354625877790454069 25.97542886350004565
0.008000000000009777068 32.49309153008625373 0.008000000000009777068 32.65224432579425695
0.010071403294361402914 40.86654865086496358 0.010071403294361402914 41.03190746822781421
0.012679145539692626699 51.38701347051808455 0.012679145539692626699 51.54149784218263619
0.015962098519750611558 64.59917088253682493 0.015962098519750611558 64.71129892977336340
0.020095091452091651263 81.18274529281735852 0.020095091452091651263 81.19759941164468842
0.025298221281360611101 101.98427210548763355 0.025298221281360611101 101.80933706175433429
0.031848573644296607199 128.05540630572980376 0.031848573644296607199 127.53852133141241154
0.040094978690191851456 160.69858221827360012 0.040094978690191851456 159.59383458485453389
0.050476587558435426217 201.52060782905778069 0.050476587558435426217 199.43590522803415865
0.063546258777947173257 252.49427951620106114 0.063546258777947173257 248.81129047890416928
0.080000000000012505552 316.02718596994253630 0.080000000000012505552 309.77996841144590690
0.100714032943542974863 395.03531979011262365 0.100714032943542974863 384.72783272637997243
0.126791455396883634421 493.01664697986819874 0.126791455396883634421 476.35099962667464979
0.159620985197506115583 614.11604305304922491 0.159620985197506115583 587.59240794346237635
0.200950914520774404082 763.16758773291769558 0.200950914520774404082 721.50313699555704261
0.252982212813464002465 945.69273824924698602 0.252982212813464002465 880.99144020463631932
0.318485736442809752589 1167.82316758696742909 0.318485736442809752589 1068.41300635162201615
0.400949786901833249431 1436.10534055402808917 0.400949786901833249431 1284.94973328036076055
0.504765875584169521062 1757.13163072329302850 0.504765875584169521062 1529.72884508645074675
0.635462587779443310865 2136.93385264084099617 0.635462587779443310865 1798.66509458869541049
0.800000000000011368684 2580.07828716533049374 0.800000000000011368684 2083.09411416456396182
1.007140329435344483500 3088.43352554666489596 1.007140329435344483500 2368.44283252088098379
1.267914553968907398485 3659.66977234791374940 1.267914553968907398485 2633.47471599117807273
1.596209851975117999245 4285.71604893903713673 1.596209851975117999245 2850.98757801823057889
2.009509145207687197399 4951.64269551952656911 2.009509145207687197399 2990.98197083560944520
2.529822128134725289783 5635.65783527818894072 2.529822128134725289783 3026.83048716723124016
3.184857364427983839050 6310.90196676586219837 3.184857364427983839050 2943.54527575206566326
4.009497869018204596614 6949.26360541084522993 4.009497869018204596614 2745.70754174983858320
5.009497869018190385759 7508.65024074703342194 5.009497869018190385759 2469.97778807925851652
6.009497869018190385759 7913.13870133965974674 6.009497869018190385759 2207.04745931492334421
7.009497869018204596614 8215.49467969180113869 7.009497869018204596614 1976.53469449013982739
8.009497869018190385759 8448.41881873014426674 8.009497869018190385759 1782.89595222373145589
9.009497869018204596614 8632.78095972654045909 9.009497869018204596614 1625.24148295795180275
10.009497869018190385759 8782.26493671211028413 10.009497869018190385759 1498.30570666961148163
11.009497869018190385759 8906.08611941066556028 11.009497869018190385759 1391.04905882267689776
12.009497869018204596614 9010.59260151470880373 12.009497869018204596614 1303.09293893225208194
13.009497869018190385759 9100.25819038345252920 13.009497869018190385759 1230.74026219762890832
14.009497869018204596614 9178.30090460353676463 14.009497869018204596614 1170.95000702951233507
15.009497869018190385759 9247.07994386671452958 15.009497869018190385759 1121.26564054133677928
16.009497869018190385759 9308.35581491288030520 16.009497869018190385759 1079.72551008580194321
17.009497869018204596614 9363.46421813906090392 17.009497869018204596614 1045.69651476108128918
18.009497869018190385759 9413.43450376836881333 18.009497869018190385759 1015.93816001877246435
19.009497869018204596614 9459.07362674437172245 19.009497869018204596614 991.78073153814978014
20.009497869018190385759 9501.01772690136749588 20.009497869018190385759 969.82974926355791467
21.009497869018190385759 9539.77811095695142285 21.009497869018190385759 950.90050187770020784
22.009497869018204596614 9575.77310982956805674 22.009497869018204596614 934.46632418862077429
23.009497869018190385759 9609.34144769340673520 23.009497869018190385759 920.55381336669381653
24.009497869018204596614 9640.76728991503114230 24.009497869018204596614 907.88748326364122931
25.009497869018204596614 9670.28756571945086762 25.009497869018204596614 896.69762302573212764
26.009497869018190385759 9698.10182692052876519 26.009497869018190385759 887.23801933875165560
27.009497869018204596614 9724.38133720280529815 27.009497869018204596614 878.30055357288142659
28.009497869018190385759 9749.27150368878392328 28.009497869018190385759 870.29139064547234739
29.009497869018190385759 9772.89924286510358797 29.009497869018190385759 863.28610150286226599
30.009497869018190385759 9795.37431100908179360 30.009497869018190385759 856.72566249709507247
31.009497869018218807469 9816.79251664819821599 31.009497869018218807469 850.76040858106421183
32.009497869018190385759 9837.23945377481686592 32.009497869018190385759 845.32012277710987291
33.009497869018190385759 9856.78871361108576821 33.009497869018190385759 840.53857226586205798
34.009497869018218807469 9875.50826507302372192 34.009497869018218807469 835.92186453749923203
35.009497869018190385759 9893.45663111167232273 35.009497869018190385759 831.77445874421073313
36.009497869018190385759 9910.68720699675395736 36.009497869018190385759 827.81751429231303518
37.009497869018190385759 9927.24878192056894477 37.009497869018190385759 824.14096063519014024
38.009497869018218807469 9943.18387892312421172 38.009497869018218807469 820.71796145733867434
39.009497869018190385759 9958.53221656933237682 39.009497869018190385759 817.57961570893417047
40.009497869018190385759 9973.32992759020089579 40.009497869018190385759 814.75480101338735039
41.009497869018218807469 9987.60913796495151473 41.009497869018218807469 811.85122164188965144
42.009497869018190385759 10001.39996436644651112 42.009497869018190385759 809.23553927208172354
43.009497869018190385759 10014.73018330740706006 43.009497869018190385759 806.66199655201933183
44.009497869018218807469 10027.62456600854784483 44.009497869018218807469 804.32286638813911850
46.009497869018190385759 10052.19769169791834429 46.009497869018190385759 799.98253312238898616
48.009497869018218807469 10075.28553188695514109 48.009497869018218807469 795.98234703601883666
50.009497869018190385759 10097.03094796722325555 50.009497869018190385759 792.39540547870421960
52.009497869018190385759 10117.55755111315011163 52.009497869018190385759 789.10001754552422426
54.009497869018218807469 10136.97352428345220687 54.009497869018218807469 786.01803000986603820
56.009497869018190385759 10155.37341495025248150 56.009497869018190385759 783.16888863984490854
58.009497869018218807469 10172.84099207530016429 58.009497869018218807469 780.61953589945585463
60.009497869018190385759 10189.45031861884490354 60.009497869018190385759 778.13996507826345805
62.009497869018190385759 10205.26740028071617417 62.009497869018190385759 775.82353193008384551
64.009497869018218807469 10220.35138673378423846 64.009497869018218807469 773.65109734514885531
66.009497869018190385759 10234.75511437036402640 66.009497869018190385759 771.62931141361161735
68.009497869018190385759 10248.52653391798048688 68.009497869018190385759 769.73867779931015320
70.009497869018190385759 10261.70866104942069796 70.009497869018190385759 767.91210355611372051
72.009497869018190385759 10274.34067340807632718 72.009497869018190385759 766.19963382501998694
74.009497869018218807469 10286.45824022425767907 74.009497869018218807469 764.56488411906536840
76.009497869018190385759 10298.09369137012981810 76.009497869018190385759 763.00988616373956575
78.009497869018190385759 10309.27674380942880816 78.009497869018190385759 761.53541095728530763
80.009497869018218807469 10320.03458544336899649 80.009497869018218807469 760.12283925418842045
82.009497869018190385759 10330.39208415027678711 82.009497869018190385759 758.77042036941577408
84.009497869018218807469 10340.37225097146802000 84.009497869018218807469 757.46468070633534353
86.009497869018190385759 10349.99628599788047723 86.009497869018190385759 756.22939935819647417
88.009497869018190385759 10359.28367870627880620 88.009497869018190385759 755.03047002079779304
91.009497869018218807469 10372.62283283552642388 91.009497869018218807469 753.32757959316643337
94.009497869018218807469 10385.30067074945873173 94.009497869018218807469 751.71770145284517639
97.009497869018218807469 10397.36693211306737794 97.009497869018218807469 750.20589383498452207
99.504748934509137825444 10406.96960628261513193 99.504748934509137825444 748.79266795071714569
nan nan nan nan

