Time Pressure difference Time.1 Pressure.1 difference.1
(hr) (psi) (hr) (psi)
0.000200000000020850166 0.86914647195351635 0.000200000000020850166 0.69275485247218704
0.000399999999999067768 1.73798383490059472 0.000399999999999067768 1.81418709112259147
0.000600000000019917934 2.60656054877365984 0.000600000000019917934 2.65474462152686952
0.000799999999998135536 3.47489730321857948 0.000799999999998135536 3.51073138052248268
0.001007140329434719206 4.37399800024431329 0.001007140329434719206 4.40959733736814918
0.001267914553977789183 5.50557074786253065 0.001267914553977789183 5.54957527756284641
0.001596209851982166583 6.92963831342851222 0.001596209851982166583 6.98379844527765581
0.002009509145224797066 8.72167563734998552 0.002009509145224797066 8.78796936608996759
0.002529822128153114136 10.97656357046501796 0.002529822128153114136 11.05713513069045106
0.003184857364431081805 13.81354117966220407 0.003184857364431081805 13.91055944221419161
0.004009497869034817086 17.38240171642935650 0.004009497869034817086 17.49778303328667661
0.005047658755856332391 21.87123358776829107 0.005047658755856332391 22.00614099466733364
0.006354625877790454069 27.51607461723697767 0.006354625877790454069 27.67005419200565441
0.008000000000009777068 34.61292624764539028 0.008000000000009777068 34.78246210036187591
0.010071403294361402914 43.53266395530467037 0.010071403294361402914 43.70881070774522925
0.012679145539692626699 54.73947918113292843 0.012679145539692626699 54.90404204391524701
0.015962098519750611558 68.81359181676960191 0.015962098519750611558 68.93303504751598609
0.020095091452091651263 86.47907118348027211 0.020095091452091651263 86.49489437835748618
0.025298221281360611101 108.63768027546848316 0.025298221281360611101 108.45133254794421873
0.031848573644296607199 136.40968357745938988 0.031848573644296607199 135.85907725925176237
0.040094978690191851456 171.18248564535767287 0.040094978690191851456 170.00566477183789971
0.050476587558435426217 214.66772189741627130 0.050476587558435426217 212.44701423373669513
0.063546258777947173257 268.96689306261987440 0.063546258777947173257 265.04362747243101239
0.080000000000012505552 336.64465783750250694 0.080000000000012505552 329.98987460750350920
0.100714032943542974863 420.80724687122091154 0.100714032943542974863 409.82730397458414018
0.126791455396883634421 525.18083190006336736 0.126791455396883634421 507.42792518845567429
0.159620985197506115583 654.18069825732561640 0.159620985197506115583 625.92667308962086281
0.200950914520774404082 812.95629885922426183 0.200950914520774404082 768.57367804317743776
0.252982212813464002465 1007.38930832870858012 0.252982212813464002465 938.46692661961765225
0.318485736442809752589 1244.01142724605620060 0.318485736442809752589 1138.11579167935269652
0.400949786901833249431 1529.79620884705354911 0.400949786901833249431 1368.77927755145469746
0.504765875584169521062 1871.76611019963434046 0.504765875584169521062 1629.52766882297760276
0.635462587779443310865 2276.34645872546207102 0.635462587779443310865 1916.00919861894681162
0.800000000000011368684 2748.40143739833911241 0.800000000000011368684 2218.99423985929570335
1.007140329435344483500 3289.92154352320540056 1.007140329435344483500 2522.95898061602520102
1.267914553968907398485 3898.42498685379223389 1.267914553968907398485 2805.28142529131628180
1.596209851975117999245 4565.31424173424420587 1.596209851975117999245 3036.98472887772777540
2.009509145207687197399 5274.68564405494907987 2.009509145207687197399 3186.11229309195914539
2.529822128134725289783 6003.32562473568577843 2.529822128134725289783 3224.29955055021082444
3.184857364427983839050 6722.62238049982170196 3.184857364427983839050 3135.58084929756250858
4.009497869018204596614 7402.63044613081910938 4.009497869018204596614 2924.83627026358908552
5.009497869018190385759 7998.51121465917549358 5.009497869018190385759 2631.11803113437781576
6.009497869018190385759 8429.38832099892351835 6.009497869018190385759 2351.03424565147270187
7.009497869018204596614 8751.46986776547601039 7.009497869018204596614 2105.48293143954742845
8.009497869018190385759 8999.58987316310049209 8.009497869018190385759 1899.21128447889850577
9.009497869018204596614 9195.97971754763966601 9.009497869018204596614 1731.27150834970416327
10.009497869018190385759 9355.21596214490818966 10.009497869018190385759 1596.05449894978983139
11.009497869018190385759 9487.11518326620353037 11.009497869018190385759 1481.80047550427866554
12.009497869018204596614 9598.43962138926690386 12.009497869018204596614 1388.10613780244989357
13.009497869018190385759 9693.95495305882468529 13.009497869018190385759 1311.03320488942131306
14.009497869018204596614 9777.08913895076148037 14.009497869018204596614 1247.34226029137676051
15.009497869018190385759 9850.35529188656073529 15.009497869018190385759 1194.41650801803962167
16.009497869018190385759 9915.62877327620844881 16.009497869018190385759 1150.16631808324473241
17.009497869018204596614 9974.33242401153620449 17.009497869018204596614 1113.91728636628931781
18.009497869018190385759 10027.56274866253443179 18.009497869018190385759 1082.21750990786676994
19.009497869018204596614 10076.17934755134410807 19.009497869018204596614 1056.48406162830428912
20.009497869018190385759 10120.85986198973114369 20.009497869018190385759 1033.10100711561449316
21.009497869018190385759 10162.14895611622341676 21.009497869018190385759 1012.93682412048588048
22.009497869018204596614 10200.49225257074431283 22.009497869018204596614 995.43048805005980739
23.009497869018190385759 10236.25057374068273930 23.009497869018190385759 980.61033126217637346
24.009497869018204596614 10269.72662381366717455 24.009497869018204596614 967.11765546432729934
25.009497869018204596614 10301.17278917107614689 25.009497869018204596614 955.19777376339459352
26.009497869018190385759 10330.80164029760817357 26.009497869018190385759 945.12102977471499798
27.009497869018204596614 10358.79561404376363498 27.009497869018204596614 935.60048775092889173
28.009497869018190385759 10385.30960382749981363 28.009497869018190385759 927.06881062642059987
29.009497869018190385759 10410.47880611012260488 29.009497869018190385759 919.60649956217230283
30.009497869018190385759 10434.42013761925591098 30.009497869018190385759 912.61806045816956612
31.009497869018218807469 10457.23565738773322664 31.009497869018218807469 906.26363605220399222
32.009497869018190385759 10479.01654352159494010 32.009497869018190385759 900.46842844248703841
33.009497869018190385759 10499.84118830131046707 33.009497869018190385759 895.37493172051563306
34.009497869018218807469 10519.78199490449333098 34.009497869018218807469 890.45703205064910435
35.009497869018190385759 10538.90130429327109596 35.009497869018190385759 886.03905136360867800
36.009497869018190385759 10557.25599522080301540 36.009497869018190385759 881.82395763044564774
37.009497869018190385759 10574.89803986441984307 37.009497869018190385759 877.90754726174679945
38.009497869018218807469 10591.87273544817981019 38.009497869018218807469 874.26123315282256954
39.009497869018190385759 10608.22239175836148206 39.009497869018190385759 870.91814313540896819
40.009497869018190385759 10623.98549880913378729 40.009497869018190385759 867.90903879611585126
41.009497869018218807469 10639.19627846419462003 41.009497869018218807469 864.81603120874081014
42.009497869018190385759 10653.88681219463433081 42.009497869018190385759 862.02970289431755191
43.009497869018190385759 10668.08668864040919289 43.009497869018190385759 859.28826340148850704
44.009497869018218807469 10681.82229508555792563 44.009497869018218807469 856.79652943486780714
46.009497869018190385759 10707.99856047331741138 46.009497869018190385759 852.17303477359473618
48.009497869018218807469 10732.59264100088512350 48.009497869018218807469 847.91187834112110977
50.009497869018190385759 10755.75671827293444949 50.009497869018190385759 844.09092632542910906
52.009497869018190385759 10777.62246780146961100 52.009497869018190385759 840.58054876154221802
54.009497869018218807469 10798.30513035291369306 54.009497869018218807469 837.29749374139657903
56.009497869018190385759 10817.90542163406098553 56.009497869018190385759 834.26247566629763242
58.009497869018218807469 10836.51257565615560452 58.009497869018218807469 831.54680429656605156
60.009497869018190385759 10854.20548721375416790 60.009497869018190385759 828.90546738714090225
62.009497869018190385759 10871.05446818893869931 62.009497869018190385759 826.43791117934506474
64.009497869018218807469 10887.12252715270733461 64.009497869018218807469 824.12374793647359184
66.009497869018190385759 10902.46594751990778605 66.009497869018190385759 821.97006159757813748
68.009497869018190385759 10917.13580830202954530 68.009497869018190385759 819.95608389427036400
70.009497869018190385759 10931.17793149505268957 70.009497869018190385759 818.01034476670622553
72.009497869018190385759 10944.63405067425082962 72.009497869018190385759 816.18615427843622001
74.009497869018218807469 10957.54216211452512653 74.009497869018218807469 814.44475423488620436
76.009497869018190385759 10969.93670487439703720 76.009497869018190385759 812.78830891040558981
78.009497869018190385759 10981.84933463899324124 78.009497869018190385759 811.21763960281668915
80.009497869018218807469 10993.30901303600330721 80.009497869018218807469 809.71291235537910325
82.009497869018190385759 11004.34223031298643036 82.009497869018190385759 808.27226226915342977
84.009497869018218807469 11014.97349874126666691 84.009497869018218807469 806.88133673610650476
86.009497869018190385759 11025.22540149621454475 86.009497869018190385759 805.56546618686581951
88.009497869018190385759 11035.11869953930727206 88.009497869018190385759 804.28831923724135322
91.009497869018218807469 11049.32809410104346171 91.009497869018218807469 802.47433300189493366
94.009497869018218807469 11062.83302847419508907 94.009497869018218807469 800.75942713376468873
97.009497869018218807469 11075.68648731717985356 97.009497869018218807469 799.14898986499372313
99.504748934509137825444 11085.91563564254283847 99.504748934509137825444 797.64356575789963699
nan nan nan nan

