Time Pressure difference Time.1 Pressure.1 difference.1
(hr) (psi) (hr) (psi)
0.000200000000020850166 0.22955447488915837 0.000200000000020850166 0.18296683184911353
0.000399999999999067768 0.45902730950484610 0.000399999999999067768 0.47915371976060789
0.000600000000019917934 0.68843130283400011 0.000600000000019917934 0.70115743114011098
0.000799999999998135536 0.91777191931897406 0.000799999999998135536 0.92723623064517247
0.001007140329434719206 1.15523774934682355 0.001007140329434719206 1.16464006230967398
0.001267914553977789183 1.45410289608618037 0.001267914553977789183 1.46572514507879959
0.001596209851982166583 1.83022026268542515 0.001596209851982166583 1.84452475683888317
0.002009509145224797066 2.30352390039100108 0.002009509145224797066 2.32103305745534083
0.002529822128153114136 2.89907324923286636 0.002529822128153114136 2.92035339336896138
0.003184857364431081805 3.64836111539403607 0.003184857364431081805 3.67398507756087778
0.004009497869034817086 4.59095011840622202 0.004009497869034817086 4.62142403558576298
0.005047658755856332391 5.77651719638664840 0.005047658755856332391 5.81214824356764037
0.006354625877790454069 7.26740343957646484 0.006354625877790454069 7.30807172918044134
0.008000000000009777068 9.14178721947380879 0.008000000000009777068 9.18656415282284833
0.010071403294361402914 11.49762225039625818 0.010071403294361402914 11.54414522041883373
0.012679145539692626699 14.45750837702649427 0.012679145539692626699 14.50097186997187393
0.015962098519750611558 18.17469027887886313 0.015962098519750611558 18.20623700776498310
0.020095091452091651263 22.84040540348378556 0.020095091452091651263 22.84458454394896521
0.025298221281360611101 28.69282273304239439 0.025298221281360611101 28.64360553419388111
0.031848573644296607199 36.02782073433377263 0.031848573644296607199 35.88239743880716048
0.040094978690191851456 45.21183352930020760 0.040094978690191851456 44.90101768136580063
0.050476587558435426217 56.69692941979606360 0.050476587558435426217 56.11040758709217613
0.063546258777947173257 71.03814591893117836 0.063546258777947173257 70.00195328458465838
0.080000000000012505552 88.91284742885233072 0.080000000000012505552 87.15522047049854848
0.100714032943542974863 111.14143553727939207 0.100714032943542974863 108.24146975788059422
0.126791455396883634421 138.70804746834213006 0.126791455396883634421 134.01924148518062907
0.159620985197506115583 172.77882556844198803 0.159620985197506115583 165.31651844280895602
0.200950914520774404082 214.71381673219704567 0.200950914520774404082 202.99170826786311750
0.252982212813464002465 266.06645846767804642 0.252982212813464002465 247.86303516460714036
0.318485736442809752589 328.56186977981957398 0.318485736442809752589 300.59326172583854486
0.400949786901833249431 404.04186951367148595 0.400949786901833249431 361.51490966909233293
0.504765875584169521062 494.36119274172159521 0.504765875584169521062 430.38242736377208075
0.635462587779443310865 601.21686373993077268 0.635462587779443310865 506.04644863045865577
0.800000000000011368684 725.89358537984833220 0.800000000000011368684 586.06929205853168696
1.007140329435344483500 868.91707752383217667 1.007140329435344483500 666.35088866030901045
1.267914553968907398485 1029.63186255659957169 1.267914553968907398485 740.91643385684528766
1.596209851975117999245 1205.76720642933150884 1.596209851975117999245 802.11271308158165994
2.009509145207687197399 1393.12271555901043030 2.009509145207687197399 841.49951473050793993
2.529822128134725289783 1585.56734203545374839 2.529822128134725289783 851.58533583909866138
3.184857364427983839050 1775.54428422770411089 3.184857364427983839050 828.15341091495429282
4.009497869018204596614 1955.14450060488638883 4.009497869018204596614 772.49264171555080338
5.009497869018190385759 2112.52544999610745435 5.009497869018190385759 694.91729817520422330
6.009497869018190385759 2226.32648478057672037 6.009497869018190385759 620.94301607636987228
7.009497869018204596614 2311.39299856772368003 7.009497869018204596614 556.08927184432059221
8.009497869018190385759 2376.92517224211997018 8.009497869018190385759 501.60987035040767523
9.009497869018204596614 2428.79464310349112566 9.009497869018204596614 457.25448450193141525
10.009497869018190385759 2470.85129717894187706 10.009497869018190385759 421.54166670826981544
11.009497869018190385759 2505.68783787700704124 11.009497869018190385759 391.36548443940756670
12.009497869018204596614 2535.09027320903169311 12.009497869018204596614 366.61942012772846056
13.009497869018190385759 2560.31728903754583371 13.009497869018190385759 346.26331535835436171
14.009497869018204596614 2582.27426062240192550 14.009497869018204596614 329.44159219178942521
15.009497869018190385759 2601.62493833558937695 15.009497869018190385759 315.46311599328129205
16.009497869018190385759 2618.86463294185023187 16.009497869018190385759 303.77598448897180106
17.009497869018204596614 2634.36913782505689596 17.009497869018204596614 294.20207754746019191
18.009497869018190385759 2648.42805610608547795 18.009497869018190385759 285.82969639671881623
19.009497869018204596614 2661.26842098006727610 19.009497869018204596614 279.03311101379142656
20.009497869018190385759 2673.06920756858016830 20.009497869018190385759 272.85729948699486158
21.009497869018190385759 2683.97426974935660837 21.009497869018190385759 267.53163967201351170
22.009497869018204596614 2694.10130307131612426 22.009497869018204596614 262.90795665245605051
23.009497869018190385759 2703.54560607887879087 23.009497869018190385759 258.99373342426861200
24.009497869018204596614 2712.38712743786800274 24.009497869018204596614 255.43011761545872673
25.009497869018204596614 2720.69252613513572214 25.009497869018204596614 252.28190005616929170
26.009497869018190385759 2728.51794518865062855 26.009497869018190385759 249.62048250509218406
27.009497869018204596614 2735.91156887663009911 27.009497869018204596614 247.10596614282906103
28.009497869018190385759 2742.91430684822034891 28.009497869018190385759 244.85262366783933885
29.009497869018190385759 2749.56186649415712964 29.009497869018190385759 242.88171663077471862
30.009497869018190385759 2755.88512725637792755 30.009497869018190385759 241.03596620713378229
31.009497869018218807469 2761.91104443924859879 31.009497869018218807469 239.35766846929021767
32.009497869018190385759 2767.66369953297589745 32.009497869018190385759 237.82706818193918252
33.009497869018190385759 2773.16379710158980743 33.009497869018190385759 236.48180014819359940
34.009497869018218807469 2778.43045989822030606 34.009497869018218807469 235.18290990045849753
35.009497869018190385759 2783.48015309563834307 35.009497869018190385759 234.01605567115404938
36.009497869018190385759 2788.32789921621224494 36.009497869018190385759 232.90278689569663584
37.009497869018190385759 2792.98742488285142826 37.009497869018190385759 231.86840482702595523
38.009497869018218807469 2797.47069376430408738 38.009497869018218807469 230.90535918677417726
39.009497869018190385759 2801.78888050268642473 39.009497869018190385759 230.02239952667258649
40.009497869018190385759 2805.95215088164695771 40.009497869018190385759 229.22765043801723550
41.009497869018218807469 2809.96954340298361785 41.009497869018218807469 228.41074125704540165
42.009497869018190385759 2813.84953125906122295 42.009497869018190385759 227.67483062089149826
43.009497869018190385759 2817.59992924856760510 43.009497869018190385759 226.95077578833573284
44.009497869018218807469 2821.22770664460676926 44.009497869018218807469 226.29267188901772556
46.009497869018190385759 2828.14124659390972738 46.009497869018190385759 225.07153837082503856
48.009497869018218807469 2834.63690805382248072 48.009497869018218807469 223.94610375325302698
50.009497869018190385759 2840.75488444337815963 50.009497869018190385759 222.93693365150090813
52.009497869018190385759 2846.52995321837852316 52.009497869018190385759 222.00979086907716464
54.009497869018218807469 2851.99255117454958963 54.009497869018218807469 221.14268734222531521
56.009497869018190385759 2857.16927882392428728 56.009497869018190385759 220.34109405157715855
58.009497869018218807469 2862.08370419243874494 58.009497869018218807469 219.62384496253801558
60.009497869018190385759 2866.75666456554654360 60.009497869018190385759 218.92622870703436888
62.009497869018190385759 2871.20673035420759334 62.009497869018190385759 218.27451051243949109
64.009497869018218807469 2875.45054305660005411 64.009497869018218807469 217.66330567508774152
66.009497869018190385759 2879.50296795741132883 66.009497869018190385759 217.09448516835556120
68.009497869018190385759 2883.37749578120610749 68.009497869018190385759 216.56256378451541877
70.009497869018190385759 2887.08622879677932360 70.009497869018190385759 216.04866522068030577
72.009497869018190385759 2890.64018946037595015 72.009497869018190385759 215.56686945535730615
74.009497869018218807469 2894.04941315177848082 74.009497869018218807469 215.10693987447712061
76.009497869018190385759 2897.32299573716136365 76.009497869018190385759 214.66944809499707958
78.009497869018190385759 2900.46929795249934614 78.009497869018190385759 214.25461103385399042
80.009497869018218807469 2903.49596899324160404 80.009497869018218807469 213.85719024888481954
82.009497869018190385759 2906.41000532668340384 82.009497869018190385759 213.47669319261851228
84.009497869018218807469 2909.21788100726280391 84.009497869018218807469 213.10932912838794095
86.009497869018190385759 2911.92556058655964080 86.009497869018190385759 212.76178819863631020
88.009497869018190385759 2914.53852734243901068 88.009497869018190385759 212.42447474591256196
91.009497869018218807469 2918.29143920754859209 91.009497869018218807469 211.94537407514164329
94.009497869018218807469 2921.85829268792122093 94.009497869018218807469 211.49244199896560303
97.009497869018218807469 2925.25308181774335026 97.009497869018218807469 211.06710162941462272
99.504748934509137825444 2927.95475161468084480 99.504748934509137825444 210.66949679347393953
nan nan nan nan

