Time Pressure difference Time.1 Pressure.1 difference.1
(hr) (psi) (hr) (psi)
0.000200000000020850166 0.06736924806529648 0.000200000000020850166 0.05369678760789201
0.000399999999999067768 0.13471453648511786 0.000399999999999067768 0.14062120036452622
0.000600000000019917934 0.20203962148389135 0.000600000000019917934 0.20577446348677170
0.000799999999998135536 0.26934610675665543 0.000799999999998135536 0.27212367638499629
0.001007140329434719206 0.33903716556917640 0.001007140329434719206 0.34179654002566517
0.001267914553977789183 0.42674758906877036 0.001267914553977789183 0.43015846649051726
0.001596209851982166583 0.53712985970115745 0.001596209851982166583 0.54132791776793310
0.002009509145224797066 0.67603418815822858 0.002009509145224797066 0.68117274512276305
0.002529822128153114136 0.85081497531834116 0.002529822128153114136 0.85706023501045592
0.003184857364431081805 1.07071467516998897 0.003184857364431081805 1.07823475102330102
0.004009497869034817086 1.34734405648878264 0.004009497869034817086 1.35628748870451732
0.005047658755856332391 1.69528222067869039 0.005047658755856332391 1.70573915843832946
0.006354625877790454069 2.13282492248439715 0.006354625877790454069 2.14476018138991220
0.008000000000009777068 2.68291581441079119 0.008000000000009777068 2.69605687093714019
0.010071403294361402914 3.37430218218151046 0.010071403294361402914 3.38795566251422331
0.012679145539692626699 4.24296441499690591 0.012679145539692626699 4.25572000531783257
0.015962098519750611558 5.33387649488836235 0.015962098519750611558 5.34313477401798487
0.020095091452091651263 6.70316245537024091 0.020095091452091651263 6.70438894224589177
0.025298221281360611101 8.42071971513200701 0.025298221281360611101 8.40627553720907272
0.031848573644296607199 10.57338217203273700 0.031848573644296607199 10.53070359617166751
0.040094978690191851456 13.26869027490332265 0.040094978690191851456 13.17747258040083125
0.050476587558435426217 16.63931624276623467 0.050476587558435426217 16.46718483534226962
0.063546258777947173257 20.84815151968632563 0.063546258777947173257 20.54405150743245301
0.080000000000012505552 26.09398783238057717 0.080000000000012505552 25.57816252938544466
0.100714032943542974863 32.61759521202765200 0.100714032943542974863 31.76651829850844067
0.126791455396883634421 40.70779653962214439 0.126791455396883634421 39.33173391412910291
0.159620985197506115583 50.70682924291232752 0.159620985197506115583 48.51680432560698364
0.200950914520774404082 63.01383751923172838 0.200950914520774404082 59.57365351339461057
0.252982212813464002465 78.08472150681856760 0.252982212813464002465 72.74241249396079922
0.318485736442809752589 96.42576613103400973 0.318485736442809752589 88.21758768040915299
0.400949786901833249431 118.57750518336011680 0.400949786901833249431 106.09676696810318219
0.504765875584169521062 145.08426308724435216 0.504765875584169521062 126.30788629154180569
0.635462587779443310865 176.44407957584922997 0.635462587779443310865 148.51363166328678744
0.800000000000011368684 213.03398701365114221 0.800000000000011368684 171.99859658239518012
1.007140329435344483500 255.00827275155947405 1.007140329435344483500 195.55949993291679334
1.267914553968907398485 302.17456835900208034 1.267914553968907398485 217.44286645798717927
1.596209851975117999245 353.86646275643425952 1.596209851975117999245 235.40264405655113933
2.009509145207687197399 408.85123174014438518 2.009509145207687197399 246.96181410569255377
2.529822128134725289783 465.32954603214409417 2.529822128134725289783 249.92178334408333740
3.184857364427983839050 521.08364863204360518 3.184857364427983839050 243.04502276851917486
4.009497869018204596614 573.79240778621669961 4.009497869018204596614 226.70979702521603372
5.009497869018190385759 619.98029510755327465 5.009497869018190385759 203.94312011663598128
6.009497869018190385759 653.37842488125613727 6.009497869018190385759 182.23327645719550105
7.009497869018204596614 678.34359740574495845 7.009497869018204596614 163.20011238909410167
8.009497869018190385759 697.57586576670917111 8.009497869018190385759 147.21159238544572645
9.009497869018204596614 712.79842786732899640 9.009497869018204596614 134.19425088643637878
10.009497869018190385759 725.14114156338519024 10.009497869018190385759 123.71331522960093707
11.009497869018190385759 735.36490894216501601 11.009497869018190385759 114.85726173765222313
12.009497869018204596614 743.99388452873756705 12.009497869018204596614 107.59482982009420482
13.009497869018190385759 751.39746526101896507 13.009497869018190385759 101.62075559429963789
14.009497869018204596614 757.84135909570488820 14.009497869018204596614 96.68394553454690765
15.009497869018190385759 763.52036233761850781 15.009497869018190385759 92.58156665020212017
16.009497869018190385759 768.57983792858647121 16.009497869018190385759 89.15164762176347324
17.009497869018204596614 773.13007305735357022 17.009497869018204596614 86.34191406284156756
18.009497869018190385759 777.25605994417730926 18.009497869018190385759 83.88480220338487925
19.009497869018204596614 781.02442789632425502 19.009497869018204596614 81.89015214535181997
20.009497869018190385759 784.48770222121368079 20.009497869018190385759 80.07768571900936649
21.009497869018190385759 787.68810090470242358 21.009497869018190385759 78.51472033852570576
22.009497869018204596614 790.66016503179923802 22.009497869018204596614 77.15776988713383844
23.009497869018190385759 793.43186265358394849 23.009497869018190385759 76.00903046147013242
24.009497869018204596614 796.02665696546125673 24.009497869018204596614 74.96318669149331981
25.009497869018204596614 798.46411093096378409 25.009497869018204596614 74.03925327735402107
26.009497869018190385759 800.76070130536493252 26.009497869018190385759 73.25818508301618692
27.009497869018204596614 802.93056912683721293 27.009497869018204596614 72.52022919409112944
28.009497869018190385759 804.98572048806465773 28.009497869018190385759 71.85892216338763205
29.009497869018190385759 806.93663473198091651 29.009497869018190385759 71.28050379381431867
30.009497869018190385759 808.79237430350212890 30.009497869018190385759 70.73881616948490603
31.009497869018218807469 810.56084999847519157 31.009497869018218807469 70.24627226816126324
32.009497869018190385759 812.24912921076463590 32.009497869018190385759 69.79707435774301416
33.009497869018190385759 813.86328827981446921 33.009497869018190385759 69.40226743479594518
34.009497869018218807469 815.40893931795596927 34.009497869018218807469 69.02107138383021834
35.009497869018190385759 816.89091449545924206 35.009497869018190385759 68.67862503392565543
36.009497869018190385759 818.31362259606225962 36.009497869018190385759 68.35190484982400960
37.009497869018190385759 819.68109208518467312 37.009497869018190385759 68.04833619923587662
38.009497869018218807469 820.99683403952406024 38.009497869018218807469 67.76570323959677467
39.009497869018190385759 822.26412797361456342 39.009497869018190385759 67.50657377413217830
40.009497869018190385759 823.48595732396154290 40.009497869018190385759 67.27333219376592410
41.009497869018218807469 824.66497469435375933 41.009497869018218807469 67.03358710804592135
42.009497869018190385759 825.80366678255063562 42.009497869018190385759 66.81761333439207817
43.009497869018190385759 826.90432706207957381 43.009497869018190385759 66.60511898135939646
44.009497869018218807469 827.96900086309119615 44.009497869018218807469 66.41197979351606762
46.009497869018190385759 829.99797454386475692 46.009497869018190385759 66.05360365230734487
48.009497869018218807469 831.90430997231737820 48.009497869018218807469 65.72331305801991164
50.009497869018190385759 833.69980304316527508 50.009497869018190385759 65.42714357163613670
52.009497869018190385759 835.39466018365465061 52.009497869018190385759 65.15504732027264367
54.009497869018218807469 836.99781393166119869 54.009497869018218807469 64.90057128521830521
56.009497869018190385759 838.51707095919516632 56.009497869018190385759 64.66532108035416115
58.009497869018218807469 839.95934796952019497 58.009497869018218807469 64.45482406509268003
60.009497869018190385759 841.33076025293212297 60.009497869018190385759 64.25008885967312722
62.009497869018190385759 842.63675782134350811 62.009497869018190385759 64.05882373734637270
64.009497869018218807469 843.88222459269775300 64.009497869018218807469 63.87944840464531637
66.009497869018190385759 845.07152320489240083 66.009497869018190385759 63.71251195158260572
68.009497869018190385759 846.20861289231038427 68.009497869018190385759 63.55640458893388001
70.009497869018190385759 847.29704540775048827 70.009497869018190385759 63.40558653215618534
72.009497869018190385759 848.34005560250170674 72.009497869018190385759 63.26418994885486313
74.009497869018218807469 849.34058864236988029 74.009497869018218807469 63.12921061533566558
76.009497869018190385759 850.30131396634089924 76.009497869018190385759 63.00081628874914230
78.009497869018190385759 851.22468526866839511 78.009497869018190385759 62.87907062950063164
80.009497869018218807469 852.11294742192956164 80.009497869018218807469 62.76243626869445791
82.009497869018190385759 852.96815373717879538 82.009497869018190385759 62.65076865435543141
84.009497869018218807469 853.79220420865317465 84.009497869018218807469 62.54295528767907086
86.009497869018190385759 854.58684930257732049 86.009497869018190385759 62.44095958003456559
88.009497869018190385759 855.35369824180281739 88.009497869018190385759 62.34196541456128671
91.009497869018218807469 856.45509628917181999 91.009497869018218807469 62.20135978292199752
94.009497869018218807469 857.50189024536825855 94.009497869018218807469 62.06843406491382353
97.009497869018218807469 858.49818705520738149 97.009497869018218807469 61.94360591298036667
99.504748934509137825444 859.29106840865631511 99.504748934509137825444 61.82691753721518069
nan nan nan nan

