Time Pressure difference Time.1 Pressure.1 difference.1
(hr) (psi) (hr) (psi)
0.000200000000020850166 0.70945640246540609 0.000200000000020850166 0.56547357814236887
0.000399999999999067768 1.41866048915809317 0.000399999999999067768 1.48086276433260333
0.000600000000019917934 2.12765181636739920 0.000600000000019917934 2.16698293029896627
0.000799999999998135536 2.83644727238798833 0.000799999999998135536 2.86569748094323229
0.001007140329434719206 3.57035434852478417 0.001007140329434719206 3.59941294619620189
0.001267914553977789183 4.49402090710692725 0.001267914553977789183 4.52994039402976778
0.001596209851982166583 5.65644160895169446 0.001596209851982166583 5.70065078834625893
0.002009509145224797066 7.11922422838233260 0.002009509145224797066 7.17333767394712218
0.002529822128153114136 8.95981696230302482 0.002529822128153114136 9.02558494399900013
0.003184857364431081805 11.27555083851852658 0.003184857364431081805 11.35474373608488641
0.004009497869034817086 14.18869728623372417 0.004009497869034817086 14.28287935635744788
0.005047658755856332391 17.85278684245583847 0.005047658755856332391 17.96290743392463085
0.006354625877790454069 22.46048961579248271 0.006354625877790454069 22.58617820648882457
0.008000000000009777068 28.25342209496796286 0.008000000000009777068 28.39180877665901903
0.010071403294361402914 35.53431804198553579 0.010071403294361402914 35.67810098919299122
0.012679145539692626699 44.68208204928841099 0.012679145539692626699 44.81640943871742166
0.015962098519750611558 56.17032901407126388 0.015962098519750611558 56.26782669428816064
0.020095091452091651263 70.59009351149155975 0.020095091452091651263 70.60300947821907869
0.025298221281360611101 88.67745576552594855 0.025298221281360611101 88.52534608937456539
0.031848573644296607199 111.34685176227068837 0.031848573644296607199 110.89740947573373830
0.040094978690191851456 139.73077536410534094 0.040094978690191851456 138.77017421088777382
0.050476587558435426217 175.22637969234074262 0.050476587558435426217 173.41368721662911412
0.063546258777947173257 219.54905242336340621 0.063546258777947173257 216.34661649185039778
0.080000000000012505552 274.79224223482265188 0.080000000000012505552 269.36015601933064545
0.100714032943542974863 343.49146562789610471 0.100714032943542974863 334.52889022997158008
0.126791455396883634421 428.68827713947757729 0.126791455396883634421 414.19714850311260079
0.159620985197506115583 533.98673264449644194 0.159620985197506115583 510.92387765114511922
0.200950914520774404082 663.59016548030456306 0.200950914520774404082 627.36205490031613863
0.252982212813464002465 822.29959809032391149 0.252982212813464002465 766.04046737467353978
0.318485736442809752589 1015.44664826879034081 0.318485736442809752589 929.00743569616054174
0.400949786901833249431 1248.72360396797762405 0.400949786901833249431 1117.29064473817288672
0.504765875584169521062 1527.86267177061063194 0.504765875584169521062 1330.13119761339703473
0.635462587779443310865 1858.10864047159748225 0.635462587779443310865 1563.97688652819283561
0.800000000000011368684 2243.43198669931416589 0.800000000000011368684 1811.29386277509979664
1.007140329435344483500 2685.45748959358297725 1.007140329435344483500 2059.41053633059254935
1.267914553968907398485 3182.15934333615723517 1.267914553968907398485 2289.86129739090210933
1.596209851975117999245 3726.51966334862299846 1.596209851975117999245 2478.99327629923618588
2.009509145207687197399 4305.55679844868063810 2.009509145207687197399 2600.72132632291049958
2.529822128134725289783 4900.32225636319617479 2.529822128134725289783 2631.89236040127252636
3.184857364427983839050 5487.46113929794046271 3.184857364427983839050 2559.47412866107288210
4.009497869018204596614 6042.52992397089838050 4.009497869018204596614 2387.45008472233666907
5.009497869018190385759 6528.92829292275200714 5.009497869018190385759 2147.69730196901855379
6.009497869018190385759 6880.63946202113038453 6.009497869018190385759 1919.07388664182417415
7.009497869018204596614 7143.54430354445139528 7.009497869018204596614 1718.63822059132417053
8.009497869018190385759 7346.07670986423363502 8.009497869018190385759 1550.26528771339758350
9.009497869018204596614 7506.38344408434113575 9.009497869018204596614 1413.18143217444753645
10.009497869018190385759 7636.36288584651356359 10.009497869018190385759 1302.80812210925432737
11.009497869018190385759 7744.02799169958962011 11.009497869018190385759 1209.54622545947336221
12.009497869018204596614 7834.89856176559351297 12.009497869018204596614 1133.06654119185623131
13.009497869018190385759 7912.86466503270548856 13.009497869018190385759 1070.15437681404432624
14.009497869018204596614 7980.72443590908915212 14.009497869018204596614 1018.16550050578405262
15.009497869018190385759 8040.52924782702120865 15.009497869018190385759 974.96390558793098080
16.009497869018190385759 8093.80989818622492749 16.009497869018190385759 938.84389409091647849
17.009497869018204596614 8141.72780639410575532 17.009497869018204596614 909.25497155066489086
18.009497869018190385759 8185.17801398004030489 18.009497869018190385759 883.37946024058396688
19.009497869018204596614 8224.86218513042695122 19.009497869018204596614 862.37407135784087586
20.009497869018190385759 8261.33345672463292431 20.009497869018190385759 843.28723355944430295
21.009497869018190385759 8295.03642063840925402 21.009497869018190385759 826.82785739212863518
22.009497869018204596614 8326.33482434721918253 22.009497869018204596614 812.53799646574270810
23.009497869018190385759 8355.52319559885472700 23.009497869018190385759 800.44077757572870269
24.009497869018204596614 8382.84862211775907781 24.009497869018204596614 789.42713886226920295
25.009497869018204596614 8408.51711881619849009 25.009497869018204596614 779.69732155040730959
26.009497869018190385759 8432.70220016637358640 26.009497869018190385759 771.47199846682474345
27.009497869018204596614 8455.55278352089044347 27.009497869018204596614 763.70068521678683737
28.009497869018190385759 8477.19530341134668561 28.009497869018190385759 756.73655068357584241
29.009497869018190385759 8497.74011637505827821 29.009497869018190385759 750.64530538424219230
30.009497869018190385759 8517.28265778873173986 30.009497869018190385759 744.94086657494608517
31.009497869018218807469 8535.90623516912637569 31.009497869018218807469 739.75395363878465105
32.009497869018190385759 8553.68527428126253653 32.009497869018190385759 735.02351144635554192
33.009497869018190385759 8570.68376423063818947 33.009497869018190385759 730.86585335655479412
34.009497869018218807469 8586.96080541007904685 34.009497869018218807469 726.85152951119971476
35.009497869018190385759 8602.56728474847659527 35.009497869018190385759 723.24527350541461601
36.009497869018190385759 8617.54963054865584127 36.009497869018190385759 719.80462761604792377
37.009497869018190385759 8631.95026603287078615 37.009497869018190385759 716.60778738207659444
38.009497869018218807469 8645.80616587301301479 38.009497869018218807469 713.63141806637088393
39.009497869018190385759 8659.15186619127416634 39.009497869018190385759 710.90256085598446134
40.009497869018190385759 8672.01878515233511280 40.009497869018190385759 708.44632544793000761
41.009497869018218807469 8684.43485696646712313 41.009497869018218807469 705.92160250818733402
42.009497869018190385759 8696.42626871007087175 42.009497869018190385759 703.64721202761040786
43.009497869018190385759 8708.01717264140461339 43.009497869018190385759 701.40946285308109509
44.009497869018218807469 8719.22910785452768323 44.009497869018218807469 699.37554029468151384
46.009497869018190385759 8740.59595414711839112 46.009497869018190385759 695.60152981997737243
48.009497869018218807469 8760.67131365909517626 48.009497869018218807469 692.12328442581451782
50.009497869018190385759 8779.57940735580268665 50.009497869018190385759 689.00436378525455439
52.009497869018190385759 8797.42771773650929390 52.009497869018190385759 686.13895511348846412
54.009497869018218807469 8814.31031214453105349 54.009497869018218807469 683.45910254680507023
56.009497869018190385759 8830.30940158263547346 56.009497869018190385759 680.98171458693957447
58.009497869018218807469 8845.49782491358928382 58.009497869018218807469 678.76499910523523340
60.009497869018190385759 8859.93998142902455584 60.009497869018190385759 676.60896046050845598
62.009497869018190385759 8873.69326446427112387 62.009497869018190385759 674.59477343156117968
64.009497869018218807469 8886.80910589594168414 64.009497869018218807469 672.70579616249938226
66.009497869018190385759 8899.33344807127468812 66.009497869018190385759 670.94781104567869079
68.009497869018190385759 8911.30798514988600800 68.009497869018190385759 669.30386560939007268
70.009497869018190385759 8922.77012015816217172 70.009497869018190385759 667.71562113492859680
72.009497869018190385759 8933.75391887572732230 72.009497869018190385759 666.22659291818752081
74.009497869018218807469 8944.29039644372096518 74.009497869018218807469 664.80514388742381016
76.009497869018190385759 8954.40766436158992292 76.009497869018190385759 663.45304067040763130
78.009497869018190385759 8964.13156215029812302 78.009497869018190385759 662.17095366622265828
80.009497869018218807469 8973.48573025809855608 80.009497869018218807469 660.94269305180705487
82.009497869018190385759 8982.49179182485931960 82.009497869018190385759 659.76673656994057637
84.009497869018218807469 8991.16975543186708819 84.009497869018218807469 658.63136864679313476
86.009497869018190385759 8999.53805500121598016 86.009497869018190385759 657.55726570085789717
88.009497869018190385759 9007.61363704022005550 88.009497869018190385759 656.51477158791090005
91.009497869018218807469 9019.21231030448871024 91.009497869018218807469 655.03407277570943279
94.009497869018218807469 9030.23595529998965503 94.009497869018218807469 653.63425009100592433
97.009497869018218807469 9040.72782170483696973 97.009497869018218807469 652.31970177496611996
99.504748934509137825444 9049.07754756276335684 99.504748934509137825444 651.09087233635250413
nan nan nan nan

