Time Pressure difference Time.1 Pressure.1 difference.1
(hr) (psi) (hr) (psi)
0.000200000000020850166 0.68866342466747510 0.000200000000020850166 0.54890049554734055
0.000399999999999067768 1.37708192851453837 0.000399999999999067768 1.43746115928182383
0.000600000000019917934 2.06529390850200034 0.000600000000019917934 2.10347229342033337
0.000799999999998135536 2.75331575795692229 0.000799999999998135536 2.78170869193551740
0.001007140329434719206 3.46571324804047043 0.001007140329434719206 3.49392018692902129
0.001267914553977789183 4.36230868825854134 0.001267914553977789183 4.39717543523639876
0.001596209851982166583 5.49066078805627544 0.001596209851982166583 5.53357427051664885
0.002009509145224797066 6.91057170117300323 0.002009509145224797066 6.96309917236602249
0.002529822128153114136 8.69721974769860040 0.002529822128153114136 8.76106018010688281
0.003184857364431081805 10.94508334618210910 0.003184857364431081805 11.02195523268263422
0.004009497869034817086 13.77285035521866696 0.004009497869034817086 13.86427210675728894
0.005047658755856332391 17.32955158915994431 0.005047658755856332391 17.43644473070292378
0.006354625877790454069 21.80221031872939719 0.006354625877790454069 21.92421518754132137
0.008000000000009777068 27.42536165842142282 0.008000000000009777068 27.55969245846854321
0.010071403294361402914 34.49286675118877099 0.010071403294361402914 34.63243566125650830
0.012679145539692626699 43.37252513107948459 0.012679145539692626699 43.50291560991561823
0.015962098519750611558 54.52407083663658227 0.015962098519750611558 54.61871102329495642
0.020095091452091651263 68.52121621045135669 0.020095091452091651263 68.53375363184689206
0.025298221281360611101 86.07846819912718672 0.025298221281360611101 85.93081660258164334
0.031848573644296607199 108.08346220300131790 0.031848573644296607199 107.64719231642149566
0.040094978690191851456 135.63550058790062280 0.040094978690191851456 134.70305304409737346
0.050476587558435426217 170.09078825938820501 0.050476587558435426217 168.33122276127656392
0.063546258777947173257 213.11443775679359192 0.063546258777947173257 210.00585985375397513
0.080000000000012505552 266.73854228655699217 0.080000000000012505552 261.46566141149560281
0.100714032943542974863 333.42430661183817620 0.100714032943542974863 324.72440927364181107
0.126791455396883634421 416.12414240502636176 0.126791455396883634421 402.05772445554191563
0.159620985197506115583 518.33647670532604934 0.159620985197506115583 495.94955532842692492
0.200950914520774404082 644.14145019659099489 0.200950914520774404082 608.97512480358932407
0.252982212813464002465 798.19937540303419610 0.252982212813464002465 743.58910549382142108
0.318485736442809752589 985.68560933945877878 0.318485736442809752589 901.77978517751569143
0.400949786901833249431 1212.12560854101457153 0.400949786901833249431 1084.54472900727705564
0.504765875584169521062 1483.08357822516472879 0.504765875584169521062 1291.14728209131635595
0.635462587779443310865 1803.65059121979220436 0.635462587779443310865 1518.13934589137602416
0.800000000000011368684 2177.68075613954533765 0.800000000000011368684 1758.20787617559517457
1.007140329435344483500 2606.75123257149653000 1.007140329435344483500 1999.05266598092680397
1.267914553968907398485 3088.89558766979871507 1.267914553968907398485 2222.74930157053586299
1.596209851975117999245 3617.30161928799452653 1.596209851975117999245 2406.33813924474497981
2.009509145207687197399 4179.36814667703129089 2.009509145207687197399 2524.49854419152370610
2.529822128134725289783 4756.70202610636169993 2.529822128134725289783 2554.75600751729598414
3.184857364427983839050 5326.63285268311210530 3.184857364427983839050 2484.46023274486287846
4.009497869018204596614 5865.43350181465848436 4.009497869018204596614 2317.47792514665252384
5.009497869018190385759 6337.57634998832236306 5.009497869018190385759 2084.75189452561244252
6.009497869018190385759 6678.97945434173016110 6.009497869018190385759 1862.82904822910950315
7.009497869018204596614 6934.17899570317240432 7.009497869018204596614 1668.26781553296200400
8.009497869018190385759 7130.77551672636036528 8.009497869018190385759 1504.82961105122285517
9.009497869018204596614 7286.38392931047474121 9.009497869018204596614 1371.76345350579413207
10.009497869018190385759 7412.55389153682608594 10.009497869018190385759 1264.62500012480950318
11.009497869018190385759 7517.06351363102021423 11.009497869018190385759 1174.09645331822275693
12.009497869018204596614 7605.27081962709507934 12.009497869018204596614 1099.85826038318532483
13.009497869018190385759 7680.95186711263795587 13.009497869018190385759 1038.78994607506297143
14.009497869018204596614 7746.82278186720577651 14.009497869018204596614 988.32477657536833249
15.009497869018190385759 7804.87481500676767610 15.009497869018190385759 946.38934797984381930
16.009497869018190385759 7856.59389882555115037 16.009497869018190385759 911.32795346691546001
17.009497869018204596614 7903.10741347516886890 17.009497869018204596614 882.60623264238051888
18.009497869018190385759 7945.28416831825688860 18.009497869018190385759 857.48908919015650554
19.009497869018204596614 7983.80526294020273781 19.009497869018204596614 837.09933304137416599
20.009497869018190385759 8019.20762270573959540 20.009497869018190385759 818.57189846098458474
21.009497869018190385759 8051.92280924806891562 21.009497869018190385759 802.59491901604053510
22.009497869018204596614 8082.30390921394791803 22.009497869018204596614 788.72386995736803783
23.009497869018190385759 8110.63681823663500836 23.009497869018190385759 776.98120027280583599
24.009497869018204596614 8137.16138231360400823 24.009497869018204596614 766.29035284637620862
25.009497869018204596614 8162.07757840540853067 25.009497869018204596614 756.84570016850784668
26.009497869018190385759 8185.55383556595188566 26.009497869018190385759 748.86144751527660901
27.009497869018204596614 8207.73470662988984259 27.009497869018204596614 741.31789842848706940
28.009497869018190385759 8228.74292054466059199 28.009497869018190385759 734.55787100351790286
29.009497869018190385759 8248.68559948247093416 29.009497869018190385759 728.64514989232407061
30.009497869018190385759 8267.65538176913287316 30.009497869018190385759 723.10789862140131845
31.009497869018218807469 8285.73313331774625112 31.009497869018218807469 718.07300540787070986
32.009497869018190385759 8302.99109859892814711 32.009497869018190385759 713.48120454581749073
33.009497869018190385759 8319.49139130476942228 33.009497869018190385759 709.44540044458085504
34.009497869018218807469 8335.29137969466137292 34.009497869018218807469 705.54872970137557786
35.009497869018190385759 8350.44045928691593872 35.009497869018190385759 702.04816701346226182
36.009497869018190385759 8364.98369764863673481 36.009497869018190385759 698.70836068708990751
37.009497869018190385759 8378.96227464855473954 37.009497869018190385759 695.60521448107783726
38.009497869018218807469 8392.41208129291408113 38.009497869018218807469 692.71607756032256020
39.009497869018190385759 8405.36664150806063844 39.009497869018190385759 690.06719858001770262
40.009497869018190385759 8417.85645264494087314 40.009497869018190385759 687.68295131405159282
41.009497869018218807469 8429.90863020895085356 41.009497869018218807469 685.23222377113620496
42.009497869018190385759 8441.54859377718275937 42.009497869018190385759 683.02449186267449477
43.009497869018190385759 8452.79978774570190581 43.009497869018190385759 680.85232736500722694
44.009497869018218807469 8463.68311993381939828 44.009497869018218807469 678.87801566705320511
46.009497869018190385759 8484.42373978172872739 46.009497869018190385759 675.21461511247514409
48.009497869018218807469 8503.91072416146744217 48.009497869018218807469 671.83831125975905252
50.009497869018190385759 8522.26465333013402415 50.009497869018190385759 668.81080095450272438
52.009497869018190385759 8539.58985965513602423 52.009497869018190385759 666.02937260723149393
54.009497869018218807469 8555.97765352364876890 54.009497869018218807469 663.42806202667600246
56.009497869018190385759 8571.50783647177195235 56.009497869018190385759 661.02328215473153250
58.009497869018218807469 8586.25111257731805381 58.009497869018218807469 658.87153488761407516
60.009497869018190385759 8600.26999369664008555 60.009497869018190385759 656.77868612110307822
62.009497869018190385759 8613.62019106262232526 62.009497869018190385759 654.82353153731844486
64.009497869018218807469 8626.35162916979970760 64.009497869018218807469 652.98991702526325298
66.009497869018190385759 8638.50890387223444122 66.009497869018190385759 651.28345550506662676
68.009497869018190385759 8650.13248734361695824 68.009497869018190385759 649.68769135354625632
70.009497869018190385759 8661.25868639033797081 70.009497869018190385759 648.14599566204094572
72.009497869018190385759 8671.92056838112694095 72.009497869018190385759 646.70060836607194688
74.009497869018218807469 8682.14823945533498772 74.009497869018218807469 645.32081962343136183
76.009497869018190385759 8691.96898721148500044 76.009497869018190385759 644.00834428499126716
78.009497869018190385759 8701.40789385750031215 78.009497869018190385759 642.76383310156188600
80.009497869018218807469 8710.48790697972435737 80.009497869018218807469 641.57157074665440177
82.009497869018190385759 8719.23001598005066626 82.009497869018190385759 640.43007957785550843
84.009497869018218807469 8727.65364302178750222 84.009497869018218807469 639.32798738516385129
86.009497869018190385759 8735.77668175967846764 86.009497869018190385759 638.28536459590895902
88.009497869018190385759 8743.61558202731794154 88.009497869018190385759 637.27342423773768587
91.009497869018218807469 8754.87431762264532153 91.009497869018218807469 635.83612222542478776
94.009497869018218807469 8765.57487806376593653 94.009497869018218807469 634.47732599689675226
97.009497869018218807469 8775.75924545322959602 97.009497869018218807469 633.20130488824372605
99.504748934509137825444 8783.86425484404207964 99.504748934509137825444 632.00849038042190386
nan nan nan nan

