Time Pressure difference Time.1 Pressure.1 difference.1
(hr) (psi) (hr) (psi)
0.000200000000020850166 0.40920580306328236 0.000200000000020850166 0.32615826547015891
0.000399999999999067768 0.81826607346516045 0.000399999999999067768 0.85414358739934448
0.000600000000019917934 1.22720362679104378 0.000600000000019917934 1.24988933377150224
0.000799999999998135536 1.63602820400338866 0.000799999999998135536 1.65289936767182932
0.001007140329434719206 2.05933685753129403 0.001007140329434719206 2.07609750237811452
0.001267914553977789183 2.59209646693623474 0.001267914553977789183 2.61281438905351182
0.001596209851982166583 3.26256655522184458 0.001596209851982166583 3.28806587088670499
0.002009509145224797066 4.10628173547961062 0.002009509145224797066 4.13749371111604258
0.002529822128153114136 5.16791318341510930 0.002529822128153114136 5.20584735339684368
0.003184857364431081805 6.50360024918067392 0.003184857364431081805 6.54927774695634746
0.004009497869034817086 8.18386760237630995 0.004009497869034817086 8.23819067213114309
0.005047658755856332391 10.29726978486315581 0.005047658755856332391 10.36078599940318590
0.006354625877790454069 12.95493656620152478 0.006354625877790454069 13.02743221288687359
0.008000000000009777068 16.29622939123591863 0.008000000000009777068 16.37604914198855610
0.010071403294361402914 20.49576140288028370 0.010071403294361402914 20.57869365379009707
0.012679145539692626699 25.77208015035158084 0.012679145539692626699 25.84955855081942744
0.015962098519750611558 32.39836093191448896 0.015962098519750611558 32.45459640514627608
0.020095091452091651263 40.71550528447109230 0.020095091452091651263 40.72295505660467541
0.025298221281360611101 51.14807530672774050 0.025298221281360611101 51.06034030008473934
0.031848573644296607199 64.22350652642107605 0.031848573644296607199 63.96427369526494999
0.040094978690191851456 80.59500759570907746 0.040094978690191851456 80.04094456243468869
0.050476587558435426217 101.06843940050603692 0.050476587558435426217 100.02290048133822609
0.063546258777947173257 126.63321663809472284 0.063546258777947173257 124.78609063773787113
0.080000000000012505552 158.49681498186720319 0.080000000000012505552 155.36365388219306283
0.100714032943542974863 198.12168943601980686 0.100714032943542974863 192.95218522056975985
0.126791455396883634421 247.26217157400117230 0.126791455396883634421 238.90386525619157965
0.159620985197506115583 307.99703688287485193 0.159620985197506115583 294.69466331109430257
0.200950914520774404082 382.75071678348166415 0.200950914520774404082 361.85478430358210744
0.252982212813464002465 474.29238248586091231 0.252982212813464002465 441.84280181516930952
0.318485736442809752589 585.69724612924358098 0.318485736442809752589 535.84016220692956267
0.400949786901833249431 720.24855000263187321 0.400949786901833249431 644.43962158403417106
0.504765875584169521062 881.25256097437329572 0.504765875584169521062 767.20345747455019136
0.635462587779443310865 1071.73440927552883295 0.635462587779443310865 902.08279973255673667
0.800000000000011368684 1293.98421741625156756 0.800000000000011368684 1044.73221627825205360
1.007140329435344483500 1548.93913819465751658 1.007140329435344483500 1187.84288848142045936
1.267914553968907398485 1835.43071151393860418 1.267914553968907398485 1320.76407774481094748
1.596209851975117999245 2149.41110711315650406 1.596209851975117999245 1429.85309723238469815
2.009509145207687197399 2483.39266686606197254 2.009509145207687197399 1500.06435234568812120
2.529822128134725289783 2826.44613145450466618 2.529822128134725289783 1518.04342475665430356
3.184857364427983839050 3165.10068057982016398 3.184857364427983839050 1476.27347163100557736
4.009497869018204596614 3485.25758803479720882 4.009497869018204596614 1377.05210044946034031
5.009497869018190385759 3765.80623694958285341 5.009497869018190385759 1238.76561848623350670
6.009497869018190385759 3968.66895113059263167 6.009497869018190385759 1106.89841996222457965
7.009497869018204596614 4120.30925831637705414 7.009497869018204596614 991.28957154857153000
8.009497869018190385759 4237.12748095334427489 8.009497869018190385759 894.17411671159629805
9.009497869018204596614 4329.59045074970163114 9.009497869018204596614 815.10582019909520568
10.009497869018190385759 4404.56100801463617245 10.009497869018190385759 751.44384065387237115
11.009497869018190385759 4466.66092838944769028 11.009497869018190385759 697.65151573981347610
12.009497869018204596614 4519.07396528566459892 12.009497869018204596614 653.53896631464624534
13.009497869018190385759 4564.04386306692958897 13.009497869018190385759 617.25199694315335819
14.009497869018204596614 4603.18455154428102105 14.009497869018204596614 587.26544695058112211
15.009497869018190385759 4637.67923790257191285 15.009497869018190385759 562.34729372715355566
16.009497869018190385759 4668.41086741808067018 16.009497869018190385759 541.51371148034115777
17.009497869018204596614 4696.04933264466581022 17.009497869018204596614 524.44718171503768644
18.009497869018190385759 4721.11088262389239389 18.009497869018190385759 509.52250227241182756
19.009497869018204596614 4744.00022870359862281 19.009497869018204596614 497.40685006806290858
20.009497869018190385759 4765.03641349181634723 20.009497869018190385759 486.39779473768646767
21.009497869018190385759 4784.47587216189640458 21.009497869018190385759 476.90422724141535582
22.009497869018204596614 4802.52840982278121373 22.009497869018204596614 468.66200968481291511
23.009497869018190385759 4819.36390648843553208 23.009497869018190385759 461.68448132152229846
24.009497869018204596614 4835.12487934576529369 24.009497869018204596614 455.33194879277425571
25.009497869018204596614 4849.93015528437263129 25.009497869018204596614 449.71990879578004296
26.009497869018190385759 4863.87981533629044861 26.009497869018190385759 444.97564272646866357
27.009497869018204596614 4877.05975321486312168 27.009497869018204596614 440.49324399373870165
28.009497869018190385759 4889.54289481639261794 28.009497869018190385759 436.47641610353963415
29.009497869018190385759 4901.39289244610608876 29.009497869018190385759 432.96306008094626350
30.009497869018190385759 4912.66479206571693794 30.009497869018190385759 429.67280932576022678
31.009497869018218807469 4923.40664443518198823 31.009497869018218807469 426.68106118438691965
32.009497869018190385759 4933.66137742834871460 32.009497869018190385759 423.95259980258720134
33.009497869018190385759 4943.46589918109475548 33.009497869018190385759 421.55451330764947215
34.009497869018218807469 4952.85429807943637570 34.009497869018218807469 419.23910025733908924
35.009497869018190385759 4961.85592508352965524 35.009497869018190385759 417.15905576162242596
36.009497869018190385759 4970.49755947237827058 36.009497869018190385759 415.17453316189403267
37.009497869018190385759 4978.80367044334343518 37.009497869018190385759 413.33063469165500692
38.009497869018218807469 4986.79558453636764170 38.009497869018218807469 411.61390115903225251
39.009497869018190385759 4994.49322176565874543 39.009497869018190385759 410.03992959102509985
40.009497869018190385759 5001.91470374554410228 40.009497869018190385759 408.62320295472636644
41.009497869018218807469 5009.07614258792636974 41.009497869018218807469 407.16697354516787755
42.009497869018190385759 5015.99264267919625127 42.009497869018190385759 405.85513284593702110
43.009497869018190385759 5022.67813474744616542 43.009497869018190385759 404.56442640529411392
44.009497869018218807469 5029.14504227951601933 44.009497869018218807469 403.39128467172724868
46.009497869018190385759 5041.46917871088226093 46.009497869018190385759 401.21448144364461541
48.009497869018218807469 5053.04840131333548925 48.009497869018218807469 399.20827190797274397
50.009497869018190385759 5063.95435922515298444 50.009497869018190385759 397.40931650919725371
52.009497869018190385759 5074.24904704145774303 52.009497869018190385759 395.75658372313756672
54.009497869018218807469 5083.98672165897914965 54.009497869018218807469 394.21087743614083365
56.009497869018190385759 5093.21480138177867047 56.009497869018190385759 392.78195026585490268
58.009497869018218807469 5101.97529877782653784 58.009497869018218807469 391.50337580278517180
60.009497869018190385759 5110.30535857336599292 60.009497869018190385759 390.25979899949601304
62.009497869018190385759 5118.23808454445679672 62.009497869018190385759 389.09804047869641863
64.009497869018218807469 5125.80314197046118352 64.009497869018218807469 388.00850142080855676
66.009497869018190385759 5133.02702983712424611 66.009497869018190385759 386.99451703924250978
68.009497869018190385759 5139.93379682736667746 68.009497869018190385759 386.04630935500574651
70.009497869018190385759 5146.54501655078092881 70.009497869018190385759 385.13022930643012387
72.009497869018190385759 5152.88033773371444113 72.009497869018190385759 384.27137598563689380
74.009497869018218807469 5158.95764953143225284 74.009497869018218807469 383.45150151537228567
76.009497869018190385759 5164.79316631407073146 76.009497869018190385759 382.67162486499478291
78.009497869018190385759 5170.40179200228249101 78.009497869018190385759 381.93213271252227514
80.009497869018218807469 5175.79716211838695017 80.009497869018218807469 381.22368696540337396
82.009497869018190385759 5180.99174862582731294 82.009497869018190385759 380.54540960423298657
84.009497869018218807469 5185.99709223033732997 84.009497869018218807469 379.89054322886545378
86.009497869018190385759 5190.82382539343234384 86.009497869018190385759 379.27101374539518019
88.009497869018190385759 5195.48172265391349356 88.009497869018190385759 378.66971585140936440
91.009497869018218807469 5202.17169597867268749 91.009497869018218807469 377.81566682960027492
94.009497869018218807469 5208.53000000890278898 94.009497869018218807469 377.00826617206911351
97.009497869018218807469 5214.58158063162954932 97.009497869018218807469 376.25005073069559103
99.504748934509137825444 5219.39760070443026052 99.504748934509137825444 375.54127689271439294
nan nan nan nan

