Time Pressure difference Time.1 Pressure.1 difference.1
(hr) (psi) (hr) (psi)
0.000200000000020850166 0.38342251059384785 0.000200000000020850166 0.30560764305232369
0.000399999999999067768 0.76670865826715229 0.000399999999999067768 0.80032559713637763
0.000600000000019917934 1.14987982103794950 0.000600000000019917934 1.17113614404199695
0.000799999999998135536 1.53294512610886602 0.000799999999998135536 1.54875326930226276
0.001007140329434719206 1.92958189293074489 0.001007140329434719206 1.94528648088681044
0.001267914553977789183 2.42877331556423615 0.001267914553977789183 2.44818584014973384
0.001596209851982166583 3.05699833731152548 0.001596209851982166583 3.08089098877798984
0.002009509145224797066 3.84755260174004166 0.002009509145224797066 3.87679796915547881
0.002529822128153114136 4.84229263730562121 0.002529822128153114136 4.87783664617061952
0.003184857364431081805 6.09382055868351724 0.003184857364431081805 6.13662000273755304
0.004009497869034817086 7.66821740791763951 0.004009497869034817086 7.71911768262694498
0.005047658755856332391 9.64845807077625039 0.005047658755856332391 9.70797224740826969
0.006354625877790454069 12.13867023784329824 0.006354625877790454069 12.20659806939196912
0.008000000000009777068 15.26943444991820797 0.008000000000009777068 15.34422490743236622
0.010071403294361402914 19.20436180229230061 0.010071403294361402914 19.28206864714885072
0.012679145539692626699 24.14822957177251439 0.012679145539692626699 24.22082620310519374
0.015962098519750611558 30.35700079189549072 0.015962098519750611558 30.40969297311470854
0.020095091452091651263 38.15009743118124419 0.020095091452091651263 38.15707780710316399
0.025298221281360611101 47.92533072439326958 0.025298221281360611101 47.84312373646151428
0.031848573644296607199 60.17690347292705866 0.031848573644296607199 59.93400441771776599
0.040094978690191851456 75.51686687321520708 0.040094978690191851456 74.99771431561461554
0.050476587558435426217 94.70030602364487038 0.050476587558435426217 93.72064455670107463
0.063546258777947173257 118.65429445154809684 0.063546258777947173257 116.92355240649828829
0.080000000000012505552 148.51022704601786018 0.080000000000012505552 145.57448056847763951
0.100714032943542974863 185.63841225610798347 0.100714032943542974863 180.79462883472086787
0.126791455396883634421 231.68264450328157977 0.126791455396883634421 223.85097943720387548
0.159620985197506115583 288.59071951830350145 0.159620985197506115583 276.12650363092370753
0.200950914520774404082 358.63430983167688737 0.200950914520774404082 339.05499098364094834
0.252982212813464002465 444.40810635362169023 0.252982212813464002465 414.00311308291270507
0.318485736442809752589 548.79355785687266689 0.318485736442809752589 502.07787556381003924
0.400949786901833249431 674.86703567319773356 0.400949786901833249431 603.83468607772306314
0.504765875584169521062 825.72648497802049405 0.504765875584169521062 718.86340222717001325
0.635462587779443310865 1004.20642820328998823 0.635462587779443310865 845.24424934290379952
0.800000000000011368684 1212.45269152213791131 0.800000000000011368684 978.90559289486634498
1.007140329435344483500 1451.34337948727056755 1.007140329435344483500 1112.99912924783507151
1.267914553968907398485 1719.78365448765362089 1.267914553968907398485 1237.54520292755682931
1.596209851975117999245 2013.98073247797765362 1.596209851975117999245 1339.76072728481562990
2.009509145207687197399 2326.91873866921650915 2.009509145207687197399 1405.54810250276864281
2.529822128134725289783 2648.35704593602986279 2.529822128134725289783 1422.39434718052348217
3.184857364427983839050 2965.67360517743327364 3.184857364427983839050 1383.25624069490572765
4.009497869018204596614 3265.65802456105984675 4.009497869018204596614 1290.28662257561200022
5.009497869018190385759 3528.52982771088954905 5.009497869018190385759 1160.71331325640971954
6.009497869018190385759 3718.61054160813728231 6.009497869018190385759 1037.15482033045850585
7.009497869018204596614 3860.69627659319121449 7.009497869018204596614 928.83026927620221613
8.009497869018190385759 3970.15400146238198431 8.009497869018190385759 837.83387765049974405
9.009497869018204596614 4056.79105243010690174 9.009497869018204596614 763.74752664996515250
10.009497869018190385759 4127.03785507062457327 10.009497869018190385759 704.09676939316079824
11.009497869018190385759 4185.22497558442046284 11.009497869018190385759 653.69379828466264826
12.009497869018204596614 4234.33556503392628656 12.009497869018204596614 612.36069811189418033
13.009497869018190385759 4276.47199364604603034 13.009497869018190385759 578.36010282681650096
14.009497869018204596614 4313.14650053234436200 14.009497869018204596614 550.26294927686569736
15.009497869018190385759 4345.46774120545887854 15.009497869018190385759 526.91484229312561638
16.009497869018190385759 4374.26302821084391326 16.009497869018190385759 507.39394510657973569
17.009497869018204596614 4400.16004542518476228 17.009497869018204596614 491.40274546876497652
18.009497869018190385759 4423.64251400328066666 18.009497869018190385759 477.41844216988181415
19.009497869018204596614 4445.08964518772154406 19.009497869018204596614 466.06617455564429520
20.009497869018190385759 4464.80037930838898319 20.009497869018190385759 455.75077921559648075
21.009497869018190385759 4483.01499403787420306 21.009497869018190385759 446.85538365506602076
22.009497869018204596614 4499.93007505752484576 22.009497869018204596614 439.13249281442836036
23.009497869018190385759 4515.70479855928624602 23.009497869018190385759 432.59460546589792784
24.009497869018204596614 4530.47270198861315293 24.009497869018204596614 426.64233413306692455
25.009497869018204596614 4544.34512517499115347 25.009497869018204596614 421.38389828222477718
26.009497869018190385759 4557.41584323176812177 26.009497869018190385759 416.93855954654890184
27.009497869018204596614 4569.76533787002335885 27.009497869018204596614 412.73858837624703710
28.009497869018190385759 4581.46194006170117063 28.009497869018190385759 408.97485330026779593
29.009497869018190385759 4592.56529149929883715 29.009497869018190385759 405.68286727096790401
30.009497869018190385759 4603.12696980141299719 30.009497869018190385759 402.59992906336475471
31.009497869018218807469 4613.19199813946943323 31.009497869018218807469 399.79668537805360984
32.009497869018190385759 4622.80059958225319861 32.009497869018190385759 397.24013924592014746
33.009497869018190385759 4631.98735675301759329 33.009497869018190385759 394.99315169680164672
34.009497869018218807469 4640.78421019231700484 34.009497869018218807469 392.82362849315711628
35.009497869018190385759 4649.21866151119320421 35.009497869018190385759 390.87464371160149312
36.009497869018190385759 4657.31580267635399650 36.009497869018190385759 389.01516216998606978
37.009497869018190385759 4665.09856112679153739 37.009497869018190385759 387.28744429441655939
38.009497869018218807469 4672.58691965704474569 38.009497869018218807469 385.67887893153221057
39.009497869018190385759 4679.79954315847317048 39.009497869018190385759 384.20408036882633951
40.009497869018190385759 4686.75341143637433561 40.009497869018190385759 382.87661902871712982
41.009497869018218807469 4693.46362140860583168 41.009497869018218807469 381.51214391122437064
42.009497869018190385759 4699.94432576241797506 42.009497869018190385759 380.28295984141664121
43.009497869018190385759 4706.20857747677382577 43.009497869018190385759 379.07357840008251060
44.009497869018218807469 4712.26801725783934671 44.009497869018218807469 377.97435413346801170
46.009497869018190385759 4723.81563289779842307 46.009497869018190385759 375.93470720634184090
48.009497869018218807469 4734.66527033627608034 48.009497869018218807469 374.05490518206391926
50.009497869018190385759 4744.88406423332344275 50.009497869018190385759 372.36929859906490492
52.009497869018190385759 4754.53010302055281500 52.009497869018190385759 370.82070141537889185
54.009497869018218807469 4763.65422496908468020 54.009497869018218807469 369.37238719118067820
56.009497869018190385759 4772.30086064430906845 56.009497869018190385759 368.03349404991689653
58.009497869018218807469 4780.50937548084948503 58.009497869018218807469 366.83548017293486510
60.009497869018190385759 4788.31457378520644852 60.009497869018190385759 365.67025881863344239
62.009497869018190385759 4795.74747352641225007 62.009497869018190385759 364.58170052983547293
64.009497869018218807469 4802.83587083004567830 64.009497869018218807469 363.56081129063568369
66.009497869018190385759 4809.60459503031415807 66.009497869018190385759 362.61071616888369817
68.009497869018190385759 4816.07617954759280110 68.009497869018190385759 361.72225327775942105
70.009497869018190385759 4822.27083867867804656 70.009497869018190385759 360.86389372004936149
72.009497869018190385759 4828.20698312041076861 72.009497869018190385759 360.05915514101343433
74.009497869018218807469 4833.90137486583353166 74.009497869018218807469 359.29093942802154515
76.009497869018190385759 4839.36920664793979086 76.009497869018190385759 358.56020134707847546
78.009497869018190385759 4844.62444331921142293 78.009497869018190385759 357.86730321234307439
80.009497869018218807469 4849.67986125320385327 80.009497869018218807469 357.20349530701417962
82.009497869018190385759 4854.54714657826480106 82.009497869018190385759 356.56795493404763420
84.009497869018218807469 4859.23711284184173564 84.009497869018218807469 355.95435046444504223
86.009497869018190385759 4863.75972257392731990 86.009497869018190385759 355.37385637525846960
88.009497869018190385759 4868.12413443791501777 88.009497869018190385759 354.81044513719456290
91.009497869018218807469 4874.39258505318775860 91.009497869018218807469 354.01020814724739694
94.009497869018218807469 4880.35026423598537804 94.009497869018218807469 353.25368029537372649
97.009497869018218807469 4886.02054607963691524 97.009497869018218807469 352.54323859115993400
99.504748934509137825444 4890.53311773321729561 99.504748934509137825444 351.87912326736051227
nan nan nan nan

