Time Pressure difference Time.1 Pressure.1 difference.1
(hr) (psi) (hr) (psi)
0.000200000000020850166 0.67286076154104757 0.000200000000020850166 0.53630495277511891
0.000399999999999067768 1.34548222242543658 0.000399999999999067768 1.40447593944323090
0.000600000000019917934 2.01790189852429735 0.000600000000019917934 2.05520420939257198
0.000799999999998135536 2.69013580698931154 0.000799999999998135536 2.71787721228965440
0.001007140329434719206 3.38618601167239186 0.001007140329434719206 3.41374568988596439
0.001267914553977789183 4.26220740193376901 0.001267914553977789183 4.29627406655343780
0.001596209851982166583 5.36466736417575696 0.001596209851982166583 5.40659611696614650
0.002009509145224797066 6.75199578049391214 0.002009509145224797066 6.80331791116438644
0.002529822128153114136 8.49764586459923521 0.002529822128153114136 8.56002135954887500
0.003184857364431081805 10.69392805200643259 0.003184857364431081805 10.76903597009692071
0.004009497869034817086 13.45680668764722476 0.004009497869034817086 13.54613059706116829
0.005047658755856332391 16.93189279665506675 0.005047658755856332391 17.03633307625442228
0.006354625877790454069 21.30191805296145091 0.006354625877790454069 21.42112329314122121
0.008000000000009777068 26.79603572664605338 0.008000000000009777068 26.92728405664378499
0.010071403294361402914 33.70136377018323515 0.010071403294361402914 33.83773001202477104
0.012679145539692626699 42.37726187324070537 0.012679145539692626699 42.50466030002625217
0.015962098519750611558 53.27291462178623505 0.015962098519750611558 53.36538311334012263
0.020095091452091651263 66.94886946166079156 0.020095091452091651263 66.96111918860403023
0.025298221281360611101 84.10323764866410556 0.025298221281360611101 83.95897419261902428
0.031848573644296607199 105.60328613795660146 0.031848573644296607199 105.17702727534418727
0.040094978690191851456 132.52309175798504270 0.040094978690191851456 131.61204095733671693
0.050476587558435426217 166.18773877034428210 0.050476587558435426217 164.46854977520860075
0.063546258777947173257 208.22413061020046143 0.063546258777947173257 205.18688480880069847
0.080000000000012505552 260.61773032587518628 0.080000000000012505552 255.46584550954102610
0.100714032943542974863 325.77326575963417099 0.100714032943542974863 317.27300374683119344
0.126791455396883634421 406.57540000684338111 0.126791455396883634421 392.83176217938819264
0.159620985197506115583 506.44228219155638726 0.159620985197506115583 484.56907036316107451
0.200950914520774404082 629.36042658096880587 0.200950914520774404082 595.00105793007708144
0.252982212813464002465 779.88320616069404423 0.252982212813464002465 726.52607046437390181
0.318485736442809752589 963.06721975316690987 0.318485736442809752589 881.08677078334574162
0.400949786901833249431 1184.31113201652283351 0.400949786901833249431 1059.65783305179593299
0.504765875584169521062 1449.05146713062595154 0.504765875584169521062 1261.51950629453494912
0.635462587779443310865 1762.26247378842003855 0.635462587779443310865 1483.30281500739511102
0.800000000000011368684 2127.70982091412042791 0.800000000000011368684 1717.86252635997152538
1.007140329435344483500 2546.93447723471126665 1.007140329435344483500 1953.18068451518115580
1.267914553968907398485 3018.01513336336620341 1.267914553968907398485 2171.74418474705726112
1.596209851975117999245 3534.29590580191779736 1.596209851975117999245 2351.12023508333186328
2.009509145207687197399 4083.46477133057715037 2.009509145207687197399 2466.56922977167005229
2.529822128134725289783 4647.55065111116709886 2.529822128134725289783 2496.13237932547417586
3.184857364427983839050 5204.40335485584364505 3.184857364427983839050 2427.44967184854340303
4.009497869018204596614 5730.84022097591605416 4.009497869018204596614 2264.29908386913302820
5.009497869018190385759 6192.14887335815546976 5.009497869018190385759 2036.91338486862377977
6.009497869018190385759 6525.71784850538551837 6.009497869018190385759 1820.08297103544668971
7.009497869018204596614 6775.06136174379935255 7.009497869018204596614 1629.98630768860653006
8.009497869018190385759 6967.14660994157657115 8.009497869018190385759 1470.29849678797040724
9.009497869018204596614 7119.18429808233486256 9.009497869018204596614 1340.28578971761794492
10.009497869018190385759 7242.45905586146454880 10.009497869018190385759 1235.60582741663165507
11.009497869018190385759 7344.57051029890772043 11.009497869018190385759 1147.15462649087226055
12.009497869018204596614 7430.75373560183561494 12.009497869018204596614 1074.61996696859523581
13.009497869018190385759 7504.69814069338735862 13.009497869018190385759 1014.95297871343700535
14.009497869018204596614 7569.05752479537295585 14.009497869018204596614 965.64582638825231697
15.009497869018190385759 7625.77744606337546429 15.009497869018190385759 924.67268419769766297
16.009497869018190385759 7676.30973931143762456 16.009497869018190385759 890.41583859267461776
17.009497869018204596614 7721.75591485677796300 17.009497869018204596614 862.35319107208442801
18.009497869018190385759 7762.96484561530087376 18.009497869018190385759 837.81240719183165311
19.009497869018204596614 7800.60200207563320873 19.009497869018204596614 817.89053192085964383
20.009497869018190385759 7835.19198885138212063 20.009497869018190385759 799.78824378615524893
21.009497869018190385759 7867.15646459141044033 21.009497869018190385759 784.17788585021344261
22.009497869018204596614 7896.84041371266175702 22.009497869018204596614 770.62513381100336574
23.009497869018190385759 7924.52317144135031413 23.009497869018190385759 759.15192152258430269
24.009497869018204596614 7950.43908006244691933 24.009497869018204596614 748.70639547429743743
25.009497869018204596614 7974.78352769320554216 25.009497869018204596614 739.47846791826430035
26.009497869018190385759 7997.72107846963172051 26.009497869018190385759 731.67742879209993134
27.009497869018204596614 8019.39296819273113215 27.009497869018204596614 724.30698046937936851
28.009497869018190385759 8039.91910956597894256 28.009497869018190385759 717.70207444667391883
29.009497869018190385759 8059.40416664410622616 29.009497869018190385759 711.92503171846635723
30.009497869018190385759 8077.93865199423817103 30.009497869018190385759 706.51484297670731394
31.009497869018218807469 8095.60157591069673799 31.009497869018218807469 701.59548475237602361
32.009497869018190385759 8112.46352508035306528 32.009497869018190385759 697.10905130140872643
33.009497869018190385759 8128.58518788110905007 33.009497869018190385759 693.16585623148057493
34.009497869018218807469 8144.02261615094266745 34.009497869018218807469 689.35860184590922017
35.009497869018190385759 8158.82407193613016716 35.009497869018190385759 685.93836607957837259
36.009497869018190385759 8173.03358864462279598 36.009497869018190385759 682.67519782108183790
37.009497869018190385759 8186.69140119647454412 37.009497869018190385759 679.64325907631882728
38.009497869018218807469 8199.83257701203547185 38.009497869018218807469 676.82041877572578414
39.009497869018190385759 8212.48987074881733861 39.009497869018190385759 674.23232325028311607
40.009497869018190385759 8224.69307993931943201 40.009497869018190385759 671.90278697230405669
41.009497869018218807469 8236.46869787323703349 41.009497869018218807469 669.50829593097728321
42.009497869018190385759 8247.84156082819026778 42.009497869018190385759 667.35122453732333270
43.009497869018190385759 8258.83457522496792080 43.009497869018190385759 665.22890439407103713
44.009497869018218807469 8269.46816911408313899 44.009497869018218807469 663.29989695005554040
46.009497869018190385759 8289.73285686403141881 46.009497869018190385759 659.72055993477340508
48.009497869018218807469 8308.77267614326956391 48.009497869018218807469 656.42173165355688980
50.009497869018190385759 8326.70544027062715031 50.009497869018190385759 653.46369320313124263
52.009497869018190385759 8343.63308751328986546 52.009497869018190385759 650.74608990247622842
54.009497869018218807469 8359.64483297177685017 54.009497869018218807469 648.20447123137785184
56.009497869018190385759 8374.81864698751815013 56.009497869018190385759 645.85487350625339786
58.009497869018218807469 8389.22361120175082760 58.009497869018218807469 643.75250208222200854
60.009497869018190385759 8402.92080302002614189 60.009497869018190385759 641.70767762315506388
62.009497869018190385759 8415.96465527736836520 62.009497869018190385759 639.79738769769392093
64.009497869018218807469 8428.40394685793216922 64.009497869018218807469 638.00584888096375380
66.009497869018190385759 8440.28225028096312599 66.009497869018190385759 636.33854529420159452
68.009497869018190385759 8451.63910901085364458 68.009497869018190385759 634.77939891910500592
70.009497869018190385759 8462.50999672679245123 70.009497869018190385759 633.27308030264623540
72.009497869018190385759 8472.92722200523348874 72.009497869018190385759 631.86086010646397426
74.009497869018218807469 8482.92020014416266349 74.009497869018218807469 630.51273318279709201
76.009497869018190385759 8492.51559257740518660 76.009497869018190385759 629.23037503207467580
78.009497869018190385759 8501.73790595497121103 78.009497869018190385759 628.01442147241982639
80.009497869018218807469 8510.60956128815996635 80.009497869018218807469 626.84951779473851730
82.009497869018190385759 8519.15106633799587144 82.009497869018190385759 625.73422026387095229
84.009497869018218807469 8527.38139759012847207 84.009497869018218807469 624.65741762632546852
86.009497869018190385759 8535.31803809611119505 86.009497869018190385759 623.63871975614767962
88.009497869018190385759 8542.97706021751218941 88.009497869018190385759 622.65000025160600217
91.009497869018218807469 8553.97744318444529199 91.009497869018218807469 621.24567980720860305
94.009497869018218807469 8564.43245936423227249 94.009497869018218807469 619.91806368537379512
97.009497869018218807469 8574.38312750200930168 97.009497869018218807469 618.67132325433487949
99.504748934509137825444 8582.30215237781339965 99.504748934509137825444 617.50588009391458399
nan nan nan nan

