Time Pressure difference Time.1 Pressure.1 difference.1
(hr) (psi) (hr) (psi)
0.000200000000020850166 0.61879901926642689 0.000200000000020850166 0.49321493802804511
0.000399999999999067768 1.23737796475219386 0.000399999999999067768 1.29163176631120380
0.000600000000019917934 1.85577133807426131 0.000600000000019917934 1.89007655350812542
0.000799999999998135536 2.47399386946853905 0.000799999999998135536 2.49950636086959532
0.001007140329434719206 3.11411915041317622 0.001007140329434719206 3.13946451579129482
0.001267914553977789183 3.91975563292796547 0.001267914553977789183 3.95108517369067647
0.001596209851982166583 4.93363722984766806 0.001596209851982166583 4.97219717060916366
0.002009509145224797066 6.20949920974965508 0.002009509145224797066 6.25669780705352707
0.002529822128153114136 7.81489310662772585 0.002529822128153114136 7.87225697342937369
0.003184857364431081805 9.83471257193174964 0.003184857364431081805 9.90378586125106253
0.004009497869034817086 12.37560466700807638 0.004009497869034817086 12.45775174810075292
0.005047658755856332391 15.57148113808574763 0.005047658755856332391 15.66753004787798886
0.006354625877790454069 19.59039188059742642 0.006354625877790454069 19.70001944387771076
0.008000000000009777068 24.64307859162504499 0.008000000000009777068 24.76378162934854643
0.010071403294361402914 30.99359041411165450 0.010071403294361402914 31.11900015938990194
0.012679145539692626699 38.97241388589750954 0.012679145539692626699 39.08957634514157320
0.015962098519750611558 48.99264336045606427 0.015962098519750611558 49.07768236875778456
0.020095091452091651263 61.56978847895629059 0.020095091452091651263 61.58105398803633790
0.025298221281360611101 77.34586997602733049 0.025298221281360611101 77.21319752695741556
0.031848573644296607199 97.11847328385624678 0.031848573644296607199 96.72646266113235924
0.040094978690191851456 121.87537733985273292 0.040094978690191851456 121.03752592368171292
0.050476587558435426217 152.83520104466765588 0.050476587558435426217 151.25414219129197591
0.063546258777947173257 191.49413247711885333 0.063546258777947173257 188.70091754974995979
0.080000000000012505552 239.67811046038457334 0.080000000000012505552 234.94015952916998913
0.100714032943542974863 299.59865231788359097 0.100714032943542974863 291.78135326037380537
0.126791455396883634421 373.90864969727005018 0.126791455396883634421 361.26925965570433164
0.159620985197506115583 465.75161674971320735 0.159620985197506115583 445.63583232409376933
0.200950914520774404082 578.79376684331373326 0.200950914520774404082 547.19503967858759097
0.252982212813464002465 717.22262717374087515 0.252982212813464002465 668.15252957415839319
0.318485736442809752589 885.68851853690500775 0.318485736442809752589 810.29487943486913082
0.400949786901833249431 1089.15634390641889695 0.400949786901833249431 974.51845215146636292
0.504765875584169521062 1332.62582391246678526 0.504765875584169521062 1160.16132593712472953
0.635462587779443310865 1620.67154573372613413 0.635462587779443310865 1364.12520935167094649
0.800000000000011368684 1956.75662145872161091 0.800000000000011368684 1579.83896120125950802
1.007140329435344483500 2342.29820897728677664 1.007140329435344483500 1796.25022160605044519
1.267914553968907398485 2775.52936863083368735 1.267914553968907398485 1997.25299561410474780
1.596209851975117999245 3250.32899124428513460 1.596209851975117999245 2162.21687874165490939
2.009509145207687197399 3755.37427672428930236 2.009509145207687197399 2268.38999623006520778
2.529822128134725289783 4274.13805244339800993 2.529822128134725289783 2295.57786182713562084
3.184857364427983839050 4786.24980965728900628 3.184857364427983839050 2232.41354246639866687
4.009497869018204596614 5270.38952336969305179 4.009497869018204596614 2082.37146897235425058
5.009497869018190385759 5694.63382172863748565 5.009497869018190385759 1873.25532551576770857
6.009497869018190385759 6001.40182853894566506 6.009497869018190385759 1673.84639116238827228
7.009497869018204596614 6230.71156135647288465 7.009497869018204596614 1499.02325453686421497
8.009497869018190385759 6407.36350778310588794 8.009497869018190385759 1352.16573746631615904
9.009497869018204596614 6547.18555967028169107 9.009497869018204596614 1232.59904517911945732
10.009497869018190385759 6660.55567065627838019 10.009497869018190385759 1136.32971025707547597
11.009497869018190385759 6754.46286732062708325 11.009497869018190385759 1054.98521892362032304
12.009497869018204596614 6833.72160604173768661 12.009497869018204596614 988.27843686605058338
13.009497869018190385759 6901.72486610121086414 13.009497869018190385759 933.40545879208559654
14.009497869018204596614 6960.91322428647436027 14.009497869018204596614 888.05994416917155831
15.009497869018190385759 7013.07592073071919003 15.009497869018190385759 850.37883441667133866
16.009497869018190385759 7059.54814097368307557 16.009497869018190385759 818.87439297027185603
17.009497869018204596614 7101.34289326754333160 17.009497869018204596614 793.06646991054481077
18.009497869018190385759 7139.24084689466508280 18.009497869018190385759 770.49744246072032183
19.009497869018204596614 7173.85400438105170906 19.009497869018204596614 752.17621229804638006
20.009497869018190385759 7205.66482040225946548 20.009497869018190385759 735.52837253016002705
21.009497869018190385759 7235.06107497652556049 21.009497869018190385759 721.17224607238415501
22.009497869018204596614 7262.36003436615646933 22.009497869018204596614 708.70840488922931399
23.009497869018190385759 7287.81859029958559404 23.009497869018190385759 698.15702053498489477
24.009497869018204596614 7311.65225657164501172 24.009497869018204596614 688.55075183297572039
25.009497869018204596614 7334.04072262514910108 25.009497869018204596614 680.06425232532592418
26.009497869018190385759 7355.13533050853675377 26.009497869018190385759 672.88999631807462265
27.009497869018204596614 7375.06596827613338974 27.009497869018204596614 666.11173481980006272
28.009497869018190385759 7393.94291411259382585 28.009497869018190385759 660.03750727852343516
29.009497869018190385759 7411.86242272338040493 29.009497869018190385759 654.72462743947971830
30.009497869018190385759 7428.90773434327820723 30.009497869018190385759 649.74912629749110238
31.009497869018218807469 7445.15151109710495803 31.009497869018218807469 645.22501935199977652
32.009497869018190385759 7460.65866830628237949 32.009497869018190385759 641.09905336000997522
33.009497869018190385759 7475.48501827385098295 33.009497869018190385759 637.47267866034792405
34.009497869018218807469 7489.68210929085489624 34.009497869018218807469 633.97132234036644149
35.009497869018190385759 7503.29432573606936785 35.009497869018190385759 630.82588920050227443
36.009497869018190385759 7516.36216310457257350 36.009497869018190385759 627.82490380579099565
37.009497869018190385759 7528.92262359725191345 37.009497869018190385759 625.03656953372217231
38.009497869018218807469 7541.00795710377587966 38.009497869018218807469 622.44053345999998328
39.009497869018190385759 7552.64828657246016519 39.009497869018190385759 620.06038133276956614
40.009497869018190385759 7563.87101542009168043 40.009497869018190385759 617.91801422422042833
41.009497869018218807469 7574.70050830369473260 41.009497869018218807469 615.71591121464416574
42.009497869018190385759 7585.15960600268772396 42.009497869018190385759 613.73215210849025425
43.009497869018190385759 7595.26937449613797071 43.009497869018190385759 611.78035212507893448
44.009497869018218807469 7605.04860052024469041 44.009497869018218807469 610.00633291822168758
46.009497869018190385759 7623.68509951401756553 46.009497869018190385759 606.71458169526749771
48.009497869018218807469 7641.19514344943399919 48.009497869018218807469 603.68080142181247538
50.009497869018190385759 7657.68707980388899159 50.009497869018190385759 600.96042984317637092
52.009497869018190385759 7673.25465650171645393 52.009497869018190385759 598.46117538620808318
54.009497869018218807469 7687.97992055748090934 54.009497869018218807469 596.12376587904213920
56.009497869018190385759 7701.93457769927499612 56.009497869018190385759 593.96294918251237505
58.009497869018218807469 7715.18215912744381058 58.009497869018218807469 592.02949511640679248
60.009497869018190385759 7727.77883491582088027 60.009497869018190385759 590.14896434070135456
62.009497869018190385759 7739.77466443308185262 62.009497869018190385759 588.39215877266292409
64.009497869018218807469 7751.21450736996484920 64.009497869018218807469 586.74456312414963577
66.009497869018190385759 7762.13843536345666507 66.009497869018190385759 585.21122088861068278
68.009497869018190385759 7772.58281471455393330 68.009497869018190385759 583.77734585391112887
70.009497869018190385759 7782.58026893044916505 70.009497869018190385759 582.39205407313818341
72.009497869018190385759 7792.16051071927449811 72.009497869018190385759 581.09330027096325466
74.009497869018218807469 7801.35059197436021350 74.009497869018218807469 579.85349009641652174
76.009497869018190385759 7810.17503198713075108 76.009497869018190385759 578.67416442999206083
78.009497869018190385759 7818.65636839369381050 78.009497869018190385759 577.55590800430206855
80.009497869018218807469 7826.81522076438977820 80.009497869018218807469 576.48459980134168745
82.009497869018190385759 7834.67044914149391843 82.009497869018190385759 575.45891208444982112
84.009497869018218807469 7842.23950532392609603 84.009497869018218807469 574.46862634608919507
86.009497869018190385759 7849.53846766811784619 86.009497869018190385759 573.53177688328048589
88.009497869018190385759 7856.58211718396705692 88.009497869018190385759 572.62249714115557708
91.009497869018218807469 7866.69866221165284514 91.009497869018218807469 571.33100837646873060
94.009497869018218807469 7876.31365855004878540 94.009497869018218807469 570.11006104068985678
97.009497869018218807469 7885.46482924782958435 97.009497869018218807469 568.96349134885667809
99.504748934509137825444 7892.74759130913935223 99.504748934509137825444 567.89168700849506877
nan nan nan nan

