Time Pressure difference Time.1 Pressure.1 difference.1
(hr) (psi) (hr) (psi)
0.000200000000020850166 0.80926269589547495 0.000200000000020850166 0.64502437459850526
0.000399999999999067768 1.61823758024715669 0.000399999999999067768 1.68919046857634592
0.000600000000019917934 2.42696977412131210 0.000600000000019917934 2.47183398731640569
0.000799999999998135536 3.23547854165710813 0.000799999999998135536 3.26884366818026395
0.001007140329434719206 4.07263163084949031 0.001007140329434719206 4.10577819067866923
0.001267914553977789183 5.12623955757918015 0.001267914553977789183 5.16721219623794248
0.001596209851982166583 6.45218954924970500 0.001596209851982166583 6.50261807392838165
0.002009509145224797066 8.12075635898711745 0.002009509145224797066 8.18248248153640034
0.002529822128153114136 10.22028359240427164 0.002529822128153114136 10.29530381068115652
0.003184857364431081805 12.86179480173332301 0.003184857364431081805 12.95212855241570260
0.004009497869034817086 16.18476255510599415 0.004009497869034817086 16.29219415443821362
0.005047658755856332391 20.36431605827611691 0.005047658755856332391 20.48992840938882054
0.006354625877790454069 25.62023024169529251 0.006354625877790454069 25.76360069743684633
0.008000000000009777068 32.22811219039136432 0.008000000000009777068 32.38596710397330014
0.010071403294361402914 40.53328423780999401 0.010071403294361402914 40.69729456328813910
0.012679145539692626699 50.96795525669123350 0.012679145539692626699 51.12117981696606250
0.015962098519750611558 64.07236826575773136 0.015962098519750611558 64.18358191505555510
0.020095091452091651263 80.52070455648450320 0.020095091452091651263 80.53543754080560291
0.025298221281360611101 101.15259608424003090 0.025298221281360611101 100.97908762598061116
0.031848573644296607199 127.01112164676362681 0.031848573644296607199 126.49845184043250867
0.040094978690191851456 159.38809428988807326 0.040094978690191851456 158.29235581148159895
0.050476587558435426217 199.87721857051295160 0.050476587558435426217 197.80951660232133804
0.063546258777947173257 250.43520282289870238 0.063546258777947173257 246.78224835471331744
0.080000000000012505552 313.45000198649751155 0.080000000000012505552 307.25373013693871371
0.100714032943542974863 391.81382890497411609 0.100714032943542974863 381.59039882035443725
0.126791455396883634421 488.99612386484375293 0.126791455396883634421 472.46638393145207147
0.159620985197506115583 609.10796115251480387 0.159620985197506115583 582.80062480019250870
0.200950914520774404082 756.94399884212930374 0.200950914520774404082 715.61931936460439374
0.252982212813464002465 937.98066698931427254 0.252982212813464002465 873.80700440276359586
0.318485736442809752589 1158.29963512958147476 0.318485736442809752589 1059.70015818565570953
0.400949786901833249431 1424.39398201740004879 0.400949786901833249431 1274.47104024647387632
0.504765875584169521062 1742.80232078875019397 0.504765875584169521062 1517.25399211938497501
0.635462587779443310865 2119.50727688026290707 0.635462587779443310865 1783.99708158491398535
0.800000000000011368684 2559.03789338620435956 0.800000000000011368684 2066.10659845272220991
1.007140329435344483500 3063.24752329959710551 1.007140329435344483500 2349.12831400898812717
1.267914553968907398485 3629.82537053467922306 1.267914553968907398485 2611.99887732866091028
1.596209851975117999245 4250.76627483963602572 1.596209851975117999245 2827.73793416079342933
2.009509145207687197399 4911.26232695259841421 2.009509145207687197399 2966.59068055356556215
2.529822128134725289783 5589.69936159600183601 2.529822128134725289783 3002.14685424435901950
3.184857364427983839050 6259.43691504911657830 3.184857364427983839050 2919.54082905887889865
4.009497869018204596614 6892.59275032084951818 4.009497869018204596614 2723.31645068561965672
5.009497869018190385759 7447.41761900801611773 5.009497869018190385759 2449.83525769736843358
6.009497869018190385759 7848.60749888225018367 6.009497869018190385759 2189.04911102285450397
7.009497869018204596614 8148.49778118259109760 7.009497869018204596614 1960.41616487146393411
8.009497869018190385759 8379.52243692602496594 8.009497869018190385759 1768.35653569183568834
9.009497869018204596614 8562.38111499890328560 9.009497869018204596614 1611.98772978398278610
10.009497869018190385759 8710.64605853300963645 10.009497869018190385759 1486.08710763458907422
11.009497869018190385759 8833.45748642872422352 11.009497869018190385759 1379.70513173747667679
12.009497869018204596614 8937.11172403039017809 12.009497869018204596614 1292.46628907347735549
13.009497869018190385759 9026.04609504902873596 13.009497869018190385759 1220.70364436115482931
14.009497869018204596614 9103.45237531013299304 14.009497869018204596614 1161.40097537177962295
15.009497869018190385759 9171.67052536423216225 15.009497869018190385759 1112.12178210674892398
16.009497869018190385759 9232.44669511746360513 16.009497869018190385759 1070.92040908612170824
17.009497869018204596614 9287.10569240500080923 17.009497869018204596614 1037.16891831043017191
18.009497869018190385759 9336.66847315659833839 18.009497869018190385759 1007.65324128263569037
19.009497869018204596614 9381.93541164349881001 19.009497869018204596614 983.69281527688053757
20.009497869018190385759 9423.53746001532090304 20.009497869018190385759 961.92084203205070025
21.009497869018190385759 9461.98175531204287836 21.009497869018190385759 943.14596159735197034
22.009497869018204596614 9497.68321698692307109 22.009497869018204596614 926.84580370594107990
23.009497869018190385759 9530.97780693749700731 23.009497869018190385759 913.04674862975844007
24.009497869018204596614 9562.14737317770050140 24.009497869018204596614 900.48371173855559846
25.009497869018204596614 9591.42691278799793508 25.009497869018204596614 889.38510418352439046
26.009497869018190385759 9619.01435024839520338 26.009497869018190385759 880.00264303425603885
27.009497869018204596614 9645.07955259768459655 27.009497869018204596614 871.13806180062556450
28.009497869018190385759 9669.76674117144284537 28.009497869018190385759 863.19421314785381583
29.009497869018190385759 9693.20179745947461925 29.009497869018190385759 856.24605174544853980
30.009497869018190385759 9715.49358268280957418 30.009497869018190385759 849.73911275196076076
31.009497869018218807469 9736.73712405575679441 31.009497869018218807469 843.82250514717168244
32.009497869018190385759 9757.01731755646869715 32.009497869018190385759 838.42658456893775565
33.009497869018190385759 9776.40715427480790822 33.009497869018190385759 833.68402733403036109
34.009497869018218807469 9794.97404884408933867 34.009497869018218807469 829.10496859835552641
35.009497869018190385759 9812.77604696397247608 35.009497869018190385759 824.99138466678596160
36.009497869018190385759 9829.86610846874827985 36.009497869018190385759 821.06670887504651546
37.009497869018190385759 9846.29262467758780986 37.009497869018190385759 817.42013730687051520
38.009497869018218807469 9862.09777185749226192 38.009497869018218807469 814.02505249540320165
39.009497869018190385759 9877.32094467070419341 39.009497869018190385759 810.91229978062483497
40.009497869018190385759 9891.99798118783473910 40.009497869018190385759 808.11052129054621673
41.009497869018218807469 9906.16074540254703606 41.009497869018218807469 805.23062044603329923
42.009497869018190385759 9919.83910838792326103 42.009497869018190385759 802.63626881930235868
43.009497869018190385759 9933.06062014078270295 43.009497869018190385759 800.08371319583579862
44.009497869018218807469 9945.84984987392090261 44.009497869018218807469 797.76365850729791873
46.009497869018190385759 9970.22258310099277878 46.009497869018190385759 793.45872041598829583
48.009497869018218807469 9993.12214324771412066 48.009497869018218807469 789.49115562288113779
50.009497869018190385759 10014.69022667901117529 50.009497869018190385759 785.93346537286367948
52.009497869018190385759 10035.04943652710971946 52.009497869018190385759 782.66495114352198925
54.009497869018218807469 10054.30707352477111272 54.009497869018218807469 779.60809704342477744
56.009497869018190385759 10072.55691411477528163 56.009497869018190385759 776.78219026153840332
58.009497869018218807469 10089.88204412769300689 58.009497869018218807469 774.25362734981695212
60.009497869018190385759 10106.35592254448056337 60.009497869018190385759 771.79427728965379174
62.009497869018190385759 10122.04401679218972276 62.009497869018190385759 769.49673452392619311
64.009497869018218807469 10137.00499418141953356 64.009497869018218807469 767.34201602123323482
66.009497869018190385759 10151.29126022667151119 66.009497869018190385759 765.33671764061580234
68.009497869018190385759 10164.95037461997526407 68.009497869018190385759 763.46150203744025475
70.009497869018190385759 10178.02500224371760851 70.009497869018190385759 761.64982340478957212
72.009497869018190385759 10190.55400124980405963 72.009497869018190385759 759.95131876834295781
74.009497869018218807469 10202.57274998797402077 74.009497869018218807469 758.32990035458783495
76.009497869018190385759 10214.11331468209573359 76.009497869018190385759 756.78758332040638379
78.009497869018190385759 10225.20516995573234453 78.009497869018190385759 755.32513237659395600
80.009497869018218807469 10235.87528199428925291 80.009497869018218807469 753.92408011653958511
82.009497869018190385759 10246.14831587993830908 82.009497869018190385759 752.58269013194865238
84.009497869018218807469 10256.04709500024182489 84.009497869018218807469 751.28759870261399101
86.009497869018190385759 10265.59264656058985565 86.009497869018190385759 750.06239100461277758
88.009497869018190385759 10274.80430110214911110 88.009497869018190385759 748.87323886874241907
91.009497869018218807469 10288.03467517733588465 91.009497869018218807469 747.18423541707534241
94.009497869018218807469 10300.60912603386896080 94.009497869018218807469 745.58748574273010945
97.009497869018218807469 10312.57698771255309111 97.009497869018218807469 744.08800683123331510
99.504748934509137825444 10322.10135261262439599 99.504748934509137825444 742.68630572481936269
nan nan nan nan

