Time Pressure difference Time.1 Pressure.1 difference.1
(hr) (psi) (hr) (psi)
0.000200000000020850166 0.11228208010882747 0.000200000000020850166 0.08949464601315335
0.000399999999999067768 0.22452422747519646 0.000399999999999067768 0.23436866727421038
0.000600000000019917934 0.33673270247315223 0.000600000000019917934 0.34295743914461951
0.000799999999998135536 0.44891017792775906 0.000799999999998135536 0.45353946064166045
0.001007140329434719206 0.56506194261529408 0.001007140329434719206 0.56966090004277525
0.001267914553977789183 0.71124598178128395 0.001267914553977789183 0.71693077748419543
0.001596209851982166583 0.89521643283526231 0.001596209851982166583 0.90221319627988850
0.002009509145224797066 1.12672364693038096 0.002009509145224797066 1.13528790853793837
0.002529822128153114136 1.41802495886390201 0.002529822128153114136 1.42843372501742660
0.003184857364431081805 1.78452445861664821 0.003184857364431081805 1.79705791837216844
0.004009497869034817086 2.24557342748130440 0.004009497869034817086 2.26047914784086235
0.005047658755856332391 2.82547036779781724 0.005047658755856332391 2.84289859739721562
0.006354625877790454069 3.55470820414066235 0.006354625877790454069 3.57460030231652004
0.008000000000009777068 4.47152635735131909 0.008000000000009777068 4.49342811822856714
0.010071403294361402914 5.62383697030251728 0.010071403294361402914 5.64659277085703870
0.012679145539692626699 7.07160735832817711 0.012679145539692626699 7.09286667552972094
0.015962098519750611558 8.88979415814726970 0.015962098519750611558 8.90522462336330811
0.020095091452091651263 11.17193742561706848 0.020095091452091651263 11.17398157040982021
0.025298221281360611101 14.03453285855334443 0.025298221281360611101 14.01045922868178906
0.031848573644296607199 17.62230362005456286 0.031848573644296607199 17.55117266028611311
0.040094978690191851456 22.11448379150553833 0.040094978690191851456 21.96245430066805326
0.050476587558435426217 27.73219373794372800 0.050476587558435426217 27.44530805890378389
0.063546258777947173257 34.74691919947721175 0.063546258777947173257 34.24008584572075620
0.080000000000012505552 43.48997972063429529 0.080000000000012505552 42.63027088230906969
0.100714032943542974863 54.36265868671274859 0.100714032943542974863 52.94419716418072852
0.126791455396883634421 67.84632756603690495 0.126791455396883634421 65.55288985688183345
0.159620985197506115583 84.51138207152054349 0.159620985197506115583 80.86134054267830606
0.200950914520774404082 105.02306253205289011 0.200950914520774404082 99.28942252232435806
0.252982212813464002465 130.14120251136426987 0.252982212813464002465 121.23735415660132730
0.318485736442809752589 160.70961021839002569 0.318485736442809752589 147.02931280068190745
0.400949786901833249431 197.62917530560019941 0.400949786901833249431 176.82794494683864173
0.504765875584169521062 241.80710514540729150 0.504765875584169521062 210.51314381923634755
0.635462587779443310865 294.07346595974871661 0.635462587779443310865 247.52271943881129346
0.800000000000011368684 355.05664502275192262 0.800000000000011368684 286.66432763732530020
1.007140329435344483500 425.01378791926578060 1.007140329435344483500 325.93249988819462715
1.267914553968907398485 503.62428059833678162 1.267914553968907398485 362.40477742997865107
1.596209851975117999245 589.77743792739045148 1.596209851975117999245 392.33774009425189888
2.009509145207687197399 681.41871956690727075 2.009509145207687197399 411.60302350948757066
2.529822128134725289783 775.54924338690682362 2.529822128134725289783 416.53630557347219110
3.184857364427983839050 868.47274772007267529 3.184857364427983839050 405.07503794753199600
4.009497869018204596614 956.32067964369434776 4.009497869018204596614 377.84966170869336111
5.009497869018190385759 1033.30049184592212441 5.009497869018190385759 339.90520019439333055
6.009497869018190385759 1088.96404146876034247 6.009497869018190385759 303.72212742865917789
7.009497869018204596614 1130.57266234290841567 7.009497869018204596614 272.00018731515683612
8.009497869018190385759 1162.62644294451524729 8.009497869018190385759 245.35265397574283952
9.009497869018204596614 1187.99737977888162277 9.009497869018204596614 223.65708481072732638
10.009497869018190385759 1208.56856927230865040 10.009497869018190385759 206.18885871600156179
11.009497869018190385759 1225.60818157027506459 11.009497869018190385759 191.42876956275370048
12.009497869018204596614 1239.98980754789590719 12.009497869018204596614 179.32471636682367944
13.009497869018190385759 1252.32910876836490388 13.009497869018190385759 169.36792599049940122
14.009497869018204596614 1263.06893182617477578 14.009497869018204596614 161.13990922424483188
15.009497869018190385759 1272.53393722936425547 15.009497869018190385759 154.30261108367020029
16.009497869018190385759 1280.96639654764408078 16.009497869018190385759 148.58607936960578400
17.009497869018204596614 1288.55012176225591247 17.009497869018204596614 143.90319010473595540
18.009497869018190385759 1295.42676657362881087 18.009497869018190385759 139.80800367230813208
19.009497869018204596614 1301.70737982720697801 19.009497869018204596614 136.48358690891970468
20.009497869018190385759 1307.47950370202283921 20.009497869018190385759 133.46280953168226802
21.009497869018190385759 1312.81350150783737263 21.009497869018190385759 130.85786723087616679
22.009497869018204596614 1317.76694171966551039 22.009497869018204596614 128.59628314522305459
23.009497869018190385759 1322.38643775597324748 23.009497869018190385759 126.68171743578355404
24.009497869018204596614 1326.71109494243546578 24.009497869018204596614 124.93864448582219495
25.009497869018204596614 1330.77351821827301137 25.009497869018204596614 123.39875546225671599
26.009497869018190385759 1334.60116884227477385 26.009497869018190385759 122.09697513836032101
27.009497869018204596614 1338.21761521139524120 27.009497869018204596614 120.86704865681855381
28.009497869018190385759 1341.64286748010772499 28.009497869018190385759 119.76487027231270588
29.009497869018190385759 1344.89439121996815629 29.009497869018190385759 118.80083965635719778
30.009497869018190385759 1347.98729050583688149 30.009497869018190385759 117.89802694914152426
31.009497869018218807469 1350.93474999745853893 31.009497869018218807469 117.07712044693543874
32.009497869018190385759 1353.74854868460784019 32.009497869018190385759 116.32845726290503308
33.009497869018190385759 1356.43881379969070622 33.009497869018190385759 115.67044572465991337
34.009497869018218807469 1359.01489886325998668 34.009497869018218807469 115.03511897305035916
35.009497869018190385759 1361.48485749243195642 35.009497869018190385759 114.46437505654274958
36.009497869018190385759 1363.85603766010376603 36.009497869018190385759 113.91984141637335881
37.009497869018190385759 1366.13515347530778854 37.009497869018190385759 113.41389366539313244
38.009497869018218807469 1368.32805673254006251 38.009497869018218807469 112.94283873266128637
39.009497869018190385759 1370.44021328935764359 39.009497869018190385759 112.51095629022029243
40.009497869018190385759 1372.47659553993594272 40.009497869018190385759 112.12222032294320684
41.009497869018218807469 1374.44162449058967468 41.009497869018218807469 111.72264518007655454
42.009497869018190385759 1376.33944463758439269 42.009497869018190385759 111.36268889065345888
43.009497869018190385759 1378.17387843679921389 43.009497869018190385759 111.00853163559899883
44.009497869018218807469 1379.94833477181850867 44.009497869018218807469 110.68663298919345550
46.009497869018190385759 1383.32995757310800400 46.009497869018190385759 110.08933942051224619
48.009497869018218807469 1386.50718328719563033 48.009497869018218807469 109.53885509669984799
50.009497869018190385759 1389.49967173860886760 50.009497869018190385759 109.04523928606022309
52.009497869018190385759 1392.32443363942434189 52.009497869018190385759 108.59174553378774419
54.009497869018218807469 1394.99635655276870239 54.009497869018218807469 108.16761880869717061
56.009497869018190385759 1397.52845159865864844 56.009497869018190385759 107.77553513392361140
58.009497869018218807469 1399.93224661586691582 58.009497869018218807469 107.42470677515446198
60.009497869018190385759 1402.21793375488687161 60.009497869018190385759 107.08348143278854536
62.009497869018190385759 1404.39459636890592265 62.009497869018190385759 106.76470622891061169
64.009497869018218807469 1406.47037432116303535 64.009497869018218807469 106.46574734107552729
66.009497869018190385759 1408.45253867482074384 66.009497869018190385759 106.18751991930434997
68.009497869018190385759 1410.34768815385064045 68.009497869018190385759 105.92734098155645484
70.009497869018190385759 1412.16174234625077588 70.009497869018190385759 105.67597755359362566
72.009497869018190385759 1413.90009267083610212 72.009497869018190385759 105.44031658142476715
74.009497869018218807469 1415.56764773728309592 74.009497869018218807469 105.21535102555945684
76.009497869018190385759 1417.16885661056812751 76.009497869018190385759 105.00136048124856814
78.009497869018190385759 1418.70780878111395396 78.009497869018190385759 104.79845104916770993
80.009497869018218807469 1420.18824570321589817 80.009497869018218807469 104.60406044782409651
82.009497869018190385759 1421.61358956196477266 82.009497869018190385759 104.41794775725905708
84.009497869018218807469 1422.98700701442203354 84.009497869018218807469 104.23825881279844907
86.009497869018190385759 1424.31141550429560994 86.009497869018190385759 104.06826596672428309
88.009497869018190385759 1425.58949706967132443 88.009497869018190385759 103.90327569093548732
91.009497869018218807469 1427.42516048195307121 91.009497869018218807469 103.66893297153666254
94.009497869018218807469 1429.16981707561376425 94.009497869018218807469 103.44739010818969405
97.009497869018218807469 1430.83031175867881757 97.009497869018218807469 103.23934318830062296
99.504748934509137825444 1432.15178068109389642 99.504748934509137825444 103.04486256202530114
nan nan nan nan

