Time Pressure difference Time.1 Pressure.1 difference.1
(hr) (psi) (hr) (psi)
0.000200000000020850166 0.84336317948408179 0.000200000000020850166 0.67220423005435181
0.000399999999999067768 1.68642641970258667 0.000399999999999067768 1.76036910085962450
0.000600000000019917934 2.52923674302056556 0.000600000000019917934 2.57599143179736467
0.000799999999998135536 3.37181422532405684 0.000799999999998135536 3.40658528215291634
0.001007140329434719206 4.24424303564376437 0.001007140329434719206 4.27878631587684488
0.001267914553977789183 5.34224759649053293 0.001267914553977789183 5.38494672865906754
0.001596209851982166583 6.72407009551819268 0.001596209851982166583 6.77662356316894066
0.002009509145224797066 8.46294650361041789 0.002009509145224797066 8.52727362412940515
0.002529822128153114136 10.65094302435553075 0.002529822128153114136 10.72912442346422601
0.003184857364431081805 13.40376148916504739 0.003184857364431081805 13.49790169799539896
0.004009497869034817086 16.86675152197068783 0.004009497869034817086 16.97871004378247761
0.005047658755856332391 21.22242187368138033 0.005047658755856332391 21.35332724267242099
0.006354625877790454069 26.69980828887875290 0.006354625877790454069 26.84922004851075172
0.008000000000009777068 33.58613130632768673 0.008000000000009777068 33.75063786580568603
0.010071403294361402914 42.24126435471668373 0.010071403294361402914 42.41218570110397934
0.012679145539692626699 53.11562860255386198 0.012679145539692626699 53.27530969620102042
0.015962098519750611558 66.77223167675060722 0.015962098519750611558 66.88813161548439723
0.020095091452091651263 83.91366333019043111 0.020095091452091651263 83.92901712885597476
0.025298221281360611101 105.41493569313401224 0.025298221281360611101 105.23411598432099368
0.031848573644296607199 132.36308052396537960 0.031848573644296607199 131.82880798170458547
0.040094978690191851456 166.10434492286381669 0.040094978690191851456 164.96243452501781235
0.050476587558435426217 208.29958852055511898 0.050476587558435426217 206.14475830909952947
0.063546258777947173257 260.98797087607329104 0.063546258777947173257 257.18108924119144376
0.080000000000012505552 326.65806990165316392 0.080000000000012505552 320.20070129378814272
0.100714032943542974863 408.32396969130911657 0.100714032943542974863 397.66974758873527662
0.126791455396883634421 509.60130482934386009 0.126791455396883634421 492.37503936946797012
0.159620985197506115583 634.77438089275426591 0.159620985197506115583 607.35851340945032462
0.200950914520774404082 788.83989190741942821 0.200950914520774404082 745.77388472323639235
0.252982212813464002465 977.50503219646941488 0.252982212813464002465 910.62723788736104780
0.318485736442809752589 1207.10773897368517282 0.318485736442809752589 1104.35350503623294571
0.400949786901833249431 1484.41469451761940945 0.400949786901833249431 1328.17434204514347584
0.504765875584169521062 1816.24003420328131142 0.504765875584169521062 1581.18761357559742464
0.635462587779443310865 2208.81847765322345367 0.635462587779443310865 1859.17064822929387446
0.800000000000011368684 2666.86991150422545616 0.800000000000011368684 2153.16761647590965367
1.007140329435344483500 3192.32578481581867891 1.007140329435344483500 2448.11522138243935842
1.267914553968907398485 3782.77792982750770534 1.267914553968907398485 2722.06255047406193626
1.596209851975117999245 4429.88386709906626493 1.596209851975117999245 2946.89235893015893453
2.009509145207687197399 5118.21171585810407123 2.009509145207687197399 3091.59604324903966699
2.529822128134725289783 5825.23653921721142979 2.529822128134725289783 3128.65047297408000304
3.184857364427983839050 6523.19530509743526636 3.184857364427983839050 3042.56361836146288624
4.009497869018204596614 7183.03088265708174731 4.009497869018204596614 2838.07079238974120017
5.009497869018190385759 7761.23480542048218922 5.009497869018190385759 2553.06572590455425598
6.009497869018190385759 8179.32991147646680474 6.009497869018190385759 2281.29064601970685544
7.009497869018204596614 8491.85688604229108023 7.009497869018204596614 2043.02362916717788721
8.009497869018190385759 8732.61639367213683727 8.009497869018190385759 1842.87104541780195177
9.009497869018204596614 8923.18031922804402711 9.009497869018204596614 1679.91321480057399640
10.009497869018190385759 9077.69280920089477149 10.009497869018190385759 1548.70742768907848586
11.009497869018190385759 9205.67923046117721242 11.009497869018190385759 1437.84275804912772401
12.009497869018204596614 9313.70122113752950099 12.009497869018204596614 1346.92786959969771488
13.009497869018190385759 9406.38308363794021716 13.009497869018190385759 1272.14131077308456952
14.009497869018204596614 9487.05108793882391183 14.009497869018204596614 1210.33976261766133575
15.009497869018190385759 9558.14379518944770098 15.009497869018190385759 1158.98405658401156870
16.009497869018190385759 9621.48093406897169189 16.009497869018190385759 1116.04655170948353771
17.009497869018204596614 9678.44313679205515655 17.009497869018204596614 1080.87285012001666473
18.009497869018190385759 9730.09438004192270455 18.009497869018190385759 1050.11344980533658600
19.009497869018204596614 9777.26876403546521033 19.009497869018204596614 1025.14338611588573258
20.009497869018190385759 9820.62382780630468915 20.009497869018190385759 1002.45399159352461993
21.009497869018190385759 9860.68807799220121524 21.009497869018190385759 982.88798053413654543
22.009497869018204596614 9897.89391780548794486 22.009497869018204596614 965.90097117967536633
23.009497869018190385759 9932.59146581153254374 23.009497869018190385759 951.52045540655194600
24.009497869018204596614 9965.07444645651594328 24.009497869018204596614 938.42804080462008187
25.009497869018204596614 9995.58775906169648806 25.009497869018204596614 926.86176324983932773
26.009497869018190385759 10024.33766819308766571 26.009497869018190385759 917.08394659479517941
27.009497869018204596614 10051.50119869892296265 27.009497869018204596614 907.84583213343717034
28.009497869018190385759 10077.22864907280927582 28.009497869018190385759 899.56724782314870481
29.009497869018190385759 10101.65120516331626277 29.009497869018190385759 892.32630675219411387
30.009497869018190385759 10124.88231535495287972 30.009497869018190385759 885.54518019577415089
31.009497869018218807469 10147.02101109202158113 31.009497869018218807469 879.37926024587068241
32.009497869018190385759 10168.15576567549760512 32.009497869018190385759 873.75596788582004137
33.009497869018190385759 10188.36264587323239539 33.009497869018190385759 868.81357010966780763
34.009497869018218807469 10207.71190701737577911 34.009497869018218807469 864.04156028646718823
35.009497869018190385759 10226.26404072093282593 35.009497869018190385759 859.75463931358774516
36.009497869018190385759 10244.07423842477874132 36.009497869018190385759 855.66458663853768485
37.009497869018190385759 10261.19293054786794528 37.009497869018190385759 851.86435686450840876
38.009497869018218807469 10277.66407056885691418 38.009497869018218807469 848.32621092532258444
39.009497869018190385759 10293.52871315117408813 39.009497869018190385759 845.08229391321015100
40.009497869018190385759 10308.82420649996493012 40.009497869018190385759 842.16245487010667148
41.009497869018218807469 10323.58375728487408196 41.009497869018218807469 839.16120157479713271
42.009497869018190385759 10337.83849527785605460 42.009497869018190385759 836.45752988979700149
43.009497869018190385759 10351.61713136973776272 43.009497869018190385759 833.79741539627684688
44.009497869018218807469 10364.94527006388125301 44.009497869018218807469 831.37959889660862700
46.009497869018190385759 10390.34501466023357352 46.009497869018190385759 826.89326053629201851
48.009497869018218807469 10414.20951002382389561 48.009497869018218807469 822.75851161521222821
50.009497869018190385759 10436.68642328110581730 50.009497869018190385759 819.05090841529670342
52.009497869018190385759 10457.90352378056559246 52.009497869018190385759 815.64466645378342946
54.009497869018218807469 10477.97263366301740461 54.009497869018218807469 812.45900349643648042
56.009497869018190385759 10496.99148089659138350 56.009497869018190385759 809.51401945035956942
58.009497869018218807469 10515.04665235917673272 58.009497869018218807469 806.87890866671580170
60.009497869018190385759 10532.21470242559553299 60.009497869018190385759 804.31592720627838844
62.009497869018190385759 10548.56385717089324316 62.009497869018190385759 801.92157123048411904
64.009497869018218807469 10564.15525601229091990 64.009497869018218807469 799.67605780630060508
66.009497869018190385759 10579.04351271309860749 66.009497869018190385759 797.58626072721926903
68.009497869018190385759 10593.27819102225657844 68.009497869018190385759 795.63202781702409538
70.009497869018190385759 10606.90375362294980732 70.009497869018190385759 793.74400918032551999
72.009497869018190385759 10619.96069606094715709 72.009497869018190385759 791.97393343381270370
74.009497869018218807469 10632.48588744892549585 74.009497869018218807469 790.28419214753546385
76.009497869018190385759 10644.51274520826700609 76.009497869018190385759 788.67688539248922552
78.009497869018190385759 10656.07198595592308266 78.009497869018190385759 787.15281010263743156
80.009497869018218807469 10667.19171217082293879 80.009497869018218807469 785.69272069698990890
82.009497869018190385759 10677.89762826542391849 82.009497869018190385759 784.29480759896807740
84.009497869018218807469 10688.21351935277016310 84.009497869018218807469 782.94514397168620690
86.009497869018190385759 10698.16129867671043030 86.009497869018190385759 781.66830881672899523
88.009497869018190385759 10707.76111132330879627 88.009497869018190385759 780.42904852302660856
91.009497869018218807469 10721.54898317555853282 91.009497869018218807469 778.66887431954194199
94.009497869018218807469 10734.65329270127585914 94.009497869018218807469 777.00484125706918803
97.009497869018218807469 10747.12545276518721948 97.009497869018218807469 775.44217772545800926
99.504748934509137825444 10757.05115267132714507 99.504748934509137825444 773.98141213254564263
nan nan nan nan

