Time Pressure difference Time.1 Pressure.1 difference.1
(hr) (psi) (hr) (psi)
0.000200000000020850166 0.53812226541045460 0.000200000000020850166 0.42891137755933495
0.000399999999999067768 1.07605314945520081 0.000399999999999067768 1.12323353871417853
0.000600000000019917934 1.61382265555651472 0.000600000000019917934 1.64365528241902847
0.000799999999998135536 2.15144359347600078 0.000799999999998135536 2.17362985951966170
0.001007140329434719206 2.70811168053403906 0.001007140329434719206 2.73015260983463426
0.001267914553977789183 3.40871222379622729 0.001267914553977789183 3.43595713357240351
0.001596209851982166583 4.29040764477344183 0.001596209851982166583 4.32394028143028031
0.002009509145224797066 5.39992740417745498 0.002009509145224797066 5.44097242091886013
0.002529822128153114136 6.79601591396255245 0.002529822128153114136 6.84590088952796361
0.003184857364431081805 8.55249870166645465 0.003184857364431081805 8.61256646805031778
0.004009497869034817086 10.76211857466965860 0.004009497869034817086 10.83355561965213276
0.005047658755856332391 13.54132835529768641 0.005047658755856332391 13.62485475937776691
0.006354625877790454069 17.03626820799265573 0.006354625877790454069 17.13160293036139592
0.008000000000009777068 21.43020409782447189 0.008000000000009777068 21.53517031476950194
0.010071403294361402914 26.95275940582021335 0.010071403294361402914 27.06181868699632886
0.012679145539692626699 33.89133304324689533 0.012679145539692626699 33.99322028939058526
0.015962098519750611558 42.60516163200951212 0.015962098519750611558 42.67911356530415645
0.020095091452091651263 53.54254455092031861 0.020095091452091651263 53.55234130411224669
0.025298221281360611101 67.26179821840010220 0.025298221281360611101 67.14642311820087173
0.031848573644296607199 84.45652179389112746 0.031848573644296607199 84.11562008300084869
0.040094978690191851456 105.98571120817840097 0.040094978690191851456 105.25709579653504022
0.050476587558435426217 132.90910628481179856 0.050476587558435426217 131.53418010452406861
0.063546258777947173257 166.52782757082783860 0.063546258777947173257 164.09878179393575692
0.080000000000012505552 208.42975466111400351 0.080000000000012505552 204.30952045077015100
0.100714032943542974863 260.53807533557892384 0.100714032943542974863 253.73996714981427658
0.126791455396883634421 325.15980692759904969 0.126791455396883634421 314.16829435112998681
0.159620985197506115583 405.02862370573177486 0.159620985197506115583 387.53546171194716408
0.200950914520774404082 503.33275154250537753 0.200950914520774404082 475.85375090328784609
0.252982212813464002465 623.71376314705696586 0.252982212813464002465 581.04124547645221810
0.318485736442809752589 770.21568749109883356 0.318485736442809752589 704.65159542252729352
0.400949786901833249431 947.15612164980245780 0.400949786901833249431 847.46429911558971071
0.504765875584169521062 1158.88294095613719037 0.504765875584169521062 1008.90373371145130932
0.635462587779443310865 1409.37431463672169230 0.635462587779443310865 1186.27555168082153614
0.800000000000011368684 1701.64184688681848456 0.800000000000011368684 1373.86533319518116514
1.007140329435344483500 2036.91793173159248909 1.007140329435344483500 1562.06168464934762596
1.267914553968907398485 2413.66599664536215641 1.267914553968907398485 1736.85845183108290257
1.596209851975117999245 2826.56298028904893727 1.596209851975117999245 1880.31494697022958462
2.009509145207687197399 3265.76230785028883474 2.009509145207687197399 1972.64560156028483107
2.529822128134725289783 3716.89155904687959264 2.529822128134725289783 1996.28881263730750106
3.184857364427983839050 4162.23605759175552521 3.184857364427983839050 1941.35962631150528068
4.009497869018204596614 4583.25540540348265495 4.009497869018204596614 1810.87948981870090392
5.009497869018190385759 4952.18828314304937521 5.009497869018190385759 1629.02714463535176037
6.009497869018190385759 5218.96099874287392595 6.009497869018190385759 1455.61641812105563076
7.009497869018204596614 5418.37416693230898090 7.009497869018204596614 1303.58608291041832672
8.009497869018190385759 5571.99487840815800155 8.009497869018190385759 1175.87531201707884065
9.009497869018204596614 5693.58744234767709713 9.009497869018204596614 1071.89728794474513052
10.009497869018190385759 5792.17677273469416832 10.009497869018190385759 988.17919695742978092
11.009497869018190385759 5873.84069241457746102 11.009497869018190385759 917.44010301556772902
12.009497869018204596614 5942.76596654436070821 12.009497869018204596614 859.43030732840691144
13.009497869018190385759 6001.90321017134920112 13.009497869018190385759 811.71146752483787168
14.009497869018204596614 6053.37480660396340681 14.009497869018204596614 772.27793531915858694
15.009497869018190385759 6098.73672138813890342 15.009497869018190385759 739.50955089729347947
16.009497869018190385759 6139.15006345426536427 16.009497869018190385759 712.11254334914769970
17.009497869018204596614 6175.49576874207104993 17.009497869018204596614 689.66936294640117922
18.009497869018190385759 6208.45272572694739210 18.009497869018190385759 670.04280278506189461
19.009497869018204596614 6238.55314628298401658 19.009497869018204596614 654.11022763015591863
20.009497869018190385759 6266.21658440895407693 20.009497869018190385759 639.63287234813651594
21.009497869018190385759 6291.78026278200559318 21.009497869018190385759 627.14844517316203110
22.009497869018204596614 6315.52008364906305360 22.009497869018204596614 616.30959403673568886
23.009497869018190385759 6337.65944613418287190 23.009497869018190385759 607.13386059964409469
24.009497869018204596614 6358.38576613152417849 24.009497869018204596614 598.78002209131079780
25.009497869018204596614 6377.85530583127911086 25.009497869018204596614 591.39996136355625822
26.009497869018190385759 6396.19967585890208284 26.009497869018190385759 585.16105862606752908
27.009497869018204596614 6413.53182993905738840 27.009497869018204596614 579.26652208119708121
28.009497869018190385759 6429.94766858984985447 28.009497869018190385759 573.98423011989859788
29.009497869018190385759 6445.53089718014325626 29.009497869018190385759 569.36402413083783358
30.009497869018190385759 6460.35390338723300374 30.009497869018190385759 565.03721063773753031
31.009497869018218807469 6474.47987591374658223 31.009497869018218807469 561.10294021605352555
32.009497869018190385759 6487.96526665882447560 32.009497869018190385759 557.51490258592264126
33.009497869018190385759 6500.85861132148056640 33.009497869018190385759 554.36132136188859931
34.009497869018218807469 6513.20473751503050153 34.009497869018218807469 551.31645907824884034
35.009497869018190385759 6525.04224294521100092 35.009497869018190385759 548.58111601172709015
36.009497869018190385759 6536.40634345249691251 36.009497869018190385759 545.97138812143384712
37.009497869018190385759 6547.32921702610474313 37.009497869018190385759 543.54658667784701720
38.009497869018218807469 6557.83890893298848823 38.009497869018218807469 541.28901229653217797
39.009497869018190385759 6567.96161480158843915 39.009497869018190385759 539.21917570201867420
40.009497869018190385759 6577.72116529139657359 40.009497869018190385759 537.35612258477226533
41.009497869018218807469 6587.13874848452996957 41.009497869018218807469 535.44112171488541208
42.009497869018190385759 6596.23422726308945130 42.009497869018190385759 533.71599786853914793
43.009497869018190385759 6605.02592110080877319 43.009497869018190385759 532.01866643135224422
44.009497869018218807469 6613.53016738790029194 44.009497869018218807469 530.47593736302337675
46.009497869018190385759 6629.73690777630326920 46.009497869018190385759 527.61335263015871533
48.009497869018218807469 6644.96405619863344327 48.009497869018218807469 524.97510553751703810
50.009497869018190385759 6659.30583418429523590 50.009497869018190385759 522.60940605985899765
52.009497869018190385759 6672.84376714598147373 52.009497869018190385759 520.43599526193088423
54.009497869018218807469 6685.64920510845422541 54.009497869018218807469 518.40332866094115616
56.009497869018190385759 6697.78450506912759010 56.009497869018190385759 516.52423134554499029
58.009497869018218807469 6709.30491526271089242 58.009497869018218807469 514.84285395203653479
60.009497869018190385759 6720.25928251416189596 60.009497869018190385759 513.20749990380875261
62.009497869018190385759 6730.69113963468225847 62.009497869018190385759 511.67974022300126080
64.009497869018218807469 6740.63949767253689060 64.009497869018218807469 510.24695207167309263
66.009497869018190385759 6750.13920387117741484 66.009497869018190385759 508.91352139103639729
68.009497869018190385759 6759.22188322623242129 68.009497869018190385759 507.66658974123720327
70.009497869018190385759 6767.91590591129079257 70.009497869018190385759 506.46190723833387892
72.009497869018190385759 6776.24711080022916576 72.009497869018190385759 505.33248020875424800
74.009497869018218807469 6784.23902285942313028 74.009497869018218807469 504.25431195212564717
76.009497869018190385759 6791.91296464472270600 76.009497869018190385759 503.22874245457643383
78.009497869018190385759 6799.28853541763510293 78.009497869018190385759 502.25628021341861995
80.009497869018218807469 6806.38366644430152519 80.009497869018218807469 501.32464525734962990
82.009497869018190385759 6813.21475886363896279 82.009497869018190385759 500.43268295516003263
84.009497869018218807469 6819.79698917282257753 84.009497869018218807469 499.57150705096739784
86.009497869018190385759 6826.14433949095746357 86.009497869018190385759 498.75680059607861949
88.009497869018190385759 6832.26966373390587250 88.009497869018190385759 497.96606942248342875
91.009497869018218807469 6841.06725060610096989 91.009497869018218807469 496.84296024136460801
94.009497869018218807469 6849.42867887349711964 94.009497869018218807469 495.78119555554616227
97.009497869018218807469 6857.38675339159453870 97.009497869018218807469 494.78411142837410353
99.504748934509137825444 6863.72001556050145155 99.504748934509137825444 493.85204501948425104
nan nan nan nan

