Time Pressure difference Time.1 Pressure.1 difference.1
(hr) (psi) (hr) (psi)
0.000200000000020850166 0.55808352409646833 0.000200000000020850166 0.44482153685056219
0.000399999999999067768 1.11596856767301356 0.000399999999999067768 1.16489907956292704
0.000600000000019917934 1.67368624710729730 0.000600000000019917934 1.70462549382251627
0.000799999999998135536 2.23124984732982456 0.000799999999998135536 2.25425909696706794
0.001007140329434719206 2.80856713699898020 0.001007140329434719206 2.83142565873112728
0.001267914553977789183 3.53515595389067805 0.001267914553977789183 3.56341149401403801
0.001596209851982166583 4.44955723283304483 0.001596209851982166583 4.48433373854670503
0.002009509145224797066 5.60023383029841249 0.002009509145224797066 5.64280138243671558
0.002529822128153114136 7.04810923998280181 0.002529822128153114136 7.09984466286439453
0.003184857364431081805 8.86974749430941323 0.003184857364431081805 8.93204343131648137
0.004009497869034817086 11.16133162844411331 0.004009497869034817086 11.23541857926828591
0.005047658755856332391 14.04363419846174388 0.005047658755856332391 14.13025895447060520
0.006354625877790454069 17.66821633317321982 0.006354625877790454069 17.76708742855099743
0.008000000000009777068 22.22514211690914721 0.008000000000009777068 22.33400198023235816
0.010071403294361402914 27.95255264498510428 0.010071403294361402914 28.06565740181535418
0.012679145539692626699 35.14850768472745557 0.012679145539692626699 35.25417436504031343
0.015962098519750611558 44.18556948234679993 0.015962098519750611558 44.26226460945762398
0.020095091452091651263 55.52866675991890588 0.020095091452091651263 55.53882691662955295
0.025298221281360611101 69.75682628214292436 0.025298221281360611101 69.63717142552208372
0.031848573644296607199 87.58937577078971515 0.031848573644296607199 87.23582855594061414
0.040094978690191851456 109.91717499333493890 0.040094978690191851456 109.16153211665381662
0.050476587558435426217 137.83927406044622899 0.050476587558435426217 136.41334598166250203
0.063546258777947173257 172.70505765073488647 0.063546258777947173257 170.18590816650836928
0.080000000000012505552 216.16130661144899250 0.080000000000012505552 211.88823527429175897
0.100714032943542974863 270.20254799099444654 0.100714032943542974863 263.15226886789088212
0.126791455396883634421 337.22137627267233029 0.126791455396883634421 325.82214143679789231
0.159620985197506115583 420.05286940733543588 0.159620985197506115583 401.91081114175659650
0.200950914520774404082 522.00351821487026882 0.200950914520774404082 493.50520379614556532
0.252982212813464002465 646.84997692685499260 0.252982212813464002465 602.59455288207027479
0.318485736442809752589 798.78628486325715130 0.318485736442809752589 730.79013992042644077
0.400949786901833249431 982.29019725968703369 0.400949786901833249431 878.90037821724990863
0.504765875584169521062 1201.87087075976523920 0.504765875584169521062 1046.32829261264896559
0.635462587779443310865 1461.65404191845459536 0.635462587779443310865 1230.27959069216558419
0.800000000000011368684 1764.76302822419643235 0.800000000000011368684 1424.82788033070573874
1.007140329435344483500 2112.47593847279495094 1.007140329435344483500 1620.00524018502665058
1.267914553968907398485 2503.19920208506664494 1.267914553968907398485 1801.28596781863461729
1.596209851975117999245 2931.41230258725181557 1.596209851975117999245 1950.06387854254103331
2.009509145207687197399 3386.90341355107238996 2.009509145207687197399 2045.81947240641602548
2.529822128134725289783 3854.76698009344090678 2.529822128134725289783 2070.33971140592439042
3.184857364427983839050 4316.63121274199147592 3.184857364427983839050 2013.37296639106625662
4.009497869018204596614 4753.26797067347342818 4.009497869018204596614 1878.05276301135745598
5.009497869018190385759 5135.88614836010128784 5.009497869018190385759 1689.45473578102178180
6.009497869018190385759 5412.55460611509806768 6.009497869018190385759 1509.61146299726169673
7.009497869018204596614 5619.36486245993728517 7.009497869018204596614 1351.94167176644623396
8.009497869018190385759 5778.68402382051681343 8.009497869018190385759 1219.49356161276637067
9.009497869018204596614 5904.78697653058952710 9.009497869018204596614 1111.65854746665195307
10.009497869018190385759 6007.03340727199338289 10.009497869018190385759 1024.83499406249643471
11.009497869018190385759 6091.72659136040419980 11.009497869018190385759 951.47188427116839193
12.009497869018204596614 6163.20859899731931364 12.009497869018204596614 891.31025690473097711
13.009497869018190385759 6224.53949617461330490 13.009497869018190385759 841.82132103425999503
14.009497869018204596614 6277.92039448417290259 14.009497869018204596614 800.92503029235763279
15.009497869018190385759 6324.96497689558054844 15.009497869018190385759 766.94112620105704536
16.009497869018190385759 6366.87742284051182651 16.009497869018190385759 738.52784634818874565
17.009497869018204596614 6404.57134594424951501 17.009497869018204596614 715.25215229835418995
18.009497869018190385759 6438.75081756225881691 18.009497869018190385759 694.89755899347221657
19.009497869018204596614 6469.96779158559911593 19.009497869018204596614 678.37397641396387371
20.009497869018190385759 6498.65738506709112698 20.009497869018190385759 663.35959404265781814
21.009497869018190385759 6525.16932971673213615 21.009497869018190385759 650.41206601420674360
22.009497869018204596614 6549.78976217700437701 22.009497869018204596614 639.17115548477534048
23.009497869018190385759 6572.75036840191205556 23.009497869018190385759 629.65505481045011038
24.009497869018204596614 6594.24551634351246321 24.009497869018204596614 620.99133666656814512
25.009497869018204596614 6614.43726462563881796 25.009497869018204596614 613.33751789017969713
26.009497869018190385759 6633.46210587530640623 26.009497869018190385759 606.86718753955381089
27.009497869018204596614 6651.43718375441585522 27.009497869018204596614 600.75399739796478116
28.009497869018190385759 6668.46195614186854073 28.009497869018190385759 595.27576261275419256
29.009497869018190385759 6684.62323339702743397 29.009497869018190385759 590.48417340307901213
30.009497869018190385759 6699.99608836604875250 30.009497869018190385759 585.99685987314046542
31.009497869018218807469 6714.64605369107175648 31.009497869018218807469 581.91665051773088635
32.009497869018190385759 6728.63167531386625342 32.009497869018190385759 578.19551721043910675
33.009497869018190385759 6742.00328933031414635 33.009497869018190385759 574.92495615738368997
34.009497869018218807469 6754.80738620183274179 34.009497869018218807469 571.76714689567995720
35.009497869018190385759 6767.08399538831054087 35.009497869018190385759 568.93033824400140475
36.009497869018190385759 6778.86963903651576402 36.009497869018190385759 566.22380437323351998
37.009497869018190385759 6790.19768875504814787 37.009497869018190385759 563.70905666280589230
38.009497869018218807469 6801.09723012988433766 38.009497869018218807469 561.36773918233870972
39.009497869018190385759 6811.59543049747389887 39.009497869018190385759 559.22112348694679440
40.009497869018190385759 6821.71700449849595316 40.009497869018190385759 557.28896175329555263
41.009497869018218807469 6831.48392617174522456 41.009497869018218807469 555.30292530245458238
42.009497869018190385759 6840.91679519866011105 42.009497869018190385759 553.51380922687758357
43.009497869018190385759 6850.03461060068366351 43.009497869018190385759 551.75351649990318492
44.009497869018218807469 6858.85431579177929962 44.009497869018218807469 550.15356100554663499
46.009497869018190385759 6875.66223356707723724 46.009497869018190385759 547.18479074936090001
48.009497869018218807469 6891.45422211635741405 48.009497869018218807469 544.44867977693036210
50.009497869018190385759 6906.32799804893693363 50.009497869018190385759 541.99522637738084541
52.009497869018190385759 6920.36811090410174074 52.009497869018190385759 539.74119446793758925
54.009497869018218807469 6933.64855738450205536 54.009497869018218807469 537.63312756026516581
56.009497869018190385759 6946.23400757555555174 56.009497869018190385759 535.68432648046473332
58.009497869018218807469 6958.18175910553145513 58.009497869018218807469 533.94057960095290127
60.009497869018190385759 6969.54247073725218797 60.009497869018190385759 532.24456326963786523
62.009497869018190385759 6980.36129010026616015 62.009497869018190385759 530.66013244147427486
64.009497869018218807469 6990.67867532963282429 64.009497869018218807469 529.17419604341989725
66.009497869018190385759 7000.53076630225768895 66.009497869018190385759 527.79130271002384234
68.009497869018190385759 7009.95036112024990871 68.009497869018190385759 526.49811702684723969
70.009497869018190385759 7018.96688232840187993 70.009497869018190385759 525.24874769230609672
72.009497869018190385759 7027.60712727504414943 72.009497869018190385759 524.07742537878527855
74.009497869018218807469 7035.89549356827410520 74.009497869018218807469 522.95926324555853171
76.009497869018190385759 7043.85409470882405003 76.009497869018190385759 521.89565098457626391
78.009497869018190385759 7051.50325697872267483 78.009497869018190385759 520.88711595549284539
80.009497869018218807469 7058.86157679153984645 80.009497869018218807469 519.92092267029613595
82.009497869018190385759 7065.94606367465439689 82.009497869018190385759 518.99587366756168194
84.009497869018218807469 7072.77245708649752487 84.009497869018218807469 518.10275306213156910
86.009497869018190385759 7079.35525780283296626 86.009497869018190385759 517.25782565682959557
88.009497869018190385759 7085.70779654629222932 88.009497869018190385759 516.43776287864966434
91.009497869018218807469 7094.83172358067076857 91.009497869018218807469 515.27299276963776720
94.009497869018218807469 7103.50331302027279889 94.009497869018218807469 514.17184268589107887
97.009497869018218807469 7111.75658659313648968 97.009497869018218807469 513.13777243962749708
99.504748934509137825444 7118.32477657047365938 99.504748934509137825444 512.17113169717754317
nan nan nan nan

