Time Pressure difference Time.1 Pressure.1 difference.1
(hr) (psi) (hr) (psi)
0.000200000000020850166 0.42833534263737882 0.000200000000020850166 0.34140550145758503
0.000399999999999067768 0.85651834925723092 0.000399999999999067768 0.89407306404606179
0.000600000000019917934 1.28457290202721031 0.000600000000019917934 1.30831911969984493
0.000799999999998135536 1.71250919727996975 0.000799999999998135536 1.73016905355892692
0.001007140329434719206 2.15560666997686257 0.001007140329434719206 2.17315084090392041
0.001267914553977789183 2.71327170827674991 0.001267914553977789183 2.73495815114341223
0.001596209851982166583 3.41508491044563023 0.001596209851982166583 3.44177626728994479
0.002009509145224797066 4.29824206051219360 0.002009509145224797066 4.33091313257065380
0.002529822128153114136 5.40950262085118183 0.002529822128153114136 5.44921013617758998
0.003184857364431081805 6.80763034213017626 0.003184857364431081805 6.85544317008641979
0.004009497869034817086 8.56644677891016038 0.004009497869034817086 8.62330934176329045
0.005047658755856332391 10.77864621789537658 0.005047658755856332391 10.84513168636715541
0.006354625877790454069 13.56055351949956389 0.006354625877790454069 13.63643819031857518
0.008000000000009777068 17.05804499285873632 0.008000000000009777068 17.14159615472379272
0.010071403294361402914 21.45389659041330788 0.010071403294361402914 21.54070575549166477
0.012679145539692626699 26.97687251510378559 0.012679145539692626699 27.05797287331708390
0.015962098519750611558 33.91291845515439718 0.015962098519750611558 33.97178282246002823
0.020095091452091651263 42.61887240142807798 0.020095091452091651263 42.62667043526709421
0.025298221281360611101 53.53914386781460877 0.025298221281360611101 53.44730742793423417
0.031848573644296607199 67.22582492094889517 0.031848573644296607199 66.95447348183220981
0.040094978690191851456 84.36266038981742099 0.040094978690191851456 83.78269603588182690
0.050476587558435426217 105.79318351882237437 0.050476587558435426217 104.69876778026258535
0.063546258777947173257 132.55306213133900428 0.063546258777947173257 130.61958674478660214
0.080000000000012505552 165.90621893427157829 0.080000000000012505552 162.62658892140126454
0.100714032943542974863 207.38347573079306585 0.100714032943542974863 201.97230770039314507
0.126791455396883634421 258.82117552969634744 0.126791455396883634421 250.07213537995659181
0.159620985197506115583 322.39527234691166768 0.159620985197506115583 308.47103984799502996
0.200950914520774404082 400.64353484449804910 0.200950914520774404082 378.77075999257067451
0.252982212813464002465 496.46458735816736407 0.252982212813464002465 462.49805474555324736
0.318485736442809752589 613.07740194422865443 0.318485736442809752589 560.88960068408289317
0.400949786901833249431 753.91870579543774511 0.400949786901833249431 674.56586405645850846
0.504765875584169521062 922.44932703618337655 0.504765875584169521062 803.06865975486459774
0.635462587779443310865 1121.83581458718958856 0.635462587779443310865 944.25333711842836237
0.800000000000011368684 1354.47534953123886226 0.800000000000011368684 1093.57132394979635137
1.007140329435344483500 1621.34889465497690253 1.007140329435344483500 1243.37212920311299058
1.267914553968907398485 1921.23336672698837901 1.267914553968907398485 1382.50711389954813058
1.596209851975117999245 2249.89170764893424348 1.596209851975117999245 1496.69582332251661683
2.009509145207687197399 2599.48622649597973577 2.009509145207687197399 1570.18931190656371655
2.529822128134725289783 2958.57674329079281961 2.529822128134725289783 1589.00886940991244956
3.184857364427983839050 3313.06270426546279850 3.184857364427983839050 1545.28625587391843510
4.009497869018204596614 3648.18629641853794965 4.009497869018204596614 1441.42648725908952656
5.009497869018190385759 3941.85002444925885356 5.009497869018190385759 1296.67539333416721092
6.009497869018190385759 4154.19615819564114645 6.009497869018190385759 1158.64367130192204058
7.009497869018204596614 4312.92534153035467170 7.009497869018204596614 1037.63034420226495058
8.009497869018190385759 4435.20457864018771943 8.009497869018190385759 935.97493924079685712
9.009497869018204596614 4531.99000434165918705 9.009497869018204596614 853.21036057425612853
10.009497869018190385759 4610.46528277954712394 10.009497869018190385759 786.57231287956153665
11.009497869018190385759 4675.46824821253085247 11.009497869018190385759 730.26530610976408298
12.009497869018204596614 4730.33148805308428564 12.009497869018204596614 684.09058465862369758
13.009497869018190385759 4777.40363715339208284 13.009497869018190385759 646.10727322301625009
14.009497869018204596614 4818.37407326281481801 14.009497869018204596614 614.71891296656360737
15.009497869018190385759 4854.48131609720439883 15.009497869018190385759 588.63588672659375334
16.009497869018190385759 4886.64958682990163652 16.009497869018190385759 566.82837685442200382
17.009497869018204596614 4915.58009413008676347 17.009497869018204596614 548.96402151065944963
18.009497869018190385759 4941.81322063273273670 18.009497869018190385759 533.34164363880506698
19.009497869018204596614 4965.77259711860460811 19.009497869018204596614 520.65960931921222254
20.009497869018190385759 4987.79218078919802792 20.009497869018190385759 509.13590302826941070
21.009497869018190385759 5008.14039464100915211 21.009497869018190385759 499.19853054741645337
22.009497869018204596614 5027.03685174538986757 22.009497869018204596614 490.57100607251760493
23.009497869018190385759 5044.65937366167599976 23.009497869018190385759 483.26729244021134946
24.009497869018204596614 5061.15713996558770305 24.009497869018204596614 476.61779192739578548
25.009497869018204596614 5076.65453246230026707 25.009497869018204596614 470.74340046712745789
26.009497869018190385759 5091.25631076867830416 26.009497869018190385759 465.77734960189303592
27.009497869018204596614 5105.05238395458127343 27.009497869018204596614 461.08540783897444726
28.009497869018190385759 5118.11908705374389683 28.009497869018190385759 456.88080140919294081
29.009497869018190385759 5130.52304798728619062 29.009497869018190385759 453.20320313351078312
30.009497869018190385759 5142.32188600374774978 30.009497869018190385759 449.75913984302138715
31.009497869018218807469 5153.56589813845312165 31.009497869018218807469 446.62753355682775691
32.009497869018190385759 5164.30001905609606183 32.009497869018190385759 443.77152215108219480
33.009497869018190385759 5174.56288227289405768 33.009497869018190385759 441.26132998666560070
34.009497869018218807469 5184.39016973762136331 34.009497869018218807469 438.83767608237729974
35.009497869018190385759 5193.81260450816625962 35.009497869018190385759 436.66039373421864411
36.009497869018190385759 5202.85821774039595766 36.009497869018190385759 434.58309873653541899
37.009497869018190385759 5211.55262251691419806 37.009497869018190385759 432.65300176057382942
38.009497869018218807469 5219.91814235006040690 38.009497869018218807469 430.85601442459676491
39.009497869018190385759 5227.97562847421613696 39.009497869018190385759 429.20846288491441101
40.009497869018190385759 5235.74404965234862175 40.009497869018190385759 427.72550715789446940
41.009497869018218807469 5243.24027120484151965 41.009497869018218807469 426.20120198325503225
42.009497869018190385759 5250.48010361745127739 42.009497869018190385759 424.82803539767803613
43.009497869018190385759 5257.47812885149323847 43.009497869018190385759 423.47699105432207034
44.009497869018218807469 5264.24735116656756873 44.009497869018218807469 422.24900732914539958
46.009497869018190385759 5277.14761592704144277 46.009497869018190385759 419.97044297454669959
48.009497869018218807469 5289.26814365115296823 48.009497869018218807469 417.87044722074381298
50.009497869018190385759 5300.68393292876680789 50.009497869018190385759 415.98739431348900553
52.009497869018190385759 5311.45987647632227890 52.009497869018190385759 414.25739962889400658
54.009497869018218807469 5321.65276759019161545 54.009497869018218807469 412.63943471465961466
56.009497869018190385759 5331.31224128377198213 56.009497869018190385759 411.14370810348640362
58.009497869018218807469 5340.48227412719643326 58.009497869018218807469 409.80536288299663283
60.009497869018190385759 5349.20174728716119716 60.009497869018190385759 408.50365139174886053
62.009497869018190385759 5357.50531207397398248 62.009497869018190385759 407.28758302139976877
64.009497869018218807469 5365.42402055851107434 64.009497869018218807469 406.14711022706586618
66.009497869018190385759 5372.98561050024181895 66.009497869018190385759 405.08572413660550637
68.009497869018190385759 5380.21525480913351203 68.009497869018190385759 404.09318967038200299
70.009497869018190385759 5387.13553561717890261 70.009497869018190385759 403.13428474148679470
72.009497869018190385759 5393.76702018874584610 72.009497869018190385759 402.23528177358338098
74.009497869018218807469 5400.12843396074731572 74.009497869018218807469 401.37707983824532221
76.009497869018190385759 5406.23674929216758756 76.009497869018190385759 400.56074553957785156
78.009497869018190385759 5412.10756683165709546 78.009497869018190385759 399.78668363201018110
80.009497869018218807469 5417.75515953449030349 80.009497869018218807469 399.04511948614373296
82.009497869018190385759 5423.19258240305134677 82.009497869018190385759 398.33513403695121724
84.009497869018218807469 5428.43191564760945766 84.009497869018218807469 397.64965398956445597
86.009497869018190385759 5433.48428877564674622 86.009497869018190385759 397.00116276194819420
88.009497869018190385759 5438.35993326578318374 88.009497869018190385759 396.37175541356873509
91.009497869018218807469 5445.36264924596889614 91.009497869018218807469 395.47778133586211879
94.009497869018218807469 5452.01819106622951949 94.009497869018218807469 394.63263633864960411
97.009497869018218807469 5458.35267078310789657 97.009497869018218807469 393.83897586648015476
99.504748934509137825444 5463.39383000565430848 99.504748934509137825444 393.09706829217054747
nan nan nan nan

