Time Pressure difference Time.1 Pressure.1 difference.1
(hr) (psi) (hr) (psi)
0.000200000000020850166 0.62961136772135107 0.000200000000020850166 0.50183294097745990
0.000399999999999067768 1.25899881628684240 0.000399999999999067768 1.31420060093760926
0.000600000000019917934 1.88819745016426843 0.000600000000019917934 1.92310208468501465
0.000799999999998135536 2.51722225697269320 0.000799999999998135536 2.54318053115360687
0.001007140329434719206 3.16853252266501961 0.001007140329434719206 3.19432075061022847
0.001267914553977789183 3.98824598672912511 0.001267914553977789183 4.02012295226322891
0.001596209851982166583 5.01984325671328602 0.001596209851982166583 5.05907695988055917
0.002009509145224797066 6.31799852389850614 0.002009509145224797066 6.36602182787569859
0.002529822128153114136 7.95144365822202737 0.002529822128153114136 8.00980985065327289
0.003184857364431081805 10.00655566794668694 0.003184857364431081805 10.07683588302023381
0.004009497869034817086 12.59184507113590534 0.004009497869034817086 12.67542751789283528
0.005047658755856332391 15.84356346979961039 0.005047658755856332391 15.94129065355327590
0.006354625877790454069 19.93269711507023345 0.006354625877790454069 20.04424021373041498
0.008000000000009777068 25.07367001862924738 0.008000000000009777068 25.19648211480759414
0.010071403294361402914 31.53514508532596849 0.010071403294361402914 31.66274612991687576
0.012679145539692626699 39.65338348336614871 0.012679145539692626699 39.77259313611850899
0.015962098519750611558 49.84869761272209843 0.015962098519750611558 49.93522251767425502
0.020095091452091651263 62.64560467549719647 0.020095091452091651263 62.65706702814987494
0.025298221281360611101 78.69734351055467414 0.025298221281360611101 78.56235286008973162
0.031848573644296607199 98.81543585467633761 0.031848573644296607199 98.41657558397473338
0.040094978690191851456 124.00492022347920340 0.040094978690191851456 123.15242893041272509
0.050476587558435426217 155.50570858980296407 0.050476587558435426217 153.89702370807529519
0.063546258777947173257 194.84013210373518632 0.063546258777947173257 191.99811100156009047
0.080000000000012505552 243.86603443348269593 0.080000000000012505552 239.04529672524418515
0.100714032943542974863 304.83357500623372971 0.100714032943542974863 296.87968335766527161
0.126791455396883634421 380.44199975918468226 0.126791455396883634421 367.58176016044109247
0.159620985197506115583 473.88974983808185470 0.159620985197506115583 453.42247993190721900
0.200950914520774404082 588.90709879084477052 0.200950914520774404082 556.75624332888548906
0.252982212813464002465 729.75474297113157718 0.252982212813464002465 679.82723775220154039
0.318485736442809752589 901.16425878015741091 0.318485736442809752589 824.45325770456440750
0.400949786901833249431 1108.18730152843954784 0.400949786901833249431 991.54632833153220872
0.504765875584169521062 1355.91095255609866399 0.504765875584169521062 1180.43296200860686440
0.635462587779443310865 1648.98973134466496049 0.635462587779443310865 1387.96073048281596130
0.800000000000011368684 1990.94726134980169263 0.800000000000011368684 1607.44367423300195696
1.007140329435344483500 2383.22546262877176559 1.007140329435344483500 1827.63631418787645089
1.267914553968907398485 2824.02652157734019056 1.267914553968907398485 2032.15123344069502309
1.596209851975117999245 3307.12237415581194000 1.596209851975117999245 2199.99755000999039112
2.009509145207687197399 3820.99237564554687197 2.009509145207687197399 2308.02584293838572194
2.529822128134725289783 4348.82057217695182771 2.529822128134725289783 2335.68876532680314995
3.184857364427983839050 4869.88051869700029783 3.184857364427983839050 2271.42076834282761411
4.009497869018204596614 5362.47966289093710657 4.009497869018204596614 2118.75699195171000611
5.009497869018190385759 5794.13683205454162817 5.009497869018190385759 1905.98693738633892281
6.009497869018190385759 6106.26503253223381762 6.009497869018190385759 1703.09370713699991029
7.009497869018204596614 6339.58152143393817823 7.009497869018204596614 1525.21586516721276894
8.009497869018190385759 6519.32012821480020648 8.009497869018190385759 1375.79228933064700868
9.009497869018204596614 6661.58530735269141587 9.009497869018204596614 1254.13639408681933674
10.009497869018190385759 6776.93634769731579581 10.009497869018190385759 1156.18493368898657536
11.009497869018190385759 6872.48439591628266498 11.009497869018190385759 1073.41910043707071054
12.009497869018204596614 6953.12803195375727228 12.009497869018204596614 1005.54674288655951386
13.009497869018190385759 7022.31952101964634494 13.009497869018190385759 949.71496277635594652
14.009497869018204596614 7082.54208438825389749 14.009497869018204596614 903.57712061298764183
15.009497869018190385759 7135.61622579725008109 15.009497869018190385759 865.23760437287660352
16.009497869018190385759 7182.90046064123362157 16.009497869018190385759 833.18268209475240837
17.009497869018204596614 7225.42549758539007598 17.009497869018204596614 806.92381414285273422
18.009497869018190385759 7263.98564663879278669 18.009497869018190385759 783.96043540694256535
19.009497869018204596614 7299.20360391996837279 19.009497869018204596614 765.31907622260905555
20.009497869018190385759 7331.57025409208381461 20.009497869018190385759 748.38034678135898048
21.009497869018190385759 7361.48015289950308215 21.009497869018190385759 733.77337402795001253
22.009497869018204596614 7389.25611023545843636 22.009497869018204596614 721.09175067358410161
23.009497869018190385759 7415.15950652793890185 23.009497869018190385759 710.35600073250475361
24.009497869018204596614 7439.40962126980502944 24.009497869018204596614 700.58188056124004106
25.009497869018204596614 7462.18928363876057119 25.009497869018204596614 691.94709544391355394
26.009497869018190385759 7483.65248010075538332 26.009497869018190385759 684.64748281287961618
27.009497869018204596614 7503.93136825945384771 27.009497869018204596614 677.75078394971592388
28.009497869018190385759 7523.13815320327103109 28.009497869018190385759 671.57042071215346368
29.009497869018190385759 7541.37077150752429588 29.009497869018190385759 666.16470829527702335
30.009497869018190385759 7558.71391787347056379 30.009497869018190385759 661.10226963333434469
31.009497869018218807469 7575.24152405982295022 31.009497869018218807469 656.49911243207509415
32.009497869018190385759 7591.01963966109724424 32.009497869018190385759 652.30105294828967999
33.009497869018190385759 7606.10505219530205068 33.009497869018190385759 648.61131417457454518
34.009497869018218807469 7620.55021066287281428 34.009497869018218807469 645.04877824147490628
35.009497869018190385759 7634.40027497608207341 35.009497869018190385759 641.84838457631747133
36.009497869018190385759 7647.69644821258134471 36.009497869018190385759 638.79496260884911862
37.009497869018190385759 7660.47637911709625769 37.009497869018190385759 635.95790744224154878
38.009497869018218807469 7672.77288108542779810 38.009497869018218807469 633.31651052314509798
39.009497869018190385759 7684.61660340773141797 39.009497869018190385759 630.89476971627232160
40.009497869018190385759 7696.03542832393759454 40.009497869018190385759 628.71496877383708579
41.009497869018218807469 7707.05414621760337468 41.009497869018218807469 626.47438815791076649
42.009497869018190385759 7717.69599696778732323 42.009497869018190385759 624.45596659425677899
43.009497869018190385759 7727.98241464190414263 43.009497869018190385759 622.47006257887744596
44.009497869018218807469 7737.93251423901165253 44.009497869018218807469 620.66504572458848088
46.009497869018190385759 7756.89465098402069998 46.009497869018190385759 617.31577734316874739
48.009497869018218807469 7774.71064998820020264 48.009497869018218807469 614.22898746816133553
50.009497869018190385759 7791.49075189723680523 50.009497869018190385759 611.46108251516727705
52.009497869018190385759 7807.33034270403186383 52.009497869018190385759 608.91815828946164402
54.009497869018218807469 7822.31290304034064320 54.009497869018218807469 606.53990694950925899
56.009497869018190385759 7836.51139155692362692 56.009497869018190385759 604.34133404726060235
58.009497869018218807469 7849.99044954230521398 58.009497869018218807469 602.37409650956976748
60.009497869018190385759 7862.80722853666247829 60.009497869018190385759 600.46070699719200547
62.009497869018190385759 7875.01266260193824564 62.009497869018190385759 598.67320455766912346
64.009497869018218807469 7886.65239526755885890 64.009497869018218807469 596.99682027551239116
66.009497869018190385759 7897.76719834695722966 66.009497869018190385759 595.43668576972879691
68.009497869018190385759 7908.39407357381423935 68.009497869018190385759 593.97775646694992702
70.009497869018190385759 7918.56621448971782229 70.009497869018190385759 592.56825931903983928
72.009497869018190385759 7928.31385297646647814 72.009497869018190385759 591.24681223806339858
74.009497869018218807469 7937.66451360831979400 74.009497869018218807469 589.98533871369261306
76.009497869018190385759 7946.64314410518545628 76.009497869018190385759 588.78540655040865204
78.009497869018190385759 7955.27267590594965441 78.009497869018190385759 587.64761069792552917
80.009497869018218807469 7963.57408886914345203 80.009497869018218807469 586.55758340002103068
82.009497869018190385759 7971.56657258079485473 82.009497869018190385759 585.51397372033409283
84.009497869018218807469 7979.26788377716638934 84.009497869018218807469 584.50638460213644976
86.009497869018190385759 7986.69438175371760735 86.009497869018190385759 583.55316545785399285
88.009497869018190385759 7993.86110579067553772 88.009497869018190385759 582.62799776324573031
91.009497869018218807469 8004.15441840621133451 91.009497869018218807469 581.31394266261668236
94.009497869018218807469 8013.93741871288602852 94.009497869018218807469 580.07166156962659898
97.009497869018218807469 8023.24848889866461832 97.009497869018218807469 578.90505772995243206
99.504748934509137825444 8030.65850352287361602 99.504748934509137825444 577.81452562557888086
nan nan nan nan

