Time Pressure difference Time.1 Pressure.1 difference.1
(hr) (psi) (hr) (psi)
0.000200000000020850166 0.47574333201666158 0.000200000000020850166 0.37919212977424976
0.000399999999999067768 0.95131746752453605 0.000399999999999067768 0.99302872356183947
0.000600000000019917934 1.42674893196031904 0.000600000000019917934 1.45312337178312867
0.000799999999998135536 1.90204905018280135 0.000799999999998135536 1.92166349249651680
0.001007140329434719206 2.39418837908109783 0.001007140329434719206 2.41367433203309201
0.001267914553977789183 3.01357556725107001 0.001267914553977789183 3.03766225719229510
0.001596209851982166583 3.79306518208718524 0.001596209851982166583 3.82271072794145317
0.002009509145224797066 4.77396982254946600 0.002009509145224797066 4.81025691617556106
0.002529822128153114136 6.00822427014927385 0.002529822128153114136 6.05232659785161520
0.003184857364431081805 7.56109622465720577 0.003184857364431081805 7.61420095784355766
0.004009497869034817086 9.51457778162448875 0.004009497869034817086 9.57773387085165417
0.005047658755856332391 11.97162259541001106 0.005047658755856332391 12.04546664971264747
0.006354625877790454069 15.06143031680339917 0.006354625877790454069 15.14571387351888454
0.008000000000009777068 18.94602278818484820 0.008000000000009777068 19.03882136019807803
0.010071403294361402914 23.82840553342992251 0.010071403294361402914 23.92482270318685877
0.012679145539692626699 29.96266228862012682 0.012679145539692626699 30.05273880298518563
0.015962098519750611558 37.66638709970546728 0.015962098519750611558 37.73176655232452958
0.020095091452091651263 47.33591264779972363 0.020095091452091651263 47.34457376499568682
0.025298221281360611101 59.46483551920380251 0.025298221281360611101 59.36283465782209845
0.031848573644296607199 74.66635311608304448 0.031848573644296607199 74.36496860506412077
0.040094978690191851456 93.69988687956421813 0.040094978690191851456 93.05573229616389597
0.050476587558435426217 117.50233198595417150 0.050476587558435426217 116.28678673846640379
0.063546258777947173257 147.22398357111825362 0.063546258777947173257 145.07651187964646056
0.080000000000012505552 184.26865481631716648 0.080000000000012505552 180.62603662726510834
0.100714032943542974863 230.33659828740513831 0.100714032943542974863 224.32652428082502638
0.126791455396883634421 287.46740272424523255 0.126791455396883634421 277.75002220841781764
0.159620985197506115583 358.07785588822036971 0.159620985197506115583 342.61249474379252433
0.200950914520774404082 444.98660569136484355 0.200950914520774404082 420.69296061310762980
0.252982212813464002465 551.41309508518793336 0.252982212813464002465 513.68715983389597568
0.318485736442809752589 680.93257070310437484 0.318485736442809752589 622.96864386659296997
0.400949786901833249431 837.36213536891352760 0.400949786901833249431 749.22655192290153536
0.504765875584169521062 1024.54566031979970830 0.504765875584169521062 891.95198714520881822
0.635462587779443310865 1246.00016688130563125 0.635462587779443310865 1048.76292977037064702
0.800000000000011368684 1504.38815520751177246 0.800000000000011368684 1214.60737339666729895
1.007140329435344483500 1800.79916066533360208 1.007140329435344483500 1380.98807360035038982
1.267914553968907398485 2133.87472964628614136 1.267914553968907398485 1535.52246436998348145
1.596209851975117999245 2498.90884810716534048 1.596209851975117999245 1662.34953580675619378
2.009509145207687197399 2887.19635253534033836 2.009509145207687197399 1743.97725516612513275
2.529822128134725289783 3286.03086827637571332 2.529822128134725289783 1764.87975398537832916
3.184857364427983839050 3679.75119774727090771 3.184857364427983839050 1716.31793856287617928
4.009497869018204596614 4051.96613893476387602 4.009497869018204596614 1600.96301109164892296
5.009497869018190385759 4378.13245433975862397 5.009497869018190385759 1440.19092230513319919
6.009497869018190385759 4613.98097570467416517 6.009497869018190385759 1286.88190288291139041
7.009497869018204596614 4790.27824340847109852 7.009497869018204596614 1152.47486773533114501
8.009497869018190385759 4926.09129899453819235 8.009497869018190385759 1039.56828203055488302
9.009497869018204596614 5033.58889802607700403 9.009497869018204596614 947.64335193878537211
10.009497869018190385759 5120.74978980563355435 10.009497869018190385759 873.62983100409553572
11.009497869018190385759 5192.94725820886924339 11.009497869018190385759 811.09078659181557214
12.009497869018204596614 5253.88274012886267883 12.009497869018204596614 759.80546490239362356
13.009497869018190385759 5306.16481641114569356 13.009497869018190385759 717.61817530789380726
14.009497869018204596614 5351.66984447831055149 14.009497869018204596614 682.75576352791142654
15.009497869018190385759 5391.77342292738012475 15.009497869018190385759 653.78587807303222235
16.009497869018190385759 5427.50206537224039494 16.009497869018190385759 629.56472147714441689
17.009497869018204596614 5459.63458998526220967 17.009497869018204596614 609.72314622154783592
18.009497869018190385759 5488.77118874159714323 18.009497869018190385759 592.37168963377962427
19.009497869018204596614 5515.38237971231319534 19.009497869018204596614 578.28601268075613007
20.009497869018190385759 5539.83908235227499972 20.009497869018190385759 565.48686705275747499
21.009497869018190385759 5562.43942861098457797 21.009497869018190385759 554.44963004489750347
22.009497869018204596614 5583.42733824924926012 22.009497869018204596614 544.86721451161167806
23.009497869018190385759 5603.00031404753099196 23.009497869018190385759 536.75512869087549461
24.009497869018204596614 5621.32404671905987925 24.009497869018204596614 529.36966404363181482
25.009497869018204596614 5638.53668459890468512 25.009497869018204596614 522.84509721785809688
26.009497869018190385759 5654.75458205763789010 26.009497869018190385759 517.32940577142289840
27.009497869018204596614 5670.07759926606013323 27.009497869018204596614 512.11816171629777728
28.009497869018190385759 5684.59051998978975462 28.009497869018190385759 507.44819107972500660
29.009497869018190385759 5698.36734650238304312 29.009497869018190385759 503.36355765508380955
30.009497869018190385759 5711.47207532843458466 30.009497869018190385759 499.53830677710334385
31.009497869018218807469 5723.96057035960166104 31.009497869018218807469 496.06009552331158829
32.009497869018190385759 5735.88273961182039784 32.009497869018190385759 492.88798188430871505
33.009497869018190385759 5747.28149254387517431 33.009497869018190385759 490.09996262596644101
34.009497869018218807469 5758.19646036877566075 34.009497869018218807469 487.40805964877631595
35.009497869018190385759 5768.66176656052630278 35.009497869018190385759 484.98979653587002758
36.009497869018190385759 5778.70854475243959314 36.009497869018190385759 482.68258733455968468
37.009497869018190385759 5788.36524287315660331 37.009497869018190385759 480.53886797485085935
38.009497869018218807469 5797.65665519268804928 38.009497869018218807469 478.54299077838709309
39.009497869018190385759 5806.60594075194512698 39.009497869018190385759 476.71308887411856858
40.009497869018190385759 5815.23416776921021665 40.009497869018190385759 475.06600018313713463
41.009497869018218807469 5823.56006821197934187 41.009497869018218807469 473.37298550373174066
42.009497869018190385759 5831.60120246443148062 42.009497869018190385759 471.84783737373169288
43.009497869018190385759 5839.37376641369792196 43.009497869018190385759 470.34725996713058294
44.009497869018218807469 5846.89220362577907508 44.009497869018218807469 468.98336348013822317
46.009497869018190385759 5861.22026468013154954 46.009497869018190385759 466.45260850765191663
48.009497869018218807469 5874.68228770574751252 48.009497869018218807469 464.12018603935047167
50.009497869018190385759 5887.36157210729106737 50.009497869018190385759 462.02871756760328026
52.009497869018190385759 5899.33019290185711725 52.009497869018190385759 460.10724774315991681
54.009497869018218807469 5910.65122924580555264 54.009497869018218807469 458.31020710055395284
56.009497869018190385759 5921.37980973653884575 56.009497869018190385759 456.64893404892080753
58.009497869018218807469 5931.56477825389538339 58.009497869018218807469 455.16246129917300323
60.009497869018190385759 5941.24931931700211862 60.009497869018190385759 453.71667688559296039
62.009497869018190385759 5950.47191942973495316 62.009497869018190385759 452.36601454027311320
64.009497869018218807469 5959.26706749411277997 64.009497869018218807469 451.09931465996442057
66.009497869018190385759 5967.66557127405576466 66.009497869018190385759 449.92045476920065994
68.009497869018190385759 5975.69538980742618151 68.009497869018190385759 448.81806697370586789
70.009497869018190385759 5983.38160460781818983 70.009497869018190385759 447.75303081967075514
72.009497869018190385759 5990.74705931643165968 72.009497869018190385759 446.75452655240712829
74.009497869018218807469 5997.81255189426701691 74.009497869018218807469 445.80133916014824536
76.009497869018190385759 6004.59693319440702908 76.009497869018190385759 444.89465329832722773
78.009497869018190385759 6011.11753053923894186 78.009497869018190385759 444.03491851943653046
80.009497869018218807469 6017.39019660918165755 80.009497869018218807469 443.21127834189172745
82.009497869018190385759 6023.42943132921391225 82.009497869018190385759 442.42271197890505618
84.009497869018218807469 6029.24865194258836709 84.009497869018218807469 441.66136326607937690
86.009497869018190385759 6034.86021976634856401 86.009497869018190385759 440.94109728123174818
88.009497869018190385759 6040.27549869519953063 88.009497869018190385759 440.24202737196367252
91.009497869018218807469 6048.05327256057171326 91.009497869018218807469 439.24910859051090029
94.009497869018218807469 6055.44544716482323565 94.009497869018218807469 438.31042327321853236
97.009497869018218807469 6062.48102463677241758 97.009497869018218807469 437.42892076820709235
99.504748934509137825444 6068.08013740433852945 99.504748934509137825444 436.60489915169239339
nan nan nan nan

