Time Pressure difference Time.1 Pressure.1 difference.1
(hr) (psi) (hr) (psi)
0.000200000000020850166 0.46409926444982019 0.000200000000020850166 0.36991120352103385
0.000399999999999067768 0.92803347356414534 0.000399999999999067768 0.96872382473340302
0.000600000000019917934 1.39182850355569587 0.000600000000019917934 1.41755741513109412
0.000799999999998135536 1.85549540210140407 0.000799999999998135536 1.87462977065219638
0.001007140329434719206 2.33558936280988227 0.001007140329434719206 2.35459838684347122
0.001267914553977789183 2.93981672469597344 0.001267914553977789183 2.96331388026800768
0.001596209851982166583 3.70022792238575082 0.001596209851982166583 3.72914787795687230
0.002009509145224797066 4.65712440731224131 0.002009509145224797066 4.69252335529014530
0.002529822128153114136 5.86116982997079550 0.002529822128153114136 5.90419273007203049
0.003184857364431081805 7.37603442894881312 0.003184857364431081805 7.42783939593829601
0.004009497869034817086 9.28170350025605728 0.004009497869034817086 9.34331381107556425
0.005047658755856332391 11.67861085356431161 0.005047658755856332391 11.75064753590849165
0.006354625877790454069 14.69279391044807070 0.006354625877790454069 14.77501458290828396
0.008000000000009777068 18.48230894371878819 0.008000000000009777068 18.57283622201141071
0.010071403294361402914 23.24519281058373821 0.010071403294361402914 23.33925011954242734
0.012679145539692626699 29.22931041442313216 0.012679145539692626699 29.31718225885617812
0.015962098519750611558 36.74448252034205353 0.015962098519750611558 36.80826177656834375
0.020095091452091651263 46.17734135921721617 0.020095091452091651263 46.18579049102725520
0.025298221281360611101 58.00940248202049077 0.025298221281360611101 57.90989814521805812
0.031848573644296607199 72.83885496289219930 0.031848573644296607199 72.54484699584926943
0.040094978690191851456 91.40653300488955324 0.040094978690191851456 90.77814444276127404
0.050476587558435426217 114.62640078350074191 0.050476587558435426217 113.44060664346898193
0.063546258777947173257 143.62059935783915421 0.063546258777947173257 141.52568816231246274
0.080000000000012505552 179.75858284528840159 0.080000000000012505552 176.20511964687750606
0.100714032943542974863 224.69898923841267901 0.100714032943542974863 218.83601494528033982
0.126791455396883634421 280.43148727295249500 0.126791455396883634421 270.95194474177827715
0.159620985197506115583 349.31371256228493394 0.159620985197506115583 334.22687424307036963
0.200950914520774404082 434.09532513248529995 0.200950914520774404082 410.39627975894063638
0.252982212813464002465 537.91697038030565636 0.252982212813464002465 501.11439718061882331
0.318485736442809752589 664.26638890267872739 0.318485736442809752589 607.72115957615187654
0.400949786901833249431 816.86725792981417271 0.400949786901833249431 730.88883911359971535
0.504765875584169521062 999.46936793435020263 0.504765875584169521062 870.12099445284354715
0.635462587779443310865 1215.50365930029465744 0.635462587779443310865 1023.09390701375320987
0.800000000000011368684 1467.56746609404126502 0.800000000000011368684 1184.87922090094457417
1.007140329435344483500 1756.72365673296530986 1.007140329435344483500 1347.18766620453789074
1.267914553968907398485 2081.64702647312560657 1.267914553968907398485 1497.93974671057844716
1.596209851975117999245 2437.74674343321385095 1.596209851975117999245 1621.66265905624118204
2.009509145207687197399 2816.53070754321652203 2.009509145207687197399 1701.29249717254856478
2.529822128134725289783 3205.60353933254828007 2.529822128134725289783 1721.68339637035182932
3.184857364427983839050 3589.68735724296720946 3.184857364427983839050 1674.31015684979888647
4.009497869018204596614 3952.79214252727024359 4.009497869018204596614 1561.77860172926602900
5.009497869018190385759 4270.97536629647765949 5.009497869018190385759 1404.94149413682589511
6.009497869018190385759 4501.05137140420993092 6.009497869018190385759 1255.38479337179137474
7.009497869018204596614 4673.03367101735511824 7.009497869018204596614 1124.26744090264833176
8.009497869018190385759 4805.52263083732941595 8.009497869018190385759 1014.12430309973728981
9.009497869018204596614 4910.38916975271058618 9.009497869018204596614 924.44928388433959299
10.009497869018190385759 4995.41675299220878514 10.009497869018190385759 852.24728269280637960
11.009497869018190385759 5065.84715049047008506 11.009497869018190385759 791.23891419271535597
12.009497869018204596614 5125.29120453130326496 12.009497869018204596614 741.20882764953785227
13.009497869018190385759 5176.29364957590860286 13.009497869018190385759 700.05409409406422583
14.009497869018204596614 5220.68491821485622495 14.009497869018204596614 666.04495812687866874
15.009497869018190385759 5259.80694054803916515 15.009497869018190385759 637.78412581250347557
16.009497869018190385759 5294.66110573026253405 16.009497869018190385759 614.15579472770389202
17.009497869018204596614 5326.00716995065795345 17.009497869018204596614 594.79985243290866492
18.009497869018190385759 5354.43063517099926685 18.009497869018190385759 577.87308184554024137
19.009497869018204596614 5380.39050328578923654 19.009497869018204596614 564.13215922353481346
20.009497869018190385759 5404.24861530169437174 20.009497869018190385759 551.64627939761999187
21.009497869018190385759 5426.29580623239507986 21.009497869018190385759 540.87918455428814468
22.009497869018204596614 5446.77002577461735200 22.009497869018204596614 531.53130366692187181
23.009497869018190385759 5465.86394272468987765 23.009497869018190385759 523.61776540123867107
24.009497869018204596614 5483.73919242873307667 24.009497869018204596614 516.41306387473173345
25.009497869018204596614 5500.53054196886205318 25.009497869018204596614 510.04818924399444313
26.009497869018190385759 5516.35149788140279270 26.009497869018190385759 504.66749723855593857
27.009497869018204596614 5531.29947620710026968 27.009497869018204596614 499.58380111485001862
28.009497869018190385759 5545.45718558444514201 28.009497869018190385759 495.02813045889251953
29.009497869018190385759 5558.89681704253507633 29.009497869018190385759 491.04347057960973189
30.009497869018190385759 5571.68080075745911017 30.009497869018190385759 487.31184472311826994
31.009497869018218807469 5583.86363332282871852 31.009497869018218807469 483.91876451399986081
32.009497869018190385759 5595.49400122971292149 32.009497869018190385759 480.82429002000742457
33.009497869018190385759 5606.61376370538800984 33.009497869018190385759 478.10450899526097146
34.009497869018218807469 5617.26158196814139956 34.009497869018218807469 475.47849175527477428
35.009497869018190385759 5627.47074430205248063 35.009497869018190385759 473.11941690037667740
36.009497869018190385759 5637.27162232842874801 36.009497869018190385759 470.86867785434321831
37.009497869018190385759 5646.69196769793870772 37.009497869018190385759 468.77742715029160081
38.009497869018218807469 5655.75596782783213712 38.009497869018218807469 466.83040009499995904
39.009497869018190385759 5664.48621492934489652 39.009497869018190385759 465.04528599957717461
40.009497869018190385759 5672.90326156506853295 40.009497869018190385759 463.43851066816523598
41.009497869018218807469 5681.02538122777059471 41.009497869018218807469 461.78693341098306746
42.009497869018190385759 5688.86970450201533822 42.009497869018190385759 460.29911408136763384
43.009497869018190385759 5696.45203087210302328 43.009497869018190385759 458.83526409380920086
44.009497869018218807469 5703.78645039018283569 44.009497869018218807469 457.50474968866632253
46.009497869018190385759 5717.76382463551271940 46.009497869018190385759 455.03593627145062328
48.009497869018218807469 5730.89635758707572677 48.009497869018218807469 452.76060106635935654
50.009497869018190385759 5743.26530985291719844 50.009497869018190385759 450.72032238238222135
52.009497869018190385759 5754.94099237628779520 52.009497869018190385759 448.84588153965603397
54.009497869018218807469 5765.98494041811045463 54.009497869018218807469 447.09282440928166125
56.009497869018190385759 5776.45093327445556497 56.009497869018190385759 445.47221188688428128
58.009497869018218807469 5786.38661934558331268 58.009497869018218807469 444.02212133730512278
60.009497869018190385759 5795.83412618686543283 60.009497869018190385759 442.61172325552598750
62.009497869018190385759 5804.83099832481184421 62.009497869018190385759 441.29411907949719307
64.009497869018218807469 5813.41088052747363690 64.009497869018218807469 440.05842234311216998
66.009497869018190385759 5821.60382652259249880 66.009497869018190385759 438.90841566645798366
68.009497869018190385759 5829.43711103591613210 68.009497869018190385759 437.83300939043334665
70.009497869018190385759 5836.93520169783641904 70.009497869018190385759 436.79404055485366598
72.009497869018190385759 5844.12038303945610096 72.009497869018190385759 435.81997520322238415
74.009497869018218807469 5851.01294398077061487 74.009497869018218807469 434.89011757231241972
76.009497869018190385759 5857.63127399034874543 76.009497869018190385759 434.00562332249410247
78.009497869018190385759 5863.99227629527104000 78.009497869018190385759 433.16693100322657983
80.009497869018218807469 5870.11141557329210627 80.009497869018218807469 432.36344985100623717
82.009497869018190385759 5876.00283685612066620 82.009497869018190385759 431.59418406333742269
84.009497869018218807469 5881.67962899294434465 84.009497869018218807469 430.85146975956689630
86.009497869018190385759 5887.15385075108861201 86.009497869018190385759 430.14883266246039284
88.009497869018190385759 5892.43658788797438319 88.009497869018190385759 429.46687285586665439
91.009497869018218807469 5900.02399665873963386 91.009497869018218807469 428.49825628235151953
94.009497869018218807469 5907.23524391253704380 94.009497869018218807469 427.58254578051742101
97.009497869018218807469 5914.09862193587287038 97.009497869018218807469 426.72261851164256541
99.504748934509137825444 5919.56069348185519630 99.504748934509137825444 425.91876525637121631
nan nan nan nan

