Time Pressure difference Time.1 Pressure.1 difference.1
(hr) (psi) (hr) (psi)
0.000200000000020850166 0.61048182814725449 0.000200000000020850166 0.48658570499003373
0.000399999999999067768 1.22074654049477194 0.000399999999999067768 1.27427112429089195
0.000600000000019917934 1.83082817492810168 0.000600000000019917934 1.86467229875667218
0.000799999999998135536 2.44074126369611211 0.000799999999998135536 2.46591084526650928
0.001007140329434719206 3.07226271021945063 0.001007140329434719206 3.09726741208442258
0.001267914553977789183 3.86707074538861040 0.001267914553977789183 3.89797919017332939
0.001596209851982166583 4.86732490148950081 0.001596209851982166583 4.90536656347731981
0.002009509145224797066 6.12603819886592316 0.002009509145224797066 6.17260240642108737
0.002529822128153114136 7.70985422078595661 0.002529822128153114136 7.76644706787252748
0.003184857364431081805 9.70252557499718371 0.003184857364431081805 9.77067045989016059
0.004009497869034817086 12.20926589460205491 0.004009497869034817086 12.29030884826068792
0.005047658755856332391 15.36218703676739317 0.005047658755856332391 15.45694496658930817
0.006354625877790454069 19.32708016177219434 0.006354625877790454069 19.43523423629870805
0.008000000000009777068 24.31185441700643324 0.008000000000009777068 24.43093510207235752
0.010071403294361402914 30.57700989779294432 0.010071403294361402914 30.70073402821530451
0.012679145539692626699 38.44859111861394041 0.012679145539692626699 38.56417881362085609
0.015962098519750611558 48.33414008948219731 0.015962098519750611558 48.41803610036050287
0.020095091452091651263 60.74223755854021789 0.020095091452091651263 60.75335164948747035
0.025298221281360611101 76.30627494946782008 0.025298221281360611101 76.17538573224024390
0.031848573644296607199 95.81311746014851849 0.031848573644296607199 95.42637579740745934
0.040094978690191851456 120.23726742937085987 0.040094978690191851456 119.41067745696555846
0.050476587558435426217 150.78096447148664083 0.050476587558435426217 149.22115640915092172
0.063546258777947173257 188.92028661049093330 0.063546258777947173257 186.16461489451137368
0.080000000000012505552 236.45663048107832083 0.080000000000012505552 231.78236168603598344
0.100714032943542974863 295.57178871146038546 0.100714032943542974863 287.85956087784188639
0.126791455396883634421 368.88299580348956397 0.126791455396883634421 356.41349003667602346
0.159620985197506115583 459.49151437404503895 0.159620985197506115583 439.64610339500649161
0.200950914520774404082 571.01428072982832873 0.200950914520774404082 539.84026763989686515
0.252982212813464002465 707.58253809882501173 0.252982212813464002465 659.17198482181754571
0.318485736442809752589 873.78410296517233746 0.318485736442809752589 799.40381922741130438
0.400949786901833249431 1074.51714573563367594 0.400949786901833249431 961.42008585910787133
0.504765875584169521062 1314.71418649428846948 0.504765875584169521062 1144.56775972829245802
0.635462587779443310865 1598.88832603300397750 0.635462587779443310865 1345.79019309694444928
0.800000000000011368684 1930.45612923481417056 0.800000000000011368684 1558.60456656145765919
1.007140329435344483500 2310.81570616845237964 1.007140329435344483500 1772.10707346618414704
1.267914553968907398485 2738.22386636429064311 1.267914553968907398485 1970.40819728595806737
1.596209851975117999245 3206.64177362003420058 1.596209851975117999245 2133.15482391985869981
2.009509145207687197399 3704.89881601562910873 2.009509145207687197399 2237.90088337751012659
2.529822128134725289783 4216.68996034066367429 2.529822128134725289783 2264.72332067354500396
3.184857364427983839050 4721.91849501135766332 3.184857364427983839050 2202.40798409991475637
4.009497869018204596614 5199.55095450719727523 4.009497869018204596614 2054.38260514208059249
5.009497869018190385759 5618.09304455486562802 5.009497869018190385759 1848.07716253840521858
6.009497869018190385759 5920.73782546718575759 6.009497869018190385759 1651.34845579730244935
7.009497869018204596614 6146.96543821996056067 7.009497869018204596614 1478.87509251351934836
8.009497869018190385759 6321.24303052795676194 8.009497869018190385759 1333.99146680144644961
9.009497869018204596614 6459.18575376073476946 9.009497869018204596614 1216.03185371165818651
10.009497869018190385759 6571.03207293240393483 10.009497869018190385759 1121.05646146329740986
11.009497869018190385759 6663.67707609319859330 11.009497869018190385759 1040.80531006711998998
12.009497869018204596614 6741.87050918633758556 12.009497869018204596614 974.99512454258206162
13.009497869018190385759 6808.95974693318476056 13.009497869018190385759 920.85968649649305462
14.009497869018204596614 6867.35256266972101002 14.009497869018204596614 876.12365459700527026
15.009497869018190385759 6918.81414760261759511 15.009497869018190385759 838.94901137343651953
16.009497869018190385759 6964.66174122941356472 16.009497869018190385759 807.86801672067144864
17.009497869018204596614 7005.89473609996912273 17.009497869018204596614 782.40697434723108472
18.009497869018190385759 7043.28330862995244388 18.009497869018190385759 760.14129404054938277
19.009497869018204596614 7077.43123550496238749 19.009497869018204596614 742.06631697145974158
20.009497869018190385759 7108.81448679470213392 20.009497869018190385759 725.64223849077620798
21.009497869018190385759 7137.81563042038942513 21.009497869018190385759 711.47907072194891498
22.009497869018204596614 7164.74766831284796353 22.009497869018204596614 699.18275428587946863
23.009497869018190385759 7189.86403935469934368 23.009497869018190385759 688.77318961381570261
24.009497869018204596614 7213.37736064998171059 24.009497869018204596614 679.29603742661845445
25.009497869018204596614 7235.46490646083202591 25.009497869018204596614 670.92360377256613901
26.009497869018190385759 7256.27598466836752777 26.009497869018190385759 663.84577593745530066
27.009497869018204596614 7275.93873751973387698 27.009497869018204596614 657.15862010448006458
28.009497869018190385759 7294.56196096591884270 28.009497869018190385759 651.16603540650021387
29.009497869018190385759 7312.24061596634510352 29.009497869018190385759 645.92456524271256058
30.009497869018190385759 7329.05682393543884245 30.009497869018190385759 641.01593911607324117
31.009497869018218807469 7345.08227035655181680 31.009497869018218807469 636.55264005963420004
32.009497869018190385759 7360.38099803334898752 32.009497869018190385759 632.48213059979480022
33.009497869018190385759 7375.00806910350365797 33.009497869018190385759 628.90449749555830294
34.009497869018218807469 7389.01433900468691718 34.009497869018218807469 625.45020241643669578
35.009497869018190385759 7402.44359555144455953 35.009497869018190385759 622.34704660372131002
36.009497869018190385759 7415.33578994456456712 36.009497869018190385759 619.38639703420767546
37.009497869018190385759 7427.72742704352549481 37.009497869018190385759 616.63554037332266944
38.009497869018218807469 7439.65032327173685189 38.009497869018218807469 614.07439725758058557
39.009497869018190385759 7451.13419669917402643 39.009497869018190385759 611.72623642238295361
40.009497869018190385759 7462.20608241713307507 40.009497869018190385759 609.61266457066903968
41.009497869018218807469 7472.89001760068822477 41.009497869018218807469 607.44015971982366864
42.009497869018190385759 7483.20853602953320660 42.009497869018190385759 605.48306404251582080
43.009497869018190385759 7493.18242053785616008 43.009497869018190385759 603.55749792984931901
44.009497869018218807469 7502.83020535196101264 44.009497869018218807469 601.80732306717038682
46.009497869018190385759 7521.21621376786060864 46.009497869018190385759 598.55981581226660637
48.009497869018218807469 7538.49090765038272366 48.009497869018218807469 595.56681215539026653
50.009497869018190385759 7554.76117819362207229 50.009497869018190385759 592.88300471087552523
52.009497869018190385759 7570.11951326916641847 52.009497869018190385759 590.41734238370520416
54.009497869018218807469 7584.64685710912817740 54.009497869018218807469 588.11134967099053483
56.009497869018190385759 7598.41395165492849628 56.009497869018190385759 585.97957620962915826
58.009497869018218807469 7611.48347419293531857 58.009497869018218807469 584.07210942935830644
60.009497869018190385759 7623.91083982286636456 60.009497869018190385759 582.21685460493915798
62.009497869018190385759 7635.74543507242196938 62.009497869018190385759 580.48366201496583017
64.009497869018218807469 7647.03151667950805859 64.009497869018218807469 578.85821146925513858
66.009497869018190385759 7657.80861768383965682 66.009497869018190385759 577.34547867236585716
68.009497869018190385759 7668.11261559204740479 68.009497869018190385759 575.93087615157367054
70.009497869018190385759 7677.97569542331893899 70.009497869018190385759 574.56420388398316845
72.009497869018190385759 7687.42717052143507317 72.009497869018190385759 573.28290645011691140
74.009497869018218807469 7696.49372917900564062 74.009497869018218807469 572.05976039081951967
76.009497869018190385759 7705.19956112708860019 76.009497869018190385759 570.89628587582558339
78.009497869018190385759 7713.56690107657504996 78.009497869018190385759 569.79305977843785058
80.009497869018218807469 7721.61609145304100821 80.009497869018218807469 568.73615087928067169
82.009497869018190385759 7729.36573880357173039 82.009497869018190385759 567.72424928761586216
84.009497869018218807469 7736.83306035989426164 84.009497869018218807469 566.74727384143750442
86.009497869018190385759 7744.03391837150320498 86.009497869018190385759 565.82301644130097884
88.009497869018190385759 7750.98289517880584754 88.009497869018190385759 564.92595820108635962
91.009497869018218807469 7760.96346513891512586 91.009497869018218807469 563.65182815635489533
94.009497869018218807469 7770.44922765556020750 94.009497869018218807469 562.44729140304616521
97.009497869018218807469 7779.47739874718718056 97.009497869018218807469 561.31613259416781148
99.504748934509137825444 7786.66227422165138705 99.504748934509137825444 560.25873422612278318
nan nan nan nan

