Time Pressure difference Time.1 Pressure.1 difference.1
(hr) (psi) (hr) (psi)
0.000200000000020850166 0.20127602508397222 0.000200000000020850166 0.16042743951987490
0.000399999999999067768 0.40248046702961143 0.000399999999999067768 0.42012753689154747
0.000600000000019917934 0.60362454813705801 0.000600000000019917934 0.61478296498516982
0.000799999999998135536 0.80471305969272366 0.000799999999998135536 0.81301147759468018
0.001007140329434719206 1.01292585268815682 0.001007140329434719206 1.02116990970630828
0.001267914553977789183 1.27497427845237588 0.001267914553977789183 1.28516480111981690
0.001596209851982166583 1.60475834626765557 0.001596209851982166583 1.61730069259061504
0.002009509145224797066 2.01975646338631254 0.002009509145224797066 2.03510869530504523
0.002529822128153114136 2.54194103737084642 0.002529822128153114136 2.56059971447568335
0.003184857364431081805 3.19892532581651023 0.003184857364431081805 3.22139271293381313
0.004009497869034817086 4.02539829222574586 0.004009497869034817086 4.05211817612954572
0.005047658755856332391 5.06491725190423558 0.005047658755856332391 5.09615896718611960
0.006354625877790454069 6.37214359557066867 0.006354625877790454069 6.40780202341183625
0.008000000000009777068 8.01562502577051283 0.008000000000009777068 8.05488596008380142
0.010071403294361402914 10.08124849491266062 0.010071403294361402914 10.12204037442521098
0.012679145539692626699 12.67651096826236135 0.012679145539692626699 12.71462026280142688
0.015962098519750611558 15.93577915756769947 0.015962098519750611558 15.96343969521422679
0.020095091452091651263 20.02673227406911849 0.020095091452091651263 20.03039659288278784
0.025298221281360611101 25.15819964274006892 0.025298221281360611101 25.11504543215550456
0.031848573644296607199 31.58961093372743889 0.031848573644296607199 31.46210210214251646
0.040094978690191851456 39.64225983366178241 0.040094978690191851456 39.36973289453087688
0.050476587558435426217 49.71252507098060391 0.050476587558435426217 49.19825592781270984
0.063546258777947173257 62.28706997239618914 0.063546258777947173257 61.37852425677350254
0.080000000000012505552 77.95981549921110343 0.080000000000012505552 76.41870780384293482
0.100714032943542974863 97.45009927544063544 0.100714032943542974863 94.90737565727211233
0.126791455396883634421 121.62082422948839167 0.126791455396883634421 117.50962478048447224
0.159620985197506115583 151.49447749117015860 0.159620985197506115583 144.95144008391221746
0.200950914520774404082 188.26356394634666458 0.200950914520774404082 177.98548333631475771
0.252982212813464002465 233.29015561296409942 0.252982212813464002465 217.32918300664832145
0.318485736442809752589 288.08685683592875648 0.318485736442809752589 263.56365702048162802
0.400949786901833249431 354.26859573300180273 0.400949786901833249431 316.98046427507370026
0.504765875584169521062 433.46162551991528744 0.504765875584169521062 377.36430225374215297
0.635462587779443310865 527.15391675747548561 0.635462587779443310865 443.70739336438765577
0.800000000000011368684 636.47191181856271669 0.800000000000011368684 513.87235028320526453
1.007140329435344483500 761.87656797379497675 1.007140329435344483500 584.26418498476368768
1.267914553968907398485 902.79315485035181155 1.267914553968907398485 649.64411954114700620
1.596209851975117999245 1057.23066650687769652 1.596209851975117999245 703.30172668747377429
2.009509145207687197399 1221.50614914956713619 2.009509145207687197399 737.83653103182211908
2.529822128134725289783 1390.24382888615878073 2.529822128134725289783 746.67989591689081408
3.184857364427983839050 1556.81781443153772670 3.184857364427983839050 726.13451246890929269
4.009497869018204596614 1714.29336647240029379 4.009497869018204596614 677.33050469262070692
5.009497869018190385759 1852.28680760528277460 5.009497869018190385759 609.31154405217182557
6.009497869018190385759 1952.06887433659244380 6.009497869018190385759 544.45003583507798339
7.009497869018204596614 2026.65617990358396128 7.009497869018204596614 487.58552096494781836
8.009497869018190385759 2084.11554957461248705 8.009497869018190385759 439.81735008985015156
9.009497869018204596614 2129.59530301103222882 9.009497869018204596614 400.92603351256303768
10.009497869018190385759 2166.47106491776821713 10.009497869018190385759 369.61262080942503871
11.009497869018190385759 2197.01614770375226726 11.009497869018190385759 343.15379432730662757
12.009497869018204596614 2222.79654390067253189 12.009497869018204596614 321.45615822793575944
13.009497869018190385759 2244.91588386625426210 13.009497869018190385759 303.60768955333969643
14.009497869018204596614 2264.16801112543907948 14.009497869018204596614 288.85820764642409131
15.009497869018190385759 2281.13490970004568226 15.009497869018190385759 276.60171764628290703
16.009497869018190385759 2296.25087381133198505 16.009497869018190385759 266.35430524033034771
17.009497869018204596614 2309.84540345530285776 17.009497869018204596614 257.95979263219334143
18.009497869018190385759 2322.17242600606050473 18.009497869018190385759 250.61879176813752679
19.009497869018204596614 2333.43100680136376468 19.009497869018204596614 244.65946690339677616
20.009497869018190385759 2343.77807330288533194 20.009497869018190385759 239.24444375308968347
21.009497869018190385759 2353.33975825849347530 21.009497869018190385759 234.57484348053358758
22.009497869018204596614 2362.21925849006720455 22.009497869018204596614 230.52074460106649667
23.009497869018190385759 2370.50013286626335685 23.009497869018190385759 227.08870829229348942
24.009497869018204596614 2378.25248130421778114 24.009497869018204596614 223.96408863384422716
25.009497869018204596614 2385.53475117645984938 25.009497869018204596614 221.20369497678609605
26.009497869018190385759 2392.39616933207753391 26.009497869018190385759 218.87013321098663710
27.009497869018204596614 2398.87898430487166479 27.009497869018204596614 216.66537611074141978
28.009497869018190385759 2405.01906614952622476 28.009497869018190385759 214.68961930296055129
29.009497869018190385759 2410.84772352023946951 29.009497869018190385759 212.96150516176624024
30.009497869018190385759 2416.39203186972235926 30.009497869018190385759 211.34312979031295754
31.009497869018218807469 2421.67562592137028332 31.009497869018218807469 209.87157887524722355
32.009497869018190385759 2426.71962060500072766 32.009497869018190385759 208.52953079720754204
33.009497869018190385759 2431.54216992240890249 33.009497869018190385759 207.34998418790888763
34.009497869018218807469 2436.16004092525145097 34.009497869018218807469 206.21110215909769181
35.009497869018190385759 2440.58767046791490429 35.009497869018190385759 205.18799084209885564
36.009497869018190385759 2444.83823047218629654 36.009497869018190385759 204.21186387231369963
37.009497869018190385759 2448.92375660018115013 37.009497869018190385759 203.30490568166769094
38.009497869018218807469 2452.85473873536784595 38.009497869018218807469 202.46049609854838991
39.009497869018190385759 2456.64097493351528101 39.009497869018190385759 201.68630683135785375
40.009497869018190385759 2460.29137867158897279 40.009497869018190385759 200.98946161594264481
41.009497869018218807469 2463.81387501276094554 41.009497869018218807469 200.27318617465573425
42.009497869018190385759 2467.21589335033650059 42.009497869018190385759 199.62793119657879970
43.009497869018190385759 2470.50428579041044941 43.009497869018190385759 198.99307152455523351
44.009497869018218807469 2473.68516307244499330 44.009497869018218807469 198.41603839544308130
46.009497869018190385759 2479.74703505697880246 46.009497869018190385759 197.34533436862196254
48.009497869018218807469 2485.44250633704677966 48.009497869018218807469 196.35854024741752255
50.009497869018190385759 2490.80681896846954260 50.009497869018190385759 195.47368820167832837
52.009497869018190385759 2495.87046622770867543 52.009497869018190385759 194.66075866056766586
54.009497869018218807469 2500.66013545014811825 54.009497869018218807469 193.90047223484972960
56.009497869018190385759 2505.19915027315119005 56.009497869018190385759 193.19762594377419873
58.009497869018218807469 2509.50817541510969022 58.009497869018218807469 192.56873362657316306
60.009497869018190385759 2513.60548124950082638 60.009497869018190385759 191.95705560544317336
62.009497869018190385759 2517.50735052796471791 62.009497869018190385759 191.38562153626938311
64.009497869018218807469 2521.22837470904778456 64.009497869018218807469 190.84971004844649656
66.009497869018190385759 2524.78158784671541071 66.009497869018190385759 190.35096163312334738
68.009497869018190385759 2528.17881876468027258 68.009497869018190385759 189.88456679656786719
70.009497869018190385759 2531.43067887253846493 70.009497869018190385759 189.43397457755301616
72.009497869018190385759 2534.54683278772108679 72.009497869018190385759 189.01153046447996076
74.009497869018218807469 2537.53607964757384252 74.009497869018218807469 188.60825887544731927
76.009497869018190385759 2540.40639481301832348 76.009497869018190385759 188.22466101083074363
78.009497869018190385759 2543.16510907429301369 78.009497869018190385759 187.86092706591546175
80.009497869018218807469 2545.81892933465360329 80.009497869018218807469 187.51246391387726931
82.009497869018190385759 2548.37399017774441745 82.009497869018190385759 187.17883968338290401
84.009497869018218807469 2550.83596812955693167 84.009497869018218807469 186.85673061257202221
86.009497869018190385759 2553.21009297807086114 86.009497869018190385759 186.55200269590574180
88.009497869018190385759 2555.50117252489235398 88.009497869018190385759 186.25624234967696680
91.009497869018218807469 2558.79176916024198363 91.009497869018218807469 185.83616132675459198
94.009497869018218807469 2561.91922764665559953 94.009497869018218807469 185.43902523097708013
97.009497869018218807469 2564.89581811555717650 97.009497869018218807469 185.06608186347224887
99.504748934509137825444 2567.26467351722021704 99.504748934509137825444 184.71745733340833340
nan nan nan nan

