Time Pressure difference Time.1 Pressure.1 difference.1
(hr) (psi) (hr) (psi)
0.000200000000020850166 0.73856657138250947 0.000200000000020850166 0.58867589377540874
0.000399999999999067768 1.47687047405907013 0.000399999999999067768 1.54162501140369512
0.000600000000019917934 2.21495288737895679 0.000600000000019917934 2.25589782192905286
0.000799999999998135536 2.95283139259148175 0.000799999999998135536 2.98328178555403323
0.001007140329434719206 3.71685188920282350 0.001007140329434719206 3.74710280917025473
0.001267914553977789183 4.67841801349466735 0.001267914553977789183 4.71581133634048566
0.001596209851982166583 5.88853475820528072 0.001596209851982166583 5.93455791330771021
0.002009509145224797066 7.41133776647539477 0.002009509145224797066 7.46767157616066068
0.002529822128153114136 9.32745306274922115 0.002529822128153114136 9.39591961344796189
0.003184857364431081805 11.73820532778950820 0.003184857364431081805 11.82064764084804231
0.004009497869034817086 14.77088298965480284 0.004009497869034817086 14.86892950579767358
0.005047658755856332391 18.58531619707008531 0.005047658755856332391 18.69995521843501862
0.006354625877790454069 23.38208063168080031 0.006354625877790454069 23.51292643301533403
0.008000000000009777068 29.41270670613312177 0.008000000000009777068 29.55677162212568376
0.010071403294361402914 36.99234984910100366 0.010071403294361402914 37.14203244830407868
0.012679145539692626699 46.51546173478089941 0.012679145539692626699 46.65530079903994221
0.015962098519750611558 58.47509046247981956 0.015962098519750611558 58.57658863367864654
0.020095091452091651263 73.48652173294782131 0.020095091452091651263 73.49996766314015417
0.025298221281360611101 92.31603835848422079 0.025298221281360611101 92.15768737088465912
0.031848573644296607199 115.91559714524778713 0.031848573644296607199 115.44771349877088085
0.040094978690191851456 145.46416005079197475 0.040094978690191851456 144.46414384439432865
0.050476587558435426217 182.41620769847429528 0.050476587558435426217 180.52913745412269009
0.063546258777947173257 228.55751295656122579 0.063546258777947173257 225.22367578518540654
0.080000000000012505552 286.06742216239450727 0.080000000000012505552 280.41244847029963694
0.100714032943542974863 357.58548825037718188 0.100714032943542974863 348.25516356883326807
0.126791455396883634421 446.27806576770939273 0.126791455396883634421 431.19234216971159412
0.159620985197506115583 555.89709095933505978 0.159620985197506115583 531.88792890295064808
0.200950914520774404082 690.81836687750342207 0.200950914520774404082 653.10375703573356532
0.252982212813464002465 856.03990985252937662 0.252982212813464002465 797.47237400786650596
0.318485736442809752589 1057.11210276985434575 0.318485736442809752589 967.12614642226321848
0.400949786901833249431 1299.96079756572567021 0.400949786901833249431 1163.13492676142755045
0.504765875584169521062 1590.55340273423462349 0.504765875584169521062 1384.70867934431021240
0.635462587779443310865 1934.34990942412491677 0.635462587779443310865 1628.14944341973637165
0.800000000000011368684 2335.48370948299043448 0.800000000000011368684 1885.61424401440626752
1.007140329435344483500 2795.64624942450382150 1.007140329435344483500 2143.91155482012482025
1.267914553968907398485 3312.72860126905970901 1.267914553968907398485 2383.81809153941503610
1.596209851975117999245 3879.42492503350149491 1.596209851975117999245 2580.71046817552360153
2.009509145207687197399 4482.22091092898972420 2.009509145207687197399 2707.43322130685146476
2.529822128134725289783 5101.39057872276498529 2.529822128134725289783 2739.88325443883923072
3.184857364427983839050 5712.62074055870016309 3.184857364427983839050 2664.49358294376634149
4.009497869018204596614 6290.46491498963314370 4.009497869018204596614 2485.41110812829401766
5.009497869018190385759 6796.82101303095441835 5.009497869018190385759 2235.82087238978738242
6.009497869018190385759 7162.96347277229051542 6.009497869018190385759 1997.81666041962466807
7.009497869018204596614 7436.65573452224271023 7.009497869018204596614 1789.15678767303165841
8.009497869018190385759 7647.49838025725603075 8.009497869018190385759 1613.87523504044179390
9.009497869018204596614 7814.38276476775536139 9.009497869018204596614 1471.16660231056198427
10.009497869018190385759 7949.69547788007548661 10.009497869018190385759 1356.26449288747699029
11.009497869018190385759 8061.77826099558751594 11.009497869018190385759 1259.17590645722430054
12.009497869018204596614 8156.37740075949386664 12.009497869018204596614 1179.55813432399577323
13.009497869018190385759 8237.54258212079912482 13.009497869018190385759 1114.06457984861822297
14.009497869018204596614 8308.18675156772769697 14.009497869018204596614 1059.94251400836606081
15.009497869018190385759 8370.44545377537360764 15.009497869018190385759 1014.96828623925296142
16.009497869018190385759 8425.91229729117003444 16.009497869018190385759 977.36621096451801805
17.009497869018204596614 8475.79635648061776010 17.009497869018204596614 946.56320602226321625
18.009497869018190385759 8521.02939790653545060 18.009497869018190385759 919.62597971118236728
19.009497869018204596614 8562.34187619673866720 19.009497869018204596614 897.75870500089411053
20.009497869018190385759 8600.30962435108267528 20.009497869018190385759 877.88870269728784024
21.009497869018190385759 8635.39547658488481829 21.009497869018190385759 860.75397111865208899
22.009497869018204596614 8667.97810553379895282 22.009497869018204596614 845.87777357746711004
23.009497869018190385759 8698.36412390595796751 23.009497869018190385759 833.28418579982076153
24.009497869018204596614 8726.81075784357562952 24.009497869018204596614 821.81863928451934953
25.009497869018204596614 8753.53247539130643418 25.009497869018204596614 811.68959148506633028
26.009497869018190385759 8778.70991060696360364 26.009497869018190385759 803.12676979899219987
27.009497869018204596614 8802.49809116828873812 27.009497869018204596614 795.03658672040648980
28.009497869018190385759 8825.02863942470867187 28.009497869018190385759 787.78670223565688957
29.009497869018190385759 8846.41644002467910468 29.009497869018190385759 781.44552307292735804
30.009497869018190385759 8866.76084421617088083 30.009497869018190385759 775.50702170990871309
31.009497869018218807469 8886.14857776105964149 31.009497869018218807469 770.10728116206416871
32.009497869018190385759 8904.65712023653213691 32.009497869018190385759 765.18274110710865443
33.009497869018190385759 8922.35308632685337216 33.009497869018190385759 760.85448743331858168
34.009497869018218807469 8939.29800141166560934 34.009497869018218807469 756.67544924495348369
35.009497869018190385759 8955.54484039466478862 35.009497869018190385759 752.92122259414782093
36.009497869018190385759 8971.14193660868295410 36.009497869018190385759 749.33940131658914652
37.009497869018190385759 8986.13345397091325140 37.009497869018190385759 746.01138944347485449
38.009497869018218807469 9000.55788428515188571 38.009497869018218807469 742.91289477483860537
39.009497869018190385759 9014.45118074777383299 39.009497869018190385759 740.07206804233794628
40.009497869018190385759 9027.84605066269068629 40.009497869018190385759 737.51504923535981106
41.009497869018218807469 9040.77157442698990053 41.009497869018218807469 734.88673274005907388
42.009497869018190385759 9053.25501361610986351 42.009497869018190385759 732.51902025852052702
43.009497869018190385759 9065.32151149539095059 43.009497869018190385759 730.18945253638446502
44.009497869018218807469 9076.99349094351782696 44.009497869018218807469 728.07207477336135071
46.009497869018190385759 9099.23705425866683072 46.009497869018190385759 724.14321041048049210
48.009497869018218807469 9120.13613895577691437 48.009497869018218807469 720.52224685829230566
50.009497869018190385759 9139.82006299173917796 50.009497869018190385759 717.27535174830723008
52.009497869018190385759 9158.40071905043441802 52.009497869018190385759 714.29237062224831334
54.009497869018218807469 9175.97603421376879851 54.009497869018218807469 711.50255927498585606
56.009497869018190385759 9192.63159273784367542 56.009497869018190385759 708.92351999203083324
58.009497869018218807469 9208.44322218436900584 58.009497869018218807469 706.61584900990499136
60.009497869018190385759 9223.47796425436717982 60.009497869018190385759 704.37134453567580294
62.009497869018190385759 9237.79556722657980572 62.009497869018190385759 702.27451208350089473
64.009497869018218807469 9251.44957331253863231 64.009497869018218807469 700.30802695463012242
66.009497869018190385759 9264.48780994993285276 66.009497869018190385759 698.47790880253535306
68.009497869018190385759 9276.95368207866340526 68.009497869018190385759 696.76650956757134736
70.009497869018190385759 9288.88612743311750819 70.009497869018190385759 695.11309679697137653
72.009497869018190385759 9300.32060956816712860 72.009497869018190385759 693.56297129114966538
74.009497869018218807469 9311.28941622746242501 74.009497869018218807469 692.08319785701326055
76.009497869018190385759 9321.82181237173790578 76.009497869018190385759 690.67561560999058656
78.009497869018190385759 9331.94469776021651342 78.009497869018190385759 689.34092245674753485
80.009497869018218807469 9341.68268284782061528 80.009497869018218807469 688.06226427902072373
82.009497869018190385759 9351.05827800758925150 82.009497869018190385759 686.83805635885960328
84.009497869018218807469 9360.09231280597487057 84.009497869018218807469 685.65610241307422257
86.009497869018190385759 9368.80397753936631489 86.009497869018190385759 684.53792724778645606
88.009497869018190385759 9377.21091405828337884 88.009497869018190385759 683.45265787815344538
91.009497869018218807469 9389.28550005906981824 91.009497869018218807469 681.91120354610779941
94.009497869018218807469 9400.76146343070286093 94.009497869018218807469 680.45394382275878797
97.009497869018218807469 9411.68382845708765672 97.009497869018218807469 679.08545741637738047
99.504748934509137825444 9420.37615736897350871 99.504748934509137825444 677.80620707465538999
nan nan nan nan

