Time Pressure difference Time.1 Pressure.1 difference.1
(hr) (psi) (hr) (psi)
0.000200000000020850166 0.79013315632137848 0.000200000000020850166 0.62977713861107909
0.000399999999999067768 1.57998530445508623 0.000399999999999067768 1.64926099192962861
0.000600000000019917934 2.36960049888514535 0.000600000000019917934 2.41340420138806344
0.000799999999998135536 3.15899754838052660 0.000799999999998135536 3.19157398229316636
0.001007140329434719206 3.97636181840392089 0.001007140329434719206 4.00872485215286289
0.001267914553977789183 5.00506431623866543 0.001267914553977789183 5.04506843414804163
0.001596209851982166583 6.29967119402591980 0.001596209851982166583 6.34890767752514140
0.002009509145224797066 7.92879603395453270 0.002009509145224797066 7.98906306008178824
0.002529822128153114136 9.97869415496819911 0.002529822128153114136 10.05194102790040844
0.003184857364431081805 12.55776470878382156 0.003184857364431081805 12.64596312928563115
0.004009497869034817086 15.80218337857214195 0.004009497869034817086 15.90707548480606981
0.005047658755856332391 19.88293962524389968 0.005047658755856332391 20.00558272242485103
0.006354625877790454069 25.01461328839725340 0.006354625877790454069 25.15459472000513941
0.008000000000009777068 31.46629658876854307 0.008000000000009777068 31.62042009123806352
0.010071403294361402914 39.57514905027696983 0.010071403294361402914 39.73528246158657140
0.012679145539692626699 49.76316289193902520 0.012679145539692626699 49.91276549446840960
0.015962098519750611558 62.55781074251782314 0.015962098519750611558 62.66639549774179585
0.020095091452091651263 78.61733743952751752 0.020095091452091651263 78.63172216214317700
0.025298221281360611101 98.76152752315316263 0.025298221281360611101 98.59212049813110923
0.031848573644296607199 124.00880325223582190 0.031848573644296607199 123.50825205386523464
0.040094978690191851456 155.62044149577971552 0.040094978690191851456 154.55060433803444653
0.050476587558435426217 195.15247445219659994 0.050476587558435426217 193.13364930339699299
0.063546258777947173257 244.51535732965442094 0.063546258777947173257 240.94875224766457222
0.080000000000012505552 306.04059803409319329 0.080000000000012505552 299.99079509773048358
0.100714032943542974863 382.55204261020082868 0.100714032943542974863 372.57027634053105203
0.126791455396883634421 477.43711990914857779 0.126791455396883634421 461.29811380768700246
0.159620985197506115583 594.70972568847787443 0.159620985197506115583 569.02424826329183816
0.200950914520774404082 739.05118078111297564 0.200950914520774404082 698.70334367561588351
0.252982212813464002465 915.80846211700782078 0.252982212813464002465 853.15175147237971487
0.318485736442809752589 1130.91947931459662868 0.318485736442809752589 1034.65071970850226535
0.400949786901833249431 1390.72382622459394952 0.400949786901833249431 1244.34479777404953893
0.504765875584169521062 1701.60555472694022683 0.504765875584169521062 1481.38878983907056863
0.635462587779443310865 2069.40587156860192408 0.635462587779443310865 1741.82654419904247334
0.800000000000011368684 2498.54676127121729223 0.800000000000011368684 2017.26749078117791214
1.007140329435344483500 2990.83776683927771955 1.007140329435344483500 2293.59907328729514120
1.267914553968907398485 3544.02271532162922085 1.267914553968907398485 2550.25584117392372718
1.596209851975117999245 4150.28567430385919579 1.596209851975117999245 2760.89520807066128327
2.009509145207687197399 4795.16876732268065098 2.009509145207687197399 2896.46572099268996681
2.529822128134725289783 5457.56874975971459207 2.529822128134725289783 2931.18140959110041877
3.184857364427983839050 6111.47489136347394378 3.184857364427983839050 2850.52804481596604091
4.009497869018204596614 6729.66404193710786785 4.009497869018204596614 2658.94206387599069785
5.009497869018190385759 7271.37383150834011758 5.009497869018190385759 2391.92548284943450199
6.009497869018190385759 7663.08029181720303313 6.009497869018190385759 2137.30385968315704304
7.009497869018204596614 7955.88169796861438954 7.009497869018204596614 1914.07539221777028615
8.009497869018190385759 8181.44533923918152141 8.009497869018190385759 1726.55571316263490189
9.009497869018204596614 8359.98156140694482019 9.009497869018204596614 1573.88318940882186325
10.009497869018190385759 8504.74178376809686597 10.009497869018190385759 1450.95863540889990873
11.009497869018190385759 8624.65016660563924233 11.009497869018190385759 1347.09134136752595623
12.009497869018204596614 8725.85420126297140087 12.009497869018204596614 1261.91467072950013062
13.009497869018190385759 8812.68632096256806108 13.009497869018190385759 1191.84836808129193741
14.009497869018204596614 8888.26285359160101507 14.009497869018204596614 1133.94750935579691031
15.009497869018190385759 8954.86844716960149526 15.009497869018190385759 1085.83318910730895368
16.009497869018190385759 9014.20797570564354828 16.009497869018190385759 1045.60574371204074851
17.009497869018204596614 9067.57493091957985598 17.009497869018204596614 1012.65207851480852241
18.009497869018190385759 9115.96613514775890508 18.009497869018190385759 983.83409991624239410
19.009497869018204596614 9160.16304322849282471 19.009497869018204596614 960.44005602573133729
20.009497869018190385759 9200.78169271793922235 20.009497869018190385759 939.18273374146781407
21.009497869018190385759 9238.31723283292922133 21.009497869018190385759 920.85165829135075910
22.009497869018204596614 9273.17477506431168877 22.009497869018204596614 904.93680731823621954
23.009497869018190385759 9305.68233976425472065 23.009497869018190385759 891.46393751106950276
24.009497869018204596614 9336.11511255787991104 24.009497869018204596614 879.19786860393389816
25.009497869018204596614 9364.70253561006938980 25.009497869018204596614 868.36161251217686186
26.009497869018190385759 9391.63785481600825733 26.009497869018190385759 859.20093615883172333
27.009497869018204596614 9417.08692185796644480 27.009497869018204596614 850.54589795538981889
28.009497869018190385759 9441.19054893409156648 28.009497869018190385759 842.78982784220045232
29.009497869018190385759 9464.07164191829360789 29.009497869018190385759 836.00590869288396334
30.009497869018190385759 9485.83648874477876234 30.009497869018190385759 829.65278223469954355
31.009497869018218807469 9506.57787035248475149 31.009497869018218807469 823.87603277473078833
32.009497869018190385759 9526.37867592872134992 32.009497869018190385759 818.60766222044287588
33.009497869018190385759 9545.31017118300951552 33.009497869018190385759 813.97721065501423254
34.009497869018218807469 9563.43817718590435106 34.009497869018218807469 809.50639277331731591
35.009497869018190385759 9580.81936753933587170 35.009497869018190385759 805.49004669418980029
36.009497869018190385759 9597.50545020073150226 36.009497869018190385759 801.65814330040507230
37.009497869018190385759 9613.54367260401704698 37.009497869018190385759 798.09777023795163586
38.009497869018218807469 9628.97521404380131571 38.009497869018218807469 794.78293922983868924
39.009497869018190385759 9643.83853796214680187 39.009497869018190385759 791.74376648673535328
40.009497869018190385759 9658.16863528103021963 40.009497869018190385759 789.00821708737817062
41.009497869018218807469 9671.99661678563097666 41.009497869018218807469 786.19639200794620137
42.009497869018190385759 9685.35164744966823491 42.009497869018190385759 783.66336626756140049
43.009497869018190385759 9698.26062603673562990 43.009497869018190385759 781.17114854680778535
44.009497869018218807469 9710.74754098687117221 44.009497869018218807469 778.90593584987982467
46.009497869018190385759 9734.54414588483450643 46.009497869018190385759 774.70275888508615481
48.009497869018218807469 9756.90240090989573218 48.009497869018218807469 770.82898031011006879
50.009497869018190385759 9777.96065297539644234 50.009497869018190385759 767.35538756857192766
52.009497869018190385759 9797.83860709224427410 52.009497869018190385759 764.16413523776566308
54.009497869018218807469 9816.64102759355773742 54.009497869018218807469 761.17953976490593959
56.009497869018190385759 9834.45947421278287948 56.009497869018190385759 758.42043242390695923
58.009497869018218807469 9851.37506877832129248 58.009497869018218807469 755.95164026960549108
60.009497869018190385759 9867.45953383068626863 60.009497869018190385759 753.55042489740083056
62.009497869018190385759 9882.77678926267253701 62.009497869018190385759 751.30719198122278613
64.009497869018218807469 9897.38411559336964274 64.009497869018218807469 749.20340721497598224
66.009497869018190385759 9911.33267956355302886 66.009497869018190385759 747.24551054325274890
68.009497869018190385759 9924.66891663820752001 68.009497869018190385759 745.41462172206399828
70.009497869018190385759 9937.43448317731963471 70.009497869018190385759 743.64576796973301498
72.009497869018190385759 9949.66731879477265466 72.009497869018190385759 741.98741298039658432
74.009497869018218807469 9961.40196555865804839 74.009497869018218807469 740.40432203171462788
76.009497869018190385759 9972.66973170399796800 76.009497869018190385759 738.89846264582320146
78.009497869018190385759 9983.49939512635864958 78.009497869018190385759 737.47058145710605004
80.009497869018218807469 9993.91728457818680909 80.009497869018218807469 736.10264759579911242
82.009497869018190385759 10003.94748210271427524 82.009497869018190385759 734.79296569923042171
84.009497869018218807469 10013.61227158296969719 84.009497869018218807469 733.52848794191504567
86.009497869018190385759 10022.93218317837636278 86.009497869018190385759 732.33224198805976357
88.009497869018190385759 10031.92609049028033041 88.009497869018190385759 731.17119930658304838
91.009497869018218807469 10044.84372191003967600 91.009497869018218807469 729.52212091081355538
94.009497869018218807469 10057.12093497654132079 94.009497869018218807469 727.96311557614967569
97.009497869018218807469 10068.80589756107292487 97.009497869018218807469 726.49908169544880820
99.504748934509137825444 10078.10512331140125752 99.504748934509137825444 725.13051432536315133
nan nan nan nan

