Time Pressure difference Time.1 Pressure.1 difference.1
(hr) (psi) (hr) (psi)
0.000200000000020850166 0.04823970849119995 0.000200000000020850166 0.03844955162046589
0.000399999999999067768 0.09646226069304738 0.000399999999999067768 0.10069172371780891
0.000600000000019917934 0.14467034624772465 0.000600000000019917934 0.14734467755842912
0.000799999999998135536 0.19286511348007426 0.000799999999998135536 0.19485399049789856
0.001007140329434719206 0.24276735312360781 0.001007140329434719206 0.24474320149985904
0.001267914553977789183 0.30557234772825531 0.001267914553977789183 0.30801470440061729
0.001596209851982166583 0.38461150447737197 0.001596209851982166583 0.38761752136469285
0.002009509145224797066 0.48407386312564510 0.002009509145224797066 0.48775332366815133
0.002529822128153114136 0.60922553788226896 0.002529822128153114136 0.61369745222970917
0.003184857364431081805 0.76668458222048586 0.003184857364431081805 0.77206932789322791
0.004009497869034817086 0.96476487995493077 0.004009497869034817086 0.97116881907237040
0.005047658755856332391 1.21390578764646961 0.005047658755856332391 1.22139347147435928
0.006354625877790454069 1.52720796918635870 0.006354625877790454069 1.53575420395820861
0.008000000000009777068 1.92110021278797416 0.008000000000009777068 1.93050985820190313
0.010071403294361402914 2.41616699464848894 0.010071403294361402914 2.42594356081265339
0.012679145539692626699 3.03817205024469805 0.012679145539692626699 3.04730568282017611
0.015962098519750611558 3.81931897164845635 0.015962098519750611558 3.82594835670423628
0.020095091452091651263 4.79979533841325967 0.020095091452091651263 4.80067356358347830
0.025298221281360611101 6.02965115404514052 0.025298221281360611101 6.01930840935958411
0.031848573644296607199 7.57106377750492321 0.031848573644296607199 7.54050380960440414
0.040094978690191851456 9.50103748079497201 0.040094978690191851456 9.43572110695368238
0.050476587558435426217 11.91457212444989722 0.050476587558435426217 11.79131753641792102
0.063546258777947173257 14.92830602644206195 0.063546258777947173257 14.71055540038373266
0.080000000000012505552 18.68458387997621628 0.080000000000012505552 18.31522749017722873
0.100714032943542974863 23.35580891725436459 0.100714032943542974863 22.74639581868505545
0.126791455396883634421 29.14879258392696570 0.126791455396883634421 28.16346379036404457
0.159620985197506115583 36.30859377887549044 0.159620985197506115583 34.74042778870623494
0.200950914520774404082 45.12101945821531501 0.200950914520774404082 42.65767782440602218
0.252982212813464002465 55.91251663451205900 0.252982212813464002465 52.08715956357686139
0.318485736442809752589 69.04561031604903576 0.318485736442809752589 63.16814920325593619
0.400949786901833249431 84.90734939055415964 0.400949786901833249431 75.97052449567883059
0.504765875584169521062 103.88749702543425713 0.504765875584169521062 90.44268401122747036
0.635462587779443310865 126.34267426418834646 0.635462587779443310865 106.34309427741521858
0.800000000000011368684 152.54285489866379066 0.800000000000011368684 123.15948891085086814
1.007140329435344483500 182.59851629124011652 1.007140329435344483500 140.03025921122434738
1.267914553968907398485 216.37191314595210656 1.267914553968907398485 155.69983030325008144
1.596209851975117999245 253.38586222065663378 1.596209851975117999245 168.55991796641933433
2.009509145207687197399 292.75767211022684933 2.009509145207687197399 176.83685454481687316
2.529822128134725289783 333.19893419585628180 2.529822128134725289783 178.95633869082507772
3.184857364427983839050 373.12162494640159593 3.184857364427983839050 174.03223852560634555
4.009497869018204596614 410.86369940247607246 4.009497869018204596614 162.33541021558676221
5.009497869018190385759 443.93650760787767240 5.009497869018190385759 146.03334526870230548
6.009497869018190385759 467.85121781620813408 6.009497869018190385759 130.48802511749801170
7.009497869018204596614 485.72751419176813670 7.009497869018204596614 116.85933973540070951
8.009497869018190385759 499.49876807986584026 8.009497869018190385759 105.41076985624508211
9.009497869018204596614 510.39887427537132680 9.009497869018204596614 96.08971051127544172
10.009497869018190385759 519.23686679847332925 10.009497869018190385759 88.58484300391177158
11.009497869018190385759 526.55758911908105802 11.009497869018190385759 82.24347136770158784
12.009497869018204596614 532.73636176131833508 12.009497869018204596614 77.04321147611685205
13.009497869018190385759 538.03769117455669857 13.009497869018190385759 72.76547931443678863
14.009497869018204596614 542.65183737717143231 14.009497869018204596614 69.23047951856445081
15.009497869018190385759 546.71828414298613552 15.009497869018190385759 66.29297365076200776
16.009497869018190385759 550.34111851676561855 16.009497869018190385759 63.83698224768247798
17.009497869018204596614 553.59931157193216222 17.009497869018204596614 61.82507426721989674
18.009497869018190385759 556.55372193533685277 18.009497869018190385759 60.06566083699163983
19.009497869018204596614 559.25205948131849709 19.009497869018204596614 58.63739289420254153
20.009497869018190385759 561.73193492383200009 20.009497869018190385759 57.33957742842645899
21.009497869018190385759 564.02357842558944867 21.009497869018190385759 56.22041703252457268
22.009497869018204596614 566.15172310918956100 22.009497869018204596614 55.24877349942916283
23.009497869018190385759 568.13639548034404925 23.009497869018190385759 54.42621934278108142
24.009497869018204596614 569.99439634563896107 24.009497869018204596614 53.67734355687175452
25.009497869018204596614 571.73973375303580724 25.009497869018204596614 53.01576160600658483
26.009497869018190385759 573.38420587297730435 26.009497869018190385759 52.45647820759183588
27.009497869018204596614 574.93793838711803801 27.009497869018204596614 51.92806534885538383
28.009497869018190385759 576.40952825071292409 28.009497869018190385759 51.45453685773434671
29.009497869018190385759 577.80647919080115571 29.009497869018190385759 51.04036074124976352
30.009497869018190385759 579.13528036547063493 30.009497869018190385759 50.65248565222376698
31.009497869018218807469 580.40159629520439921 31.009497869018218807469 50.29979989572041177
32.009497869018190385759 581.61048758301672024 32.009497869018190385759 49.97815200924809176
33.009497869018190385759 582.76630518801528069 33.009497869018190385759 49.69545075577980953
34.009497869018218807469 583.87306765977098166 34.009497869018218807469 49.42249555879200074
35.009497869018190385759 584.93423507082263768 35.009497869018190385759 49.17728706132947991
36.009497869018190385759 585.95296432804457254 36.009497869018190385759 48.94333927518262328
37.009497869018190385759 586.93214001161379656 37.009497869018190385759 48.72596913031705412
38.009497869018218807469 587.87427622583209086 38.009497869018218807469 48.52358997403225516
39.009497869018190385759 588.78172126505739925 39.009497869018190385759 48.33804048024278899
40.009497869018190385759 589.65661141715759186 40.009497869018190385759 48.17102799059782114
41.009497869018218807469 590.50084607743849574 41.009497869018218807469 47.99935866995881639
42.009497869018190385759 591.31620584429549581 42.009497869018190385759 47.84471078265111288
43.009497869018190385759 592.10433295803227338 43.009497869018190385759 47.69255433233142583
44.009497869018218807469 592.86669197604044257 44.009497869018218807469 47.55425713609793092
46.009497869018190385759 594.31953732770568877 46.009497869018190385759 47.29764212140526070
48.009497869018218807469 595.68456763449887603 48.009497869018218807469 47.06113774524882132
50.009497869018190385759 596.97022933955042845 50.009497869018190385759 46.84906576734439199
52.009497869018190385759 598.18383074878965999 52.009497869018190385759 46.65423141451621802
54.009497869018218807469 599.33176800044884658 54.009497869018218807469 46.47201400669952420
56.009497869018190385759 600.41963105720151361 56.009497869018190385759 46.30356324272273838
58.009497869018218807469 601.45237262015018587 58.009497869018218807469 46.15283698488117636
60.009497869018190385759 602.43437153913657767 60.009497869018190385759 46.00623646742026551
62.009497869018190385759 603.36953029182620867 62.009497869018190385759 45.86928119464307230
64.009497869018218807469 604.26134600464786217 64.009497869018218807469 45.74083959838799984
66.009497869018190385759 605.11294254177482799 66.009497869018190385759 45.62130485421965176
68.009497869018190385759 605.92715491054320864 68.009497869018190385759 45.50952427355758800
70.009497869018190385759 606.70652634135228709 70.009497869018190385759 45.40153109709947898
72.009497869018190385759 607.45337314747030177 72.009497869018190385759 45.30028416090841858
74.009497869018218807469 608.16980421305493110 74.009497869018218807469 45.20363229246257930
76.009497869018190385759 608.85773098824404315 76.009497869018190385759 45.11169561416605234
78.009497869018190385759 609.51891043929333591 78.009497869018190385759 45.02451971001279674
80.009497869018218807469 610.15495000582609464 80.009497869018218807469 44.94100374795405628
82.009497869018190385759 610.76731995995521629 82.009497869018190385759 44.86104422163722916
84.009497869018218807469 611.35738079138127432 84.009497869018218807469 44.78384452698007578
86.009497869018190385759 611.92638592036405498 86.009497869018190385759 44.71081056348154448
88.009497869018190385759 612.47548762993289984 88.009497869018190385759 44.63992585240190891
91.009497869018218807469 613.26414302187606609 91.009497869018218807469 44.53924527666019628
94.009497869018218807469 614.01369918804152803 94.009497869018218807469 44.44406389833335425
97.009497869018218807469 614.72709690372869318 97.009497869018218807469 44.35468077719582425
99.504748934509137825444 615.29483910743294928 99.504748934509137825444 44.27112613775901906
nan nan nan nan

