Time Pressure difference Time.1 Pressure.1 difference.1
(hr) (psi) (hr) (psi)
0.000200000000020850166 0.14804600192126882 0.000200000000020850166 0.11800034807660219
0.000399999999999067768 0.29603935178211088 0.000399999999999067768 0.30901942796155146
0.000600000000019917934 0.44398830400163780 0.000600000000019917934 0.45219573457586870
0.000799999999998135536 0.59189638274919343 0.000799999999998135536 0.59800017773493008
0.001007140329434719206 0.74504463544831367 0.001007140329434719206 0.75110844598232596
0.001267914553977789183 0.93779099820050771 0.001267914553977789183 0.94528650660879099
0.001596209851982166583 1.18035944477538290 0.001596209851982166583 1.18958480694681601
0.002009509145224797066 1.48560599373042823 0.002009509145224797066 1.49689813125742988
0.002529822128153114136 1.86969216798351523 0.002529822128153114136 1.88341631891186601
0.003184857364431081805 2.35292854543528396 0.003184857364431081805 2.36945414422404443
0.004009497869034817086 2.96083014882720130 0.004009497869034817086 2.98048361715313703
0.005047658755856332391 3.72543500346675138 0.005047658755856332391 3.74841444693855097
0.006354625877790454069 4.68694859508917006 0.006354625877790454069 4.71317669490622659
0.008000000000009777068 5.89579030821136918 0.008000000000009777068 5.92466818551618424
0.010071403294361402914 7.41513319047294939 0.010071403294361402914 7.44513713490779949
0.012679145539692626699 9.32404525764752279 0.012679145539692626699 9.35207606106881606
0.015962098519750611558 11.72135822333491895 0.015962098519750611558 11.74170357747162008
0.020095091452091651263 14.73040638340621022 0.020095091452091651263 14.73310162616998475
0.025298221281360611101 18.50479147275922642 0.025298221281360611101 18.47304994596562011
0.031848573644296607199 23.23533366199786698 0.031848573644296607199 23.14154617430316918
0.040094978690191851456 29.15835640657767058 0.040094978690191851456 28.95790270754750750
0.050476587558435426217 36.56541100262210620 0.050476587558435426217 36.18714692211018047
0.063546258777947173257 45.81445642597736168 0.063546258777947173257 45.14618726324662390
0.080000000000012505552 57.34234363165114701 0.080000000000012505552 56.20880160778528989
0.100714032943542974863 71.67817219433236176 0.100714032943542974863 69.80790440906791616
0.126791455396883634421 89.45663930929309515 0.126791455396883634421 86.43269921870346195
0.159620985197506115583 111.42982228689375290 0.159620985197506115583 106.61717493775361731
0.200950914520774404082 138.47485282004009832 0.200950914520774404082 130.91494228869433414
0.252982212813464002465 171.59358553350250531 0.252982212813464002465 159.85369659166696010
0.318485736442809752589 211.89859717684018392 0.318485736442809752589 193.86087169275094766
0.400949786901833249431 260.57772743997657017 0.400949786901833249431 233.15092000397982019
0.504765875584169521062 318.82714604357408916 0.504765875584169521062 277.56547851721529696
0.635462587779443310865 387.74131067285384233 0.635462587779443310865 326.36328933413636832
0.800000000000011368684 468.14876158555438224 0.800000000000011368684 377.97222458847335247
1.007140329435344483500 560.38854999725413109 1.007140329435344483500 429.74803688961958414
1.267914553968907398485 664.03794034447366812 1.267914553968907398485 477.83741024100891082
1.596209851975117999245 777.63247371167040001 1.596209851975117999245 517.30457582797657778
2.009509145207687197399 898.46320061414439806 2.009509145207687197399 542.70620877547253258
2.529822128134725289783 1022.57603942866228408 2.529822128134725289783 549.21083253391145718
3.184857364427983839050 1145.09740069757731362 3.184857364427983839050 534.09893892341256105
4.009497869018204596614 1260.92652575242664170 4.009497869018204596614 498.20177617886974986
5.009497869018190385759 1362.42583369314183983 5.009497869018190385759 448.17130099705195789
6.009497869018190385759 1435.81925467732844481 6.009497869018190385759 400.46324949852839836
7.009497869018204596614 1490.68099182990886220 7.009497869018204596614 358.63728401554010361
8.009497869018190385759 1532.94449514165717119 8.009497869018190385759 323.50201783468315853
9.009497869018204596614 1566.39654518993279453 9.009497869018204596614 294.89600812081084769
10.009497869018190385759 1593.52003948496985686 10.009497869018190385759 271.86382852924651843
11.009497869018190385759 1615.98708384821452455 11.009497869018190385759 252.40237764570488821
12.009497869018204596614 1634.94952402611465914 12.009497869018204596614 236.44295935773789097
13.009497869018190385759 1651.21912119088119653 13.009497869018190385759 223.31474686154737697
14.009497869018204596614 1665.37977677821572797 14.009497869018204596614 212.46595438455986482
15.009497869018190385759 1677.85956168019879442 15.009497869018190385759 203.45085016957997937
16.009497869018190385759 1688.97791544800475094 16.009497869018190385759 195.91349724288764378
17.009497869018204596614 1698.97719758282642033 17.009497869018204596614 189.73902102698519911
18.009497869018190385759 1708.04418111189579577 18.009497869018190385759 184.33944187904330647
19.009497869018204596614 1716.32528599439160644 19.009497869018204596614 179.95613681324226718
20.009497869018190385759 1723.93593821451918302 20.009497869018190385759 175.97318590103293445
21.009497869018190385759 1730.96891309922261826 21.009497869018190385759 172.53852123774782967
22.009497869018204596614 1737.50011574889231269 22.009497869018204596614 169.55658073962743515
23.009497869018190385759 1743.59100681898689800 23.009497869018190385759 167.03219039681090408
24.009497869018204596614 1749.29314740558174890 24.009497869018204596614 164.73391643315815713
25.009497869018204596614 1754.64952772483411536 25.009497869018204596614 162.70354423912365860
26.009497869018190385759 1759.69635595499948977 26.009497869018190385759 160.98712277502320944
27.009497869018204596614 1764.46470746391378270 27.009497869018204596614 159.36544193269409675
28.009497869018190385759 1768.98096601080874279 28.009497869018190385759 157.91219932201232723
29.009497869018190385759 1773.26816027521726937 29.009497869018190385759 156.64110710245614655
30.009497869018190385759 1777.34620525954778714 30.009497869018190385759 155.45073182923843547
31.009497869018218807469 1781.23248518183413580 31.009497869018218807469 154.36835140410744316
32.009497869018190385759 1784.94253085822379035 32.009497869018190385759 153.38122513183034812
33.009497869018190385759 1788.48969523218488575 33.009497869018190385759 152.51362473325531255
34.009497869018218807469 1791.88631109377979556 34.009497869018218807469 151.67593464594787633
35.009497869018190385759 1795.14299728631772268 35.009497869018190385759 150.92339822270079708
36.009497869018190385759 1798.26944224813678375 36.009497869018190385759 150.20542053418117234
37.009497869018190385759 1801.27449865633184345 37.009497869018190385759 149.53831905511094646
38.009497869018218807469 1804.16588221031202011 38.009497869018218807469 148.91722440306452313
39.009497869018190385759 1806.95079974448640314 39.009497869018190385759 148.34777940488305603
40.009497869018190385759 1809.63580745265630867 40.009497869018190385759 147.83522383321400184
41.009497869018218807469 1812.22673451351829499 41.009497869018218807469 147.30837660780463239
42.009497869018190385759 1814.72904552214822615 42.009497869018190385759 146.83376757434308502
43.009497869018190385759 1817.14778045740945345 43.009497869018190385759 146.36680467508608672
44.009497869018218807469 1819.48743399543468513 44.009497869018218807469 145.94237534871430739
46.009497869018190385759 1823.94616628157950800 46.009497869018190385759 145.15483271741612725
48.009497869018218807469 1828.13539722311725200 48.009497869018218807469 144.42900894231536313
50.009497869018190385759 1832.08104866275834866 50.009497869018190385759 143.77816735495349576
52.009497869018190385759 1835.80554953938917606 52.009497869018190385759 143.18022744454975737
54.009497869018218807469 1839.32852938068776893 54.009497869018218807469 142.62100850331921720
56.009497869018190385759 1842.66714358934245865 56.009497869018190385759 142.10403891732150328
58.009497869018218807469 1845.83659183425424999 58.009497869018218807469 141.64146522946290929
60.009497869018190385759 1848.85031265459156202 60.009497869018190385759 141.19155329656564390
62.009497869018190385759 1851.72028261974264751 62.009497869018190385759 140.77124228700807862
64.009497869018218807469 1854.45723429012605266 64.009497869018218807469 140.37705945712178845
66.009497869018190385759 1857.07075469717096894 66.009497869018190385759 140.01021144915682726
68.009497869018190385759 1859.56954438063257840 68.009497869018190385759 139.66716070160777008
70.009497869018190385759 1861.96140842690829231 70.009497869018190385759 139.33573336696048273
72.009497869018190385759 1864.25345552154681172 72.009497869018190385759 139.02501001106375611
74.009497869018218807469 1866.45215775730662244 74.009497869018218807469 138.72838875962654015
76.009497869018190385759 1868.56338130874905801 76.009497869018190385759 138.44623826416477641
78.009497869018190385759 1870.59251824472789849 78.009497869018190385759 138.17869842038408024
80.009497869018218807469 1872.54450174201792834 80.009497869018218807469 137.92239081268658651
82.009497869018190385759 1874.42384401503500158 82.009497869018190385759 137.67699778364527674
84.009497869018218807469 1876.23472035975646577 84.009497869018218807469 137.44007458280091782
86.009497869018190385759 1877.98097747973793048 86.009497869018190385759 137.21593586723645330
88.009497869018190385759 1879.66615169186275125 88.009497869018190385759 136.99839313323346346
91.009497869018218807469 1882.08650789472335418 91.009497869018218807469 136.68940791802612011
94.009497869018218807469 1884.38686992192037906 94.009497869018218807469 136.39729955005753936
97.009497869018218807469 1886.57626291144310926 97.009497869018218807469 136.12298583346301939
99.504748934509137825444 1888.31864415729410211 99.504748934509137825444 135.86655952622595578
nan nan nan nan

