Time Pressure difference Time.1 Pressure.1 difference.1
(hr) (psi) (hr) (psi)
0.000200000000020850166 0.36179781368399960 0.000200000000020850166 0.28837163715349412
0.000399999999999067768 0.72346695519785520 0.000399999999999067768 0.75518792788356681
0.000600000000019917934 1.08502759685793504 0.000600000000019917934 1.10508508168821851
0.000799999999998135536 1.44648835110055707 0.000799999999998135536 1.46140492873423922
0.001007140329434719206 1.82075514842705877 0.001007140329434719206 1.83557401124894248
0.001267914553977789183 2.29179260796191508 0.001267914553977789183 2.31011028300462939
0.001596209851982166583 2.88458628358028957 0.001596209851982166583 2.90713141023519617
0.002009509145224797066 3.63055397344233866 0.002009509145224797066 3.65814992751113488
0.002529822128153114136 4.56919153411701728 0.002529822128153114136 4.60273089172281935
0.003184857364431081805 5.75013436665364441 0.003184857364431081805 5.79051995919920959
0.004009497869034817086 7.23573659966198068 0.004009497869034817086 7.28376614304277847
0.005047658755856332391 9.10429340734852310 0.005047658755856332391 9.16045103605769384
0.006354625877790454069 11.45405976889768951 0.006354625877790454069 11.51815652968656423
0.008000000000009777068 14.40825159590980675 0.008000000000009777068 14.47882393651427080
0.010071403294361402914 18.12125245986366551 0.010071403294361402914 18.19457670609490307
0.012679145539692626699 22.78629037683523606 0.012679145539692626699 22.85479262115132215
0.015962098519750611558 28.64489228736342596 0.015962098519750611558 28.69461267528176762
0.020095091452091651263 35.99846503809943954 0.020095091452091651263 36.00505172687608990
0.025298221281360611101 45.22238365533855387 0.025298221281360611101 45.14481307019687506
0.031848573644296607199 56.78297833128692673 0.031848573644296607199 56.55377857203302483
0.040094978690191851456 71.25778110596228032 0.040094978690191851456 70.76790830215261963
0.050476587558435426217 89.35929093337423978 0.050476587558435426217 88.43488152313442185
0.063546258777947173257 111.96229519831545929 0.063546258777947173257 110.32916550287798430
0.080000000000012505552 140.13437909982161500 0.080000000000012505552 137.36420617632921903
0.100714032943542974863 175.16856687940773440 0.100714032943542974863 170.59796864013790696
0.126791455396883634421 218.61594437945225877 0.126791455396883634421 211.22597842773035381
0.159620985197506115583 272.31445334156620675 0.159620985197506115583 260.55320841529675135
0.200950914520774404082 338.40764593661486970 0.200950914520774404082 319.93258368304515216
0.252982212813464002465 419.34387475884045671 0.252982212813464002465 390.65369672682646751
0.318485736442809752589 517.84207737036786057 0.318485736442809752589 473.76111902441948587
0.400949786901833249431 636.80512042915609072 0.400949786901833249431 569.77893371759125785
0.504765875584169521062 779.15622769075685028 0.504765875584169521062 678.32013008420597089
0.635462587779443310865 947.57005698141244920 0.635462587779443310865 797.57320708061422465
0.800000000000011368684 1144.07141173997842998 0.800000000000011368684 923.69616683138156077
1.007140329435344483500 1369.48887218430081703 1.007140329435344483500 1050.22694408418260537
1.267914553968907398485 1622.78934859464084184 1.267914553968907398485 1167.74872727437559661
1.596209851975117999245 1900.39396665492472493 1.596209851975117999245 1264.19938474814489382
2.009509145207687197399 2195.68254082670136995 2.009509145207687197399 1326.27640908612670501
2.529822128134725289783 2498.99200646892222721 2.529822128134725289783 1342.17254018118819658
3.184857364427983839050 2798.41218709801205478 3.184857364427983839050 1305.24178894204760581
4.009497869018204596614 3081.47774551857082770 4.009497869018204596614 1217.51557661690071654
5.009497869018190385759 3329.52380705908217351 5.009497869018190385759 1095.25008951526751844
6.009497869018190385759 3508.88413362156097719 6.009497869018190385759 978.66018838123500245
7.009497869018204596614 3642.95635643826062733 7.009497869018204596614 876.44504801550544926
8.009497869018190385759 3746.24076059899334723 8.009497869018190385759 790.58077392183815846
9.009497869018204596614 3827.99155706528517840 9.009497869018204596614 720.67282883456584841
10.009497869018190385759 3894.27650098854974203 10.009497869018190385759 664.38632252933837208
11.009497869018190385759 3949.18191839310838986 11.009497869018190385759 616.82603525776198694
12.009497869018204596614 3995.52271320988711523 12.009497869018204596614 577.82408607087631935
13.009497869018190385759 4035.28268380917552349 13.009497869018190385759 545.74109485827591470
14.009497869018204596614 4069.88878032878574231 14.009497869018204596614 519.22859638923330294
15.009497869018190385759 4100.38713107239618694 15.009497869018190385759 497.19730238071514350
16.009497869018190385759 4127.55838887574191176 16.009497869018190385759 478.77736685761868785
17.009497869018204596614 4151.99483678949127352 17.009497869018204596614 463.68805700414918647
18.009497869018190385759 4174.15291451502616837 18.009497869018190385759 450.49245627743732712
19.009497869018204596614 4194.39044610988912609 19.009497869018204596614 439.78044670651900105
20.009497869018190385759 4212.98951192874028493 20.009497869018190385759 430.04683071319846022
21.009497869018190385759 4230.17683819192006922 21.009497869018190385759 421.65312774393430573
22.009497869018204596614 4246.13792331892182119 22.009497869018204596614 414.36580124571872830
23.009497869018190385759 4261.02296610258053988 23.009497869018190385759 408.19664507085815330
24.009497869018204596614 4274.95797259229220799 24.009497869018204596614 402.58007667653822637
25.009497869018204596614 4288.04800314776821324 25.009497869018204596614 397.61821204504940397
26.009497869018190385759 4300.38154404732995317 26.009497869018190385759 393.42358655693880110
27.009497869018204596614 4312.03453790338517138 27.009497869018204596614 389.46049011641537163
28.009497869018190385759 4323.07146188034676015 28.009497869018190385759 385.90902643300756836
29.009497869018190385759 4333.54859393100832676 29.009497869018190385759 382.80270555937318022
30.009497869018190385759 4343.51460274103010306 30.009497869018190385759 379.89364239167827009
31.009497869018218807469 4353.01197221403344884 31.009497869018218807469 377.24849921790308827
32.009497869018190385759 4362.07865687262528809 32.009497869018190385759 374.83614006936062424
33.009497869018190385759 4370.74728891011454834 33.009497869018190385759 372.71588066834857500
34.009497869018218807469 4379.04800744828207826 34.009497869018218807469 370.66871669094007302
35.009497869018190385759 4387.00676303116961208 35.009497869018190385759 368.82965295997104249
36.009497869018190385759 4394.64723246033372561 36.009497869018190385759 367.07504456386971015
37.009497869018190385759 4401.99105008710284892 37.009497869018190385759 365.44476847737786329
38.009497869018218807469 4409.05707169373999932 38.009497869018218807469 363.92692480524192433
39.009497869018190385759 4415.86290948792975541 39.009497869018190385759 362.53530360182094228
40.009497869018190385759 4422.42458562868250738 40.009497869018190385759 361.28270992948364437
41.009497869018218807469 4428.75634558078945702 41.009497869018218807469 359.99519002469111228
42.009497869018190385759 4434.87154383221604803 42.009497869018190385759 358.83533086988336436
43.009497869018190385759 4440.78249718524148193 43.009497869018190385759 357.69415749248565817
44.009497869018218807469 4446.50018982030451298 44.009497869018218807469 356.65692852073442509
46.009497869018190385759 4457.39652995779306366 46.009497869018190385759 354.73231591053945522
48.009497869018218807469 4467.63425725874094496 48.009497869018218807469 352.95853308936619896
50.009497869018190385759 4477.27672004662872496 50.009497869018190385759 351.36799325508297898
52.009497869018190385759 4486.37873061592290469 52.009497869018190385759 349.90673560887159965
54.009497869018218807469 4494.98826000336521247 54.009497869018218807469 348.54010505024643862
56.009497869018190385759 4503.14723292901089735 56.009497869018190385759 347.27672432042049877
58.009497869018218807469 4510.89279465112667822 58.009497869018218807469 346.14627738660880141
60.009497869018190385759 4518.25778654352416197 60.009497869018190385759 345.04677350565197003
62.009497869018190385759 4525.27147718869673554 62.009497869018190385759 344.01960895982307420
64.009497869018218807469 4531.96009503485856840 64.009497869018218807469 343.05629698791000237
66.009497869018190385759 4538.34706906331120990 66.009497869018190385759 342.15978640664735622
68.009497869018190385759 4544.45366182907491748 68.009497869018190385759 341.32143205168188160
70.009497869018190385759 4550.29894756014164159 70.009497869018190385759 340.51148322824616343
72.009497869018190385759 4555.90029860602771805 72.009497869018190385759 339.75213120681314649
74.009497869018218807469 4561.27353159791255166 74.009497869018218807469 339.02724219346936252
76.009497869018190385759 4566.43298241183038044 76.009497869018190385759 338.33771710624534990
78.009497869018190385759 4571.39182829470064462 78.009497869018190385759 337.68389782509592578
80.009497869018218807469 4576.16212504369559610 80.009497869018218807469 337.05752810965543631
82.009497869018190385759 4580.75489969966474746 82.009497869018190385759 336.45783166227920447
84.009497869018218807469 4585.18035593536023953 84.009497869018218807469 335.87883395235058970
86.009497869018190385759 4589.44789440273052605 86.009497869018190385759 335.33107922611156937
88.009497869018190385759 4593.56615722449623718 88.009497869018190385759 334.79944389301437013
91.009497869018218807469 4599.48107266407077987 91.009497869018218807469 334.04433957495149343
94.009497869018218807469 4605.10274391031089181 94.009497869018218807469 333.33047923750012842
97.009497869018218807469 4610.45322677796502830 97.009497869018218807469 332.66010582896865344
99.504748934509137825444 4614.71129330574694904 99.504748934509137825444 332.03344603319266071
nan nan nan nan

