Time Pressure difference Time.1 Pressure.1 difference.1
(hr) (psi) (hr) (psi)
0.000200000000020850166 0.16967069883111704 0.000200000000020850166 0.13523635397543171
0.000399999999999067768 0.33928105485140797 0.000399999999999067768 0.35415709721436234
0.000600000000019917934 0.50884052818165226 0.000600000000019917934 0.51824679692964726
0.000799999999998135536 0.67835315775750260 0.000799999999998135536 0.68534851830295362
0.001007140329434719206 0.85387137995199991 0.001007140329434719206 0.86082091562019369
0.001267914553977789183 1.07477170580282899 0.001267914553977789183 1.08336206375389521
0.001596209851982166583 1.35277149850661860 0.001596209851982166583 1.36334438548960923
0.002009509145224797066 1.70260462202813123 0.002009509145224797066 1.71554617290177358
0.002529822128153114136 2.14279327117211826 0.002529822128153114136 2.15852207335966684
0.003184857364431081805 2.69661473746515767 0.003184857364431081805 2.71555418776238788
0.004009497869034817086 3.39331095708286012 0.004009497869034817086 3.41583515673730309
0.005047658755856332391 4.26959966689447956 0.005047658755856332391 4.29593565828912549
0.006354625877790454069 5.37155906403477879 0.006354625877790454069 5.40161823461163060
0.008000000000009777068 6.75697316221977129 0.008000000000009777068 6.79006915643427966
0.010071403294361402914 8.49824253290158182 0.010071403294361402914 8.53262907596174713
0.012679145539692626699 10.68598445258480112 0.012679145539692626699 10.71810964302268943
0.015962098519750611558 13.43346672786698548 0.015962098519750611558 13.45678387530455566
0.020095091452091651263 16.88203877648801665 0.020095091452091651263 16.88512770639706062
0.025298221281360611101 21.20773854181394213 0.025298221281360611101 21.17136061223025933
0.031848573644296607199 26.62925880363800601 0.031848573644296607199 26.52177201998790679
0.040094978690191851456 33.41744217383058668 0.040094978690191851456 33.18770872100950697
0.050476587558435426217 41.90642609289274390 0.050476587558435426217 41.47290995567682614
0.063546258777947173257 52.50645567921001344 0.063546258777947173257 51.74057416686692079
0.080000000000012505552 65.71819157784737797 0.080000000000012505552 64.41907599993371036
0.100714032943542974863 82.14801757103259661 0.100714032943542974863 80.00456460365087707
0.126791455396883634421 102.52333943312244458 0.126791455396883634421 99.05770022817698361
0.159620985197506115583 127.70608846363104760 0.159620985197506115583 122.19047015338054507
0.200950914520774404082 158.70151671510214442 0.200950914520774404082 150.03734958929013033
0.252982212813464002465 196.65781712828379568 0.252982212813464002465 183.20311294775311239
0.318485736442809752589 242.85007766334493340 0.318485736442809752589 222.17762823214152945
0.400949786901833249431 298.63964268401809932 0.400949786901833249431 267.20667236411168233
0.504765875584169521062 365.39740333083767609 0.504765875584169521062 318.10875066017939616
0.635462587779443310865 444.37768189473143821 0.635462587779443310865 374.03433159642594319
0.800000000000011368684 536.53004136771403410 0.800000000000011368684 433.18165065195819352
1.007140329435344483500 642.24305730022376792 1.007140329435344483500 492.52022205327187976
1.267914553968907398485 761.03224623748667454 1.267914553968907398485 547.63388589419002983
1.596209851975117999245 891.21923953472332869 1.596209851975117999245 592.86591836464731387
2.009509145207687197399 1029.69939845665976463 2.009509145207687197399 621.97790219211447038
2.529822128134725289783 1171.94107889577026071 2.529822128134725289783 629.43263953324685644
3.184857364427983839050 1312.35881877699875986 3.184857364427983839050 612.11339067627056920
4.009497869018204596614 1445.10680479491588812 4.009497869018204596614 570.97282213758114722
5.009497869018190385759 1561.43185434494898800 5.009497869018190385759 513.63452473819438637
6.009497869018190385759 1645.54566266390452256 6.009497869018190385759 458.95788144775161754
7.009497869018204596614 1708.42091198483944936 7.009497869018204596614 411.02250527623704102
8.009497869018190385759 1756.85773600504535352 8.009497869018190385759 370.75512156334474412
9.009497869018204596614 1795.19604055475451787 9.009497869018204596614 337.97070593621020862
10.009497869018190385759 1826.28139356704400598 10.009497869018190385759 311.57427539306900144
11.009497869018190385759 1852.03014103952682490 11.009497869018190385759 289.27014067260557795
12.009497869018204596614 1873.76237585015360310 12.009497869018204596614 270.97957139875575194
13.009497869018190385759 1892.40843102775147599 13.009497869018190385759 255.93375483008799165
14.009497869018204596614 1908.63749698177525715 14.009497869018204596614 243.50030727219220239
15.009497869018190385759 1922.94017181326171340 15.009497869018190385759 233.16839008199050909
16.009497869018190385759 1935.68255478310652506 16.009497869018190385759 224.53007549184874847
17.009497869018204596614 1947.14240621852013646 17.009497869018204596614 217.45370949160101759
18.009497869018190385759 1957.53378060015029405 18.009497869018190385759 211.26542777148785035
19.009497869018204596614 1967.02448507222402441 19.009497869018204596614 206.24186466236756132
20.009497869018190385759 1975.74680559416765391 20.009497869018190385759 201.67713440343098341
21.009497869018190385759 1983.80706894517652472 21.009497869018190385759 197.74077714887954471
22.009497869018204596614 1991.29226748749465514 22.009497869018204596614 194.32327230833703879
23.009497869018190385759 1998.27283927569283151 23.009497869018190385759 191.43015079185067862
24.009497869018204596614 2004.80787680190246647 24.009497869018204596614 188.79617388968688374
25.009497869018204596614 2010.94664975205705559 25.009497869018204596614 186.46923047629903181
26.009497869018190385759 2016.73065513943765836 26.009497869018190385759 184.50209576463336703
27.009497869018204596614 2022.19550743055287967 27.009497869018204596614 182.64354019252581907
28.009497869018190385759 2027.37144419216269853 28.009497869018190385759 180.97802618927252638
29.009497869018190385759 2032.28485784350755239 29.009497869018190385759 179.52126881405089875
30.009497869018190385759 2036.95857231993113601 30.009497869018190385759 178.15701850092497693
31.009497869018218807469 2041.41251110727080231 31.009497869018218807469 176.91653756425799315
32.009497869018190385759 2045.66447356785170086 32.009497869018190385759 175.78522430838984292
33.009497869018190385759 2049.72976307508815808 33.009497869018190385759 174.79089576170829901
34.009497869018218807469 2053.62251383781540426 34.009497869018218807469 173.83084644816500486
35.009497869018190385759 2057.35489576634154218 35.009497869018190385759 172.96838897433124771
36.009497869018190385759 2060.93801246415705464 36.009497869018190385759 172.14553814029750356
37.009497869018190385759 2064.38200969602030455 37.009497869018190385759 171.38099487214961414
38.009497869018218807469 2067.69573017361608436 38.009497869018218807469 170.66917852935483779
39.009497869018190385759 2070.88743341502913609 39.009497869018190385759 170.01655617188845326
40.009497869018190385759 2073.96463326034790953 40.009497869018190385759 169.42913293244751571
41.009497869018218807469 2076.93401034133512439 41.009497869018218807469 168.82533049433789074
42.009497869018190385759 2079.80182745234969843 42.009497869018190385759 168.28139654587633345
43.009497869018190385759 2082.57386074894111516 43.009497869018190385759 167.74622558268291073
44.009497869018218807469 2085.25526143297020099 44.009497869018218807469 167.25980096144789400
46.009497869018190385759 2090.36526922158554953 46.009497869018190385759 166.35722401321851294
48.009497869018218807469 2095.16641030065147788 48.009497869018218807469 165.52538103501311184
50.009497869018190385759 2099.68839284945306645 50.009497869018190385759 164.77947269893542170
52.009497869018190385759 2103.95692194401908637 52.009497869018190385759 164.09419325105702114
54.009497869018218807469 2107.99449434640609979 54.009497869018218807469 163.45329064425351362
56.009497869018190385759 2111.82077130463949288 56.009497869018190385759 162.86080864681790104
58.009497869018218807469 2115.45317266397660205 58.009497869018218807469 162.33066801578894456
60.009497869018190385759 2118.90709989627339382 60.009497869018190385759 161.81503860954714469
62.009497869018190385759 2122.19627895745770729 62.009497869018190385759 161.33333385702047735
64.009497869018218807469 2125.33301008531316256 64.009497869018218807469 160.88157375984746977
66.009497869018190385759 2128.32828066417368973 66.009497869018190385759 160.46114121139322606
68.009497869018190385759 2131.19206209915228101 68.009497869018190385759 160.06798192768530953
70.009497869018190385759 2133.93329954544560678 70.009497869018190385759 159.68814385876370920
72.009497869018190385759 2136.56014003593008965 72.009497869018190385759 159.33203394526410079
74.009497869018218807469 2139.08000102522782981 74.009497869018218807469 158.99208599417875121
76.009497869018190385759 2141.49960554485824105 76.009497869018190385759 158.66872250499784514
78.009497869018190385759 2143.82513326923890418 78.009497869018190385759 158.36210380763120043
80.009497869018218807469 2146.06223795152618550 80.009497869018218807469 158.06835801004530140
82.009497869018190385759 2148.21609089363528255 82.009497869018190385759 157.78712105541367805
84.009497869018218807469 2150.29147726623750714 84.009497869018218807469 157.51559109489542720
86.009497869018190385759 2152.29280565093540645 86.009497869018190385759 157.25871301638338196
88.009497869018190385759 2154.22412890528084972 88.009497869018190385759 157.00939437741362781
91.009497869018218807469 2156.99802028384056030 91.009497869018218807469 156.65527649032208046
94.009497869018218807469 2159.63439024759418317 94.009497869018218807469 156.32050060793108059
97.009497869018218807469 2162.14358221311476882 97.009497869018218807469 156.00611859565427153
99.504748934509137825444 2164.14046858476422130 99.504748934509137825444 155.71223676039380734
nan nan nan nan

