Time Pressure difference Time.1 Pressure.1 difference.1
(hr) (psi) (hr) (psi)
0.000200000000020850166 0.82672879724573700 0.000200000000020850166 0.65894576397832905
0.000399999999999067768 1.65316357118774282 0.000399999999999067768 1.72564781681900103
0.000600000000019917934 2.47935041672824674 0.000600000000019917934 2.52518292229445773
0.000799999999998135536 3.30530901377920383 0.000799999999998135536 3.33939425094674469
0.001007140329434719206 4.16053015525631320 0.001007140329434719206 4.19439210846310040
0.001267914553977789183 5.23687782141182367 0.001267914553977789183 5.27873476162437161
0.001596209851982166583 6.59144543880185729 0.001596209851982166583 6.64296234890525295
0.002009509145224797066 8.29602448184295405 0.002009509145224797066 8.35908282286452398
0.002529822128153114136 10.44086525267199050 0.002529822128153114136 10.51750461235053358
0.003184857364431081805 13.13938749529591377 0.003184857364431081805 13.23167089527359508
0.004009497869034817086 16.53407397715864136 0.004009497869034817086 16.64382424410234762
0.005047658755856332391 20.80383367104466785 0.005047658755856332391 20.93215708009505605
0.006354625877790454069 26.17318485122828520 0.006354625877790454069 26.31964963335274632
0.008000000000009777068 32.92368295709045611 0.008000000000009777068 33.08494481125330111
0.010071403294361402914 41.40810332207927758 0.010071403294361402914 41.57565343875478447
0.012679145539692626699 52.06798306798672371 0.012679145539692626699 52.22451463315957199
0.015962098519750611558 65.45522513480285909 0.015962098519750611558 65.56883907868983385
0.020095091452091651263 82.25856148935825729 0.020095091452091651263 82.27361245175822546
0.025298221281360611101 103.33574564001499141 0.025298221281360611101 103.15849239488665035
0.031848573644296607199 129.75236887654989459 0.031848573644296607199 129.22863425425478567
0.040094978690191851456 162.82812510190004218 0.040094978690191851456 161.70873759158550342
0.050476587558435426217 204.19111537419308888 0.050476587558435426217 202.07878674481747794
0.063546258777947173257 255.84027914281739413 0.063546258777947173257 252.10848393071429996
0.080000000000012505552 320.21510994304065889 0.080000000000012505552 313.88510560752013134
0.100714032943542974863 400.27024247846276239 0.100714032943542974863 389.82616282367143867
0.126791455396883634421 499.54999704178288766 0.126791455396883634421 482.66350013141141062
0.159620985197506115583 622.25417614141792910 0.159620985197506115583 595.37905555127576918
0.200950914520774404082 773.28091968044873283 0.200950914520774404082 731.06434064585494070
0.252982212813464002465 958.22485404663768804 0.252982212813464002465 892.66614838267935284
0.318485736442809752589 1183.29890783021983225 0.318485736442809752589 1082.57138462131706547
0.400949786901833249431 1455.13629817604874006 0.400949786901833249431 1301.97760946042672003
0.504765875584169521062 1780.41675936692467985 0.504765875584169521062 1550.00048115793265424
0.635462587779443310865 2165.25203825177914041 0.635462587779443310865 1822.50061571984019793
0.800000000000011368684 2614.26892705641057546 0.800000000000011368684 2110.69882719630641077
1.007140329435344483500 3129.36077919814943016 1.007140329435344483500 2399.82892510270721687
1.267914553968907398485 3708.16692529442025261 1.267914553968907398485 2668.37295381776857539
1.596209851975117999245 4342.50943185056348739 1.596209851975117999245 2888.76824928656606062
2.009509145207687197399 5017.26079444078368397 2.009509145207687197399 3030.61781754393086885
2.529822128134725289783 5710.34035501174275851 2.529822128134725289783 3066.94139066689876927
3.184857364427983839050 6394.53267580557258043 3.184857364427983839050 2982.55250162849506523
4.009497869018204596614 7041.35374493209019420 4.009497869018204596614 2782.09306472919433872
5.009497869018190385759 7608.15325107293756446 5.009497869018190385759 2502.70939994982973076
6.009497869018190385759 8018.00190533294698980 6.009497869018190385759 2236.29477528953520959
7.009497869018204596614 8324.36463976926643227 7.009497869018204596614 2002.72730512048792662
8.009497869018190385759 8560.37543916183858528 8.009497869018190385759 1806.52250408806230553
9.009497869018204596614 8747.18070740895018389 9.009497869018204596614 1646.77883186565168216
10.009497869018190385759 8898.64561375314769975 10.009497869018190385759 1518.16093010152258103
11.009497869018190385759 9024.10764800632205151 11.009497869018190385759 1409.48294033612728526
12.009497869018204596614 9129.99902742673111788 12.009497869018204596614 1320.36124495276112611
13.009497869018190385759 9220.85284530188619101 13.009497869018190385759 1247.04976618189948567
14.009497869018204596614 9299.92976470531721134 14.009497869018204596614 1186.46718347332853227
15.009497869018190385759 9369.62024893324451114 15.009497869018190385759 1136.12441049754215783
16.009497869018190385759 9431.70813458043085120 16.009497869018190385759 1094.03379921028272292
17.009497869018204596614 9487.54682245690673881 17.009497869018204596614 1059.55385899338921263
18.009497869018190385759 9538.17930351249560772 18.009497869018190385759 1029.40115296499470787
19.009497869018204596614 9584.42322628328656720 19.009497869018204596614 1004.92359546271256932
20.009497869018190385759 9626.92316059119002603 20.009497869018190385759 982.68172351475675441
21.009497869018190385759 9666.19718887992894452 21.009497869018190385759 963.50162983326606536
22.009497869018204596614 9702.66918569887093327 22.009497869018204596614 946.84966997297567559
23.009497869018190385759 9736.68236392176004301 23.009497869018190385759 932.75279356421367538
24.009497869018204596614 9768.52465461319297901 24.009497869018204596614 919.91861199190566367
25.009497869018204596614 9798.43612673306233773 25.009497869018204596614 908.58046614431987109
26.009497869018190385759 9826.61897651274921373 26.009497869018190385759 898.99550583355653544
27.009497869018204596614 9853.24673718612393714 27.009497869018204596614 889.93960270279728775
28.009497869018190385759 9878.46674277945930953 28.009497869018190385759 881.82430407910237591
29.009497869018190385759 9902.40759164924747893 29.009497869018190385759 874.72618235865968472
30.009497869018190385759 9925.18049453927233117 30.009497869018190385759 868.07880583293831478
31.009497869018218807469 9946.88252961091711768 31.009497869018218807469 862.03450166113952946
32.009497869018190385759 9967.60042512963082117 32.009497869018190385759 856.52212236538969137
33.009497869018190385759 9987.40874753253774543 33.009497869018190385759 851.67720778008845173
34.009497869018218807469 10006.37636644504163996 34.009497869018218807469 846.99932043860781050
35.009497869018190385759 10024.56258035168502829 35.009497869018190385759 842.79695412002593002
36.009497869018190385759 10042.02149210476272856 36.009497869018190385759 838.78757309537127185
37.009497869018190385759 10058.80253744041328900 37.009497869018190385759 835.06229854370940302
38.009497869018218807469 10074.94880290477522067 38.009497869018218807469 831.59393852048378903
39.009497869018190385759 10090.50053340460362961 39.009497869018190385759 828.41400409243681224
40.009497869018190385759 10105.49434049404771940 40.009497869018190385759 825.55175556300400785
41.009497869018218807469 10119.96277587885924731 41.009497869018218807469 822.60969858515625219
42.009497869018190385759 10133.93635533154701989 42.009497869018190385759 819.95935375784847565
43.009497869018190385759 10147.44322345317414147 43.009497869018190385759 817.35170700581784331
44.009497869018218807469 10160.50847972731571645 44.009497869018218807469 814.98157919450591180
46.009497869018190385759 10185.40724316792147874 46.009497869018190385759 810.58372877029012216
48.009497869018218807469 10208.80103842572316353 48.009497869018218807469 806.53053308236781049
50.009497869018190385759 10230.83462006057197868 50.009497869018190385759 802.89605815069523942
52.009497869018190385759 10251.63323731546552153 52.009497869018190385759 799.55700044877789878
54.009497869018218807469 10271.30650676631194074 54.009497869018218807469 796.43417108033327168
56.009497869018190385759 10289.95022880790020281 56.009497869018190385759 793.54727350459313584
58.009497869018218807469 10307.64928249015974870 58.009497869018218807469 790.96413729261882963
60.009497869018190385759 10324.47871223968468257 60.009497869018190385759 788.45170773475422266
62.009497869018190385759 10340.50539844957347668 62.009497869018190385759 786.10457771508993119
64.009497869018218807469 10355.78927463137915765 64.009497869018218807469 783.90335449651161071
66.009497869018190385759 10370.38387735386459099 66.009497869018190385759 781.85477629472984518
68.009497869018190385759 10384.33779277723988343 68.009497869018190385759 779.93908841234906504
70.009497869018190385759 10397.69460660869117419 70.009497869018190385759 778.08830880201526270
72.009497869018190385759 10410.49401566526830720 72.009497869018190385759 776.35314579212013086
74.009497869018218807469 10422.77216185821816907 74.009497869018218807469 774.69673273634145971
76.009497869018190385759 10434.56180348818270431 76.009497869018190385759 773.12112828415615695
78.009497869018190385759 10445.89305132168374257 78.009497869018190385759 771.62711365090899562
80.009497869018218807469 10456.79345354812176083 80.009497869018218807469 770.19582285286776369
82.009497869018190385759 10467.28820758957772341 82.009497869018190385759 768.82548200530004578
84.009497869018218807469 10477.40062942470649432 84.009497869018218807469 767.50243896238259822
86.009497869018190385759 10487.15220008347932890 86.009497869018190385759 766.25078793276986744
88.009497869018190385759 10496.56266731298637751 88.009497869018190385759 765.03597064288794627
91.009497869018218807469 10510.07858903008491325 91.009497869018218807469 763.31051387931438512
94.009497869018218807469 10522.92443091229688434 94.009497869018218807469 761.67930198178191858
97.009497869018218807469 10535.15059176390241191 97.009497869018218807469 760.14746021608016235
99.504748934509137825444 10544.88051849635121471 99.504748934509137825444 758.71550656780118516
nan nan nan nan

