Time Pressure difference Time.1 Pressure.1 difference.1
(hr) (psi) (hr) (psi)
0.000200000000020850166 0.39673001638452371 0.000200000000020850166 0.31621441591314181
0.000399999999999067768 0.79331893707902745 0.000399999999999067768 0.82810262436887661
0.000600000000019917934 1.18978888207180455 0.000600000000019917934 1.21178295164432215
0.000799999999998135536 1.58614929534474869 0.000799999999998135536 1.60250609426720025
0.001007140329434719206 1.99655219724070565 0.001007140329434719206 2.01280184681780572
0.001267914553977789183 2.51306913562720347 0.001267914553977789183 2.53315541377749076
0.001596209851982166583 3.16309806268459370 0.001596209851982166583 3.18781996018893965
0.002009509145224797066 3.98109021915401229 0.002009509145224797066 4.01135061016738170
0.002529822128153114136 5.01035485465245412 0.002529822128153114136 5.04713249506157347
0.003184857364431081805 6.30531975377882414 0.003184857364431081805 6.34960464491499543
0.004009497869034817086 7.93435944376727598 0.004009497869034817086 7.98702632237104648
0.005047658755856332391 9.98332863288562145 0.005047658755856332391 10.04490837747016130
0.006354625877790454069 12.55996898796367311 0.006354625877790454069 12.63025440151836953
0.008000000000009777068 15.79939312930799211 0.008000000000009777068 15.87677935107426919
0.010071403294361402914 19.87089062840222553 0.010071403294361402914 19.95129445702820448
0.012679145539692626699 24.98634599942622359 0.012679145539692626699 25.06146225353834822
0.015962098519750611558 31.41060602545368496 0.015962098519750611558 31.46512700255035355
0.020095091452091651263 39.47417890384697614 0.020095091452091651263 39.48140154878137054
0.025298221281360611101 49.58868276688848198 0.025298221281360611101 49.50362260800898895
0.031848573644296607199 62.26547279085945519 0.031848573644296607199 62.01414339967760014
0.040094978690191851456 78.13784272998623237 0.040094978690191851456 77.60067186236045700
0.050476587558435426217 97.98708454073451435 0.050476587558435426217 96.97342180812670165
0.063546258777947173257 122.77244783815282858 0.063546258777947173257 120.98163665488000618
0.080000000000012505552 153.66459501290782441 0.080000000000012505552 150.62695711749205429
0.100714032943542974863 192.08139402638505544 0.100714032943542974863 187.06949664677190981
0.126791455396883634421 239.72369073333041456 0.126791455396883634421 231.62021082764914581
0.159620985197506115583 298.60688331937262774 0.159620985197506115583 285.71006991746332915
0.200950914520774404082 371.08148761325355736 0.200950914520774404082 350.82262624554607555
0.252982212813464002465 459.83224887348711718 0.252982212813464002465 428.37198468665803830
0.318485736442809752589 567.84062277164468924 0.318485736442809752589 519.50357189574276617
0.400949786901833249431 698.28975274645404170 0.400949786901833249431 624.79207214549649052
0.504765875584169521062 854.38510484710582205 0.504765875584169521062 743.81310816130178409
0.635462587779443310865 1039.05957972444548432 0.635462587779443310865 874.58027535046653611
0.800000000000011368684 1254.53347908039017966 0.800000000000011368684 1012.88062431854928036
1.007140329435344483500 1501.71538398140592108 1.007140329435344483500 1151.62816627162101213
1.267914553968907398485 1779.47245811412335570 1.267914553968907398485 1280.49688025259115420
1.596209851975117999245 2083.88028067677942090 1.596209851975117999245 1386.26001499968992903
2.009509145207687197399 2407.67947580307236422 2.009509145207687197399 1454.33068306685618154
2.529822128134725289783 2740.27399330040407222 2.529822128134725289783 1471.76161302626837823
3.184857364427983839050 3068.60370861092360428 3.184857364427983839050 1431.26513408127971161
4.009497869018204596614 3378.99973474105354398 4.009497869018204596614 1335.06880470404985317
5.009497869018190385759 3650.99507118892506696 5.009497869018190385759 1200.99837402018965804
6.009497869018190385759 3847.67294652295322521 6.009497869018190385759 1073.15151691459573158
7.009497869018204596614 3994.69007361160993241 7.009497869018204596614 961.06732851355411640
8.009497869018190385759 4107.94676507062104065 8.009497869018190385759 866.91271071429150652
9.009497869018204596614 4197.59074188538215822 9.009497869018204596614 790.25503299790329947
10.009497869018190385759 4270.27561142882404965 10.009497869018190385759 728.53396746320549937
11.009497869018190385759 4330.48224154830586485 11.009497869018190385759 676.38165245506297651
12.009497869018204596614 4381.29732000256535684 12.009497869018204596614 633.61399782944363324
13.009497869018190385759 4424.89618431488906936 13.009497869018190385759 598.43333849976454530
14.009497869018204596614 4462.84355911915099568 14.009497869018204596614 569.36101259233169003
15.009497869018190385759 4496.28657821041997522 15.009497869018190385759 545.20255916230132698
16.009497869018190385759 4526.08126780167549441 16.009497869018190385759 525.00414710594043299
17.009497869018204596614 4552.87709689330495166 17.009497869018204596614 508.45793837006698368
18.009497869018190385759 4577.17457522682252602 18.009497869018190385759 493.98827964215541897
19.009497869018204596614 4599.36607538946464047 19.009497869018204596614 482.24200707818295086
20.009497869018190385759 4619.76091308048034989 20.009497869018190385759 471.56859367861068222
21.009497869018190385759 4638.60770532769129204 21.009497869018190385759 462.36446421576243893
22.009497869018204596614 4656.10986074281845504 22.009497869018204596614 454.37353377978809021
23.009497869018190385759 4672.43208007110570179 23.009497869018190385759 447.60873493976856707
24.009497869018204596614 4687.71253546327170625 24.009497869018204596614 441.44987718323841364
25.009497869018204596614 4702.06643103789792804 25.009497869018204596614 436.00893596664042207
26.009497869018190385759 4715.59079657603797386 26.009497869018190385759 431.40931215553973743
27.009497869018204596614 4728.36890708026294305 27.009497869018204596614 427.06357192075887497
28.009497869018190385759 4740.47146509638059797 28.009497869018190385759 423.16920829550485905
29.009497869018190385759 4751.96018231055495562 29.009497869018190385759 419.76296678579547006
30.009497869018190385759 4762.88842645395743602 30.009497869018190385759 416.57302855363337812
31.009497869018218807469 4773.30278332435409538 31.009497869018218807469 413.67249224583855494
32.009497869018190385759 4783.24487201894771715 32.009497869018190385759 411.02721566226443883
33.009497869018190385759 4792.75047542557422275 33.009497869018190385759 408.70224156046504049
34.009497869018218807469 4801.85264265018577134 34.009497869018218807469 406.45742037144458436
35.009497869018190385759 4810.57982980659289751 35.009497869018190385759 404.44079186645103619
36.009497869018190385759 4818.95799973236717051 36.009497869018190385759 402.51677300451922292
37.009497869018190385759 4827.01087561275471671 37.009497869018190385759 400.72909095105575261
38.009497869018218807469 4834.75913378830864531 38.009497869018218807469 399.06469685540321279
39.009497869018190385759 4842.22208695573044679 39.009497869018190385759 397.53871222544506736
40.009497869018190385759 4849.41730424110664899 40.009497869018190385759 396.16517847439934030
41.009497869018218807469 4856.36040653341660800 41.009497869018218807469 394.75334630293713190
42.009497869018190385759 4863.06603771946447523 42.009497869018190385759 393.48150074697554146
43.009497869018190385759 4869.54770381002435897 43.009497869018190385759 392.23014511244974756
44.009497869018218807469 4875.81744952709232166 44.009497869018218807469 391.09276989515024070
46.009497869018190385759 4887.76585009164773510 46.009497869018190385759 388.98233261914327841
48.009497869018218807469 4898.99204761475812120 48.009497869018218807469 387.03728800833943069
50.009497869018190385759 4909.56550680975124124 50.009497869018190385759 385.29317881074609886
52.009497869018190385759 4919.54633219263268984 52.009497869018190385759 383.69083421938336187
54.009497869018218807469 4928.98712648644959700 54.009497869018218807469 382.19225312406331341
56.009497869018190385759 4937.93386231526073971 56.009497869018190385759 380.80689080653007750
58.009497869018218807469 4946.42727137606289034 58.009497869018218807469 379.56729727221244275
60.009497869018190385759 4954.50336593393421936 60.009497869018190385759 378.36163439585288870
62.009497869018190385759 4962.19424050346788135 62.009497869018190385759 377.23529534215083459
64.009497869018218807469 4969.52865593477599759 64.009497869018218807469 376.17897393846681098
66.009497869018190385759 4976.53230331770009798 66.009497869018190385759 375.19590371487538505
68.009497869018190385759 4983.22849814360506571 68.009497869018190385759 374.27660480149944533
70.009497869018190385759 4989.63815629008604446 70.009497869018190385759 373.38845402269748774
72.009497869018190385759 4995.78032743695439422 72.009497869018190385759 372.55578525436749260
74.009497869018218807469 5001.67235533839993877 74.009497869018218807469 371.76090695697678257
76.009497869018190385759 5007.32996002400795987 76.009497869018190385759 371.00480703374495306
78.009497869018190385759 5012.76759102660344070 78.009497869018190385759 370.28786037372589135
80.009497869018218807469 5017.99846815136243094 80.009497869018218807469 369.60101358231179347
82.009497869018190385759 5023.03468311894266662 82.009497869018190385759 368.94341540898199128
84.009497869018218807469 5027.88742478429048788 84.009497869018218807469 368.30851447188780412
86.009497869018190385759 5032.56700144851129153 86.009497869018190385759 367.70787308242580593
88.009497869018190385759 5037.08288964617167949 88.009497869018190385759 367.12490744130542453
91.009497869018218807469 5043.56890036956701806 91.009497869018218807469 366.29689649942952201
94.009497869018218807469 5049.73335366716946737 94.009497869018218807469 365.51411171560357616
97.009497869018218807469 5055.60043488066457940 97.009497869018218807469 364.77901259866223427
99.504748934509137825444 5060.26962507319876750 99.504748934509137825444 364.09184771915607826
nan nan nan nan

