Time Pressure difference Time.1 Pressure.1 difference.1
(hr) (psi) (hr) (psi)
0.000200000000020850166 0.68450482910788890 0.000200000000020850166 0.54558587902833489
0.000399999999999067768 1.36876621638582718 0.000399999999999067768 1.42878083827166757
0.000600000000019917934 2.05282232692892075 0.000600000000019917934 2.09077016604460608
0.000799999999998135536 2.73668945507070926 0.000799999999998135536 2.76491093413397460
0.001007140329434719206 3.44478502794360741 0.001007140329434719206 3.47282163507558517
0.001267914553977789183 4.33596624448886470 0.001267914553977789183 4.37062244347772477
0.001596209851982166583 5.45750462387719182 0.001596209851982166583 5.50015896695072826
0.002009509145224797066 6.86884119573113683 0.002009509145224797066 6.92105147204980220
0.002529822128153114136 8.64470030477771445 0.002529822128153114136 8.70815522732845970
0.003184857364431081805 10.87898984771482525 0.003184857364431081805 10.95539753200218236
0.004009497869034817086 13.68968096901565623 0.004009497869034817086 13.78055065683725822
0.005047658755856332391 17.22490453850076619 0.005047658755856332391 17.33115219005857810
0.006354625877790454069 21.67055445931677937 0.006354625877790454069 21.79182258375182002
0.008000000000009777068 27.25974957111211694 0.008000000000009777068 27.39326919483044875
0.010071403294361402914 34.28457649302941945 0.010071403294361402914 34.42330259566920603
0.012679145539692626699 43.11061374743770358 0.012679145539692626699 43.24021684415525613
0.015962098519750611558 54.19481920114964879 0.015962098519750611558 54.28888788909631558
0.020095091452091651263 68.10744075024331323 0.020095091452091651263 68.11990246257245474
0.025298221281360611101 85.55867068584743151 0.025298221281360611101 85.41191070522305040
0.031848573644296607199 107.43078429114744665 0.031848573644296607199 106.99714888455903861
0.040094978690191851456 134.81644563265970760 0.040094978690191851456 133.88962881073931044
0.050476587558435426217 169.06366997279766906 0.050476587558435426217 167.31472987020603682
0.063546258777947173257 211.82751482347961769 0.063546258777947173257 208.73770852613466786
0.080000000000012505552 265.12780229690389433 0.080000000000012505552 259.88676248992862838
0.100714032943542974863 331.41087480862660186 0.100714032943542974863 322.76351308237588000
0.126791455396883634421 413.61131545813611865 0.126791455396883634421 399.62983964602773312
0.159620985197506115583 515.20642551749187987 0.159620985197506115583 492.95469086388334290
0.200950914520774404082 640.25170713984834947 0.200950914520774404082 605.29773878424407485
0.252982212813464002465 793.37933086557620754 0.252982212813464002465 739.09883311765111102
0.318485736442809752589 979.73340155359255732 0.318485736442809752589 896.33425507378672137
0.400949786901833249431 1204.80600945562196102 0.400949786901833249431 1077.99554586109775300
0.504765875584169521062 1474.12775951607545721 0.504765875584169521062 1283.35049898689999281
0.635462587779443310865 1792.75898136943101235 0.635462587779443310865 1508.97183776401266186
0.800000000000011368684 2164.53051002759139010 0.800000000000011368684 1747.59067885569425016
1.007140329435344483500 2591.00998116707978625 1.007140329435344483500 1986.98109191099388227
1.267914553968907398485 3070.24283653652719295 1.267914553968907398485 2209.32690240646252278
1.596209851975117999245 3595.45801047586928689 1.596209851975117999245 2391.80711183384710239
2.009509145207687197399 4154.13041632270142145 2.009509145207687197399 2509.25398776524662026
2.529822128134725289783 4727.97798005499498686 2.529822128134725289783 2539.32873694050113045
3.184857364427983839050 5294.46719536014734331 3.184857364427983839050 2469.45745356162069584
4.009497869018204596614 5830.01421738341105083 4.009497869018204596614 2303.48349323151569479
5.009497869018190385759 6299.30596140143643424 5.009497869018190385759 2072.16281303693131122
6.009497869018190385759 6638.64745280584975262 6.009497869018190385759 1851.58008054656670538
7.009497869018204596614 6892.30593413491533283 7.009497869018204596614 1658.19373452128957069
8.009497869018190385759 7087.71527809878534754 8.009497869018190385759 1495.74247571878800045
9.009497869018204596614 7242.38402635570037091 9.009497869018204596614 1363.47985777206349667
10.009497869018190385759 7367.79209267488840851 10.009497869018190385759 1256.98837572792081119
11.009497869018190385759 7471.67061801730687876 11.009497869018190385759 1167.00649888997259040
12.009497869018204596614 7559.34527119939502882 12.009497869018204596614 1093.21660422145100711
13.009497869018190385759 7634.56930752862444933 13.009497869018190385759 1032.51705992726670047
14.009497869018204596614 7700.04245105882819189 14.009497869018204596614 982.35663178928507477
15.009497869018190385759 7757.74392844271733338 15.009497869018190385759 940.67443645822652343
16.009497869018190385759 7809.15069895341548545 16.009497869018190385759 905.82476534211525632
17.009497869018204596614 7855.38333489138221921 17.009497869018204596614 877.27648486072371270
18.009497869018190385759 7897.30539918590056914 18.009497869018190385759 852.31101498007103601
19.009497869018204596614 7935.59387850215716753 19.009497869018204596614 832.04438537808084675
20.009497869018190385759 7970.78245590196183912 20.009497869018190385759 813.62883144129273205
21.009497869018190385759 8003.30008697000084794 21.009497869018190385759 797.74833134082291508
22.009497869018204596614 8033.49772618729457463 22.009497869018204596614 783.96104465569317199
23.009497869018190385759 8061.65954276419233793 23.009497869018190385759 772.28928481222112623
24.009497869018204596614 8088.02393435277372191 24.009497869018204596614 761.66299564319763249
25.009497869018204596614 8112.78967032324908359 25.009497869018204596614 752.27537589212795410
26.009497869018190385759 8136.12416264586772741 26.009497869018190385759 744.33933732496689117
27.009497869018204596614 8158.17109125169099570 27.009497869018204596614 736.84134107082718401
28.009497869018190385759 8179.05244397132264567 28.009497869018190385759 730.12213506750640590
29.009497869018190385759 8198.87469610395419295 29.009497869018190385759 724.24511879394060543
30.009497869018190385759 8217.72992656521273602 30.009497869018190385759 718.74130503069238785
31.009497869018218807469 8235.69851294746877102 31.009497869018218807469 713.73681576168792162
32.009497869018190385759 8252.85226346246054163 32.009497869018190385759 709.17274316570990322
33.009497869018190385759 8269.25291671959530504 33.009497869018190385759 705.16130986218604448
34.009497869018218807469 8284.95749455157783814 34.009497869018218807469 701.28816973941070501
35.009497869018190385759 8300.01509419460489880 35.009497869018190385759 697.80874571507172277
36.009497869018190385759 8314.47051106863364112 36.009497869018190385759 694.48910730129830426
37.009497869018190385759 8328.36467637169153022 37.009497869018190385759 691.40469990087819951
38.009497869018218807469 8341.73326437689138402 38.009497869018218807469 688.53300945911291819
39.009497869018190385759 8354.60959657141756907 39.009497869018190385759 685.90012612482451004
40.009497869018190385759 8367.02398614346202521 40.009497869018190385759 683.53027648727595533
41.009497869018218807469 8379.00338485744759964 41.009497869018218807469 681.09434802372595641
42.009497869018190385759 8390.57305879060731968 42.009497869018190385759 678.89994782968733489
43.009497869018190385759 8401.75631076656100049 43.009497869018190385759 676.74090026739247605
44.009497869018218807469 8412.57392234967846889 44.009497869018218807469 674.77851074152749788
46.009497869018190385759 8433.18929690865115845 46.009497869018190385759 671.13723217097469842
48.009497869018218807469 8452.55860626194044016 48.009497869018218807469 667.78131662654789125
50.009497869018190385759 8470.80170252500101924 50.009497869018190385759 664.77208838835224469
52.009497869018190385759 8488.02228803886100650 52.009497869018190385759 662.00745610598005442
54.009497869018218807469 8504.31112179947012919 54.009497869018218807469 659.42185392265014343
56.009497869018190385759 8519.74752344960143091 56.009497869018190385759 657.03159566828992411
58.009497869018218807469 8534.40177011006198882 58.009497869018218807469 654.89284204408977530
60.009497869018190385759 8548.33599615016100870 60.009497869018190385759 652.81263125322209362
62.009497869018190385759 8561.60557638229329314 62.009497869018190385759 650.86928315846989790
64.009497869018218807469 8574.26013382457131229 64.009497869018218807469 649.04674119781600439
66.009497869018190385759 8586.34399503242457286 66.009497869018190385759 647.35058439694421395
68.009497869018190385759 8597.89738778236278449 68.009497869018190385759 645.76445650237747031
70.009497869018190385759 8608.95639963677240303 70.009497869018190385759 644.23207056746343824
72.009497869018190385759 8619.55389828220722848 72.009497869018190385759 642.79541145564871840
74.009497869018218807469 8629.71980805765997502 74.009497869018218807469 641.42395477063291764
76.009497869018190385759 8639.48125178146256076 76.009497869018190385759 640.11940500790785791
78.009497869018190385759 8648.86316019893820339 78.009497869018190385759 638.88240898862989070
80.009497869018218807469 8657.88834232404951763 80.009497869018218807469 637.69734628562389389
82.009497869018190385759 8666.57766081108820799 82.009497869018190385759 636.56274817943858579
84.009497869018218807469 8674.95042053977340402 84.009497869018218807469 635.46731113283794912
86.009497869018190385759 8683.02440711137205653 86.009497869018190385759 634.43098437491914865
88.009497869018190385759 8690.81597102473642735 88.009497869018190385759 633.42515476770290661
91.009497869018218807469 8702.00671908627555240 91.009497869018218807469 631.99653211536792696
94.009497869018218807469 8712.64266261651937384 94.009497869018218807469 630.64594117807496332
97.009497869018218807469 8722.76553020290884888 97.009497869018218807469 629.37762551089940644
99.504748934509137825444 8730.82159630029855180 99.504748934509137825444 628.19201398923576107
nan nan nan nan

