Time Pressure difference Time.1 Pressure.1 difference.1
(hr) (psi) (hr) (psi)
0.000200000000020850166 0.75021063894935092 0.000200000000020850166 0.59795682002862460
0.000399999999999067768 1.50015446801946073 0.000399999999999067768 1.56592991023213157
0.000600000000019917934 2.24987331578358019 0.000600000000019917934 2.29146377858108741
0.000799999999998135536 2.99938504067287903 0.000799999999998135536 3.03031550739835343
0.001007140329434719206 3.77545090547403905 0.001007140329434719206 3.80617875435987640
0.001267914553977789183 4.75217685604976392 0.001267914553977789183 4.79015971326477263
0.001596209851982166583 5.98137201790671558 0.001596209851982166583 6.02812076329229285
0.002009509145224797066 7.52818318171261947 0.002009509145224797066 7.58540513704607733
0.002529822128153114136 9.47450750292770039 0.002529822128153114136 9.54405348122754660
0.003184857364431081805 11.92326712349790085 0.003184857364431081805 12.00700920275330397
0.004009497869034817086 15.00375727102323431 0.004009497869034817086 15.10334956557376174
0.005047658755856332391 18.87832793891578831 0.005047658755856332391 18.99477433223917444
0.006354625877790454069 23.75071703803612877 0.006354625877790454069 23.88362572362593284
0.008000000000009777068 29.87642055059918533 0.008000000000009777068 30.02275676031235463
0.010071403294361402914 37.57556257194718796 0.010071403294361402914 37.72760503194851367
0.012679145539692626699 47.24881360897789051 0.012679145539692626699 47.39085734316895326
0.015962098519750611558 59.39699504184324041 0.015962098519750611558 59.50009340943484659
0.020095091452091651263 74.64509302153034298 0.020095091452091651263 74.65875093710857868
0.025298221281360611101 93.77147139566751832 0.025298221281360611101 93.61062388348869945
0.031848573644296607199 117.74309529843864652 0.031848573644296607199 117.26783510798573218
0.040094978690191851456 147.75751392546663965 0.040094978690191851456 146.74173169779692216
0.050476587558435426217 185.29213890092771067 0.050476587558435426217 183.37531754912009774
0.063546258777947173257 232.16089716984035363 0.063546258777947173257 228.77449950251943278
0.080000000000012505552 290.57749413342321532 0.080000000000012505552 284.83336545068726764
0.100714032943542974863 363.22309729936961276 0.100714032943542974863 353.74567290437789779
0.126791455396883634421 453.31398121900213027 0.126791455396883634421 437.99041963635119146
0.159620985197506115583 564.66123428527055239 0.159620985197506115583 540.27354940367285963
0.200950914520774404082 701.70964743638296568 0.200950914520774404082 663.40043788990044504
0.252982212813464002465 869.53603455741165362 0.252982212813464002465 810.04513666114371517
0.318485736442809752589 1073.77828457027999320 0.318485736442809752589 982.37363071270431192
0.400949786901833249431 1320.45567500482502510 0.400949786901833249431 1181.47263957072937046
0.504765875584169521062 1615.62969511968412917 0.504765875584169521062 1406.53967203667548347
0.635462587779443310865 1964.84641700513589058 0.635462587779443310865 1653.81846617635392249
0.800000000000011368684 2372.30439859646094192 0.800000000000011368684 1915.34239651012899230
1.007140329435344483500 2839.72175335687234110 1.007140329435344483500 2177.71196221593754672
1.267914553968907398485 3364.95630444222069855 1.267914553968907398485 2421.40080919882029775
1.596209851975117999245 3940.58702970745343919 1.596209851975117999245 2621.39734492603838589
2.009509145207687197399 4552.88655592111354053 2.009509145207687197399 2750.11797930042803273
2.529822128134725289783 5181.81790766659287328 2.529822128134725289783 2783.07961205386618531
3.184857364427983839050 5802.68458106300386135 3.184857364427983839050 2706.50136465684363429
4.009497869018204596614 6389.63891139712814038 4.009497869018204596614 2524.59551749067713899
5.009497869018190385759 6903.97810107423538284 5.009497869018190385759 2271.07030055809491387
6.009497869018190385759 7275.89307707275474968 6.009497869018190385759 2029.31376993074513848
7.009497869018204596614 7553.90030691335869051 7.009497869018204596614 1817.36421450571469904
8.009497869018190385759 7768.06704841446571663 8.009497869018190385759 1639.31921397125984186
9.009497869018204596614 7937.58249304111905076 9.009497869018204596614 1494.36067036500776339
10.009497869018190385759 8075.02851469349934632 10.009497869018190385759 1377.64704119876614641
11.009497869018190385759 8188.87836871398576477 11.009497869018190385759 1279.02777885632485777
12.009497869018204596614 8284.96893635705237102 12.009497869018204596614 1198.15477157685154452
13.009497869018190385759 8367.41374895603803452 13.009497869018190385759 1131.62866106244791808
14.009497869018204596614 8439.17167783118202351 14.009497869018204596614 1076.65331940939881861
15.009497869018190385759 8502.41193615471456724 15.009497869018190385759 1030.97003849978159451
16.009497869018190385759 8558.75325693314880482 16.009497869018190385759 992.77513771395854292
17.009497869018204596614 8609.42377651522110682 17.009497869018204596614 961.48649981090238725
18.009497869018190385759 8655.36995147713423648 18.009497869018190385759 934.12458749942175018
19.009497869018204596614 8697.33375262326444499 19.009497869018204596614 911.91255845811531344
20.009497869018190385759 8735.90009140166330326 20.009497869018190385759 891.72929035242520968
21.009497869018190385759 8771.53909896347613540 21.009497869018190385759 874.32441660926156146
22.009497869018204596614 8804.63541800843086094 22.009497869018204596614 859.21368442215702999
23.009497869018190385759 8835.50049522879999131 23.009497869018190385759 846.42154908945758507
24.009497869018204596614 8864.39561213390152261 24.009497869018204596614 834.77523945341931721
25.009497869018204596614 8891.53861802134997561 25.009497869018204596614 824.48649945893009772
26.009497869018190385759 8917.11299478319961054 26.009497869018190385759 815.78867833185915970
27.009497869018204596614 8941.27621422724769218 27.009497869018204596614 807.57094732185430530
28.009497869018190385759 8964.16197383005419397 28.009497869018190385759 800.20676285648926296
29.009497869018190385759 8985.88696948452889046 29.009497869018190385759 793.76561014840149255
30.009497869018190385759 9006.55211878714726481 30.009497869018190385759 787.73348376389367331
31.009497869018218807469 9026.24551479783258401 31.009497869018218807469 782.24861217137606673
32.009497869018190385759 9045.04585861863961327 32.009497869018190385759 777.24643297140994491
33.009497869018190385759 9063.02081516534053662 33.009497869018190385759 772.84994106402405123
34.009497869018218807469 9080.23287981229987054 34.009497869018218807469 768.60501713845496852
35.009497869018190385759 9096.73586265313861077 35.009497869018190385759 764.79160222964117111
36.009497869018190385759 9112.57885903269379924 36.009497869018190385759 761.15331079680572657
37.009497869018190385759 9127.80672914613023750 37.009497869018190385759 757.77283026803411303
38.009497869018218807469 9142.45857165000779787 38.009497869018218807469 754.62548545822573942
39.009497869018190385759 9156.57090657037406345 39.009497869018190385759 751.73987091687922657
40.009497869018190385759 9170.17695686683146050 40.009497869018190385759 749.14253875033159602
41.009497869018218807469 9183.30626141119864769 41.009497869018218807469 746.47278483280774708
42.009497869018190385759 9195.98651157852691540 42.009497869018190385759 744.06774355088464290
43.009497869018190385759 9208.24324703698403027 43.009497869018190385759 741.70144840970590394
44.009497869018218807469 9220.09924417911315686 44.009497869018218807469 739.55068856483330819
46.009497869018190385759 9242.69349430328475137 46.009497869018190385759 735.55988264668178545
48.009497869018218807469 9263.92206907444779063 48.009497869018218807469 731.88183183128342080
50.009497869018190385759 9283.91632524611304689 50.009497869018190385759 728.58374693352834583
52.009497869018190385759 9302.78991957600555907 52.009497869018190385759 725.55373682575213934
54.009497869018218807469 9320.64232304146207753 54.009497869018218807469 722.71994196625814766
56.009497869018190385759 9337.56046919992695621 56.009497869018190385759 720.10024215406735948
58.009497869018218807469 9353.62138109268016706 58.009497869018218807469 717.75618897177275812
60.009497869018190385759 9368.89315738450386561 60.009497869018190385759 715.47629816574271899
62.009497869018190385759 9383.43648833150473365 62.009497869018190385759 713.34640754427675802
64.009497869018218807469 9397.30576027917959436 64.009497869018218807469 711.34891927148237301
66.009497869018190385759 9410.54955470139429963 66.009497869018190385759 709.48994790527797250
68.009497869018190385759 9423.21196085017254518 68.009497869018190385759 707.75156715084381176
70.009497869018190385759 9435.33253034309745999 70.009497869018190385759 706.07208706178846569
72.009497869018190385759 9446.94728584514268732 72.009497869018190385759 704.49752264033429583
74.009497869018218807469 9458.08902414095791755 74.009497869018218807469 702.99441944484908618
76.009497869018190385759 9468.78747157579527993 76.009497869018190385759 701.56464558582376867
78.009497869018190385759 9479.06995200418350578 78.009497869018190385759 700.20890997295759917
80.009497869018218807469 9488.96146388370834757 80.009497869018218807469 698.91009276990621402
82.009497869018190385759 9498.48487248068340705 82.009497869018190385759 697.66658427442712309
84.009497869018218807469 9507.66133575561980251 84.009497869018218807469 696.46599591958670317
86.009497869018190385759 9516.51034655462717637 86.009497869018190385759 695.33019186655781141
88.009497869018190385759 9525.04982486550761678 88.009497869018190385759 694.22781239425046351
91.009497869018218807469 9537.31477596090189763 91.009497869018218807469 692.66205585426712332
94.009497869018218807469 9548.97166668298996228 94.009497869018218807469 691.18182131546006985
97.009497869018218807469 9560.06623115798720391 97.009497869018218807469 689.79175967294190741
99.504748934509137825444 9568.89560129145866085 99.504748934509137825444 688.49234096997645338
nan nan nan nan

