Time Pressure difference Time.1 Pressure.1 difference.1
(hr) (psi) (hr) (psi)
0.000200000000020850166 0.24119854245599973 0.000200000000020850166 0.19224775810232941
0.000399999999999067768 0.48231130346523682 0.000399999999999067768 0.50345861858904450
0.000600000000019917934 0.72335173123862340 0.000600000000019917934 0.73672338779214563
0.000799999999998135536 0.96432556740037123 0.000799999999998135536 0.97426995248949289
0.001007140329434719206 1.21383676561803910 0.001007140329434719206 1.22371600749929499
0.001267914553977789183 1.52786173864127672 0.001267914553977789183 1.54007352200308656
0.001596209851982166583 1.92305752238685979 0.001596209851982166583 1.93808760682346404
0.002009509145224797066 2.42036931562822577 0.002009509145224797066 2.43876661834075659
0.002529822128153114136 3.04612768941134515 0.002529822128153114136 3.06848726114854609
0.003184857364431081805 3.83342291110242916 0.003184857364431081805 3.86034663946613987
0.004009497869034817086 4.82382439977465349 0.004009497869034817086 4.85584409536185291
0.005047658755856332391 6.06952893823234785 0.005047658755856332391 6.10696735737179619
0.006354625877790454069 7.63603984593179419 0.006354625877790454069 7.67877101979104371
0.008000000000009777068 9.60550106393987058 0.008000000000009777068 9.65254929100951564
0.010071403294361402914 12.08083497324244426 0.010071403294361402914 12.12971780406326694
0.012679145539692626699 15.19086025122349248 0.012679145539692626699 15.23652841410088321
0.015962098519750611558 19.09659485824228042 0.015962098519750611558 19.12974178352117960
0.020095091452091651263 23.99897669206629658 0.020095091452091651263 24.00336781791738971
0.025298221281360611101 30.14825577022570258 0.025298221281360611101 30.09654204679791789
0.031848573644296607199 37.85531888752461782 0.031848573644296607199 37.70251904802202603
0.040094978690191851456 47.50518740397486539 0.040094978690191851456 47.17860553476840835
0.050476587558435426217 59.57286062224949319 0.050476587558435426217 58.95658768208960510
0.063546258777947173257 74.64153013221030619 0.063546258777947173257 73.55277700191865620
0.080000000000012505552 93.42291939988106719 0.080000000000012505552 91.57613745088615076
0.100714032943542974863 116.77904458627183715 0.100714032943542974863 113.73197909342526657
0.126791455396883634421 145.74396291963483918 0.126791455396883634421 140.81731895182022640
0.159620985197506115583 181.54296889437748064 0.159620985197506115583 173.70213894353116757
0.200950914520774404082 225.60509729107658927 0.200950914520774404082 213.28838912203011091
0.252982212813464002465 279.56258317256026658 0.252982212813464002465 260.43579781788434957
0.318485736442809752589 345.22805158024522143 0.318485736442809752589 315.84074601627963830
0.400949786901833249431 424.53674695277078399 0.400949786901833249431 379.85262247839415295
0.504765875584169521062 519.43748512717115773 0.504765875584169521062 452.21342005613735182
0.635462587779443310865 631.71337132094174649 0.635462587779443310865 531.71547138707614977
0.800000000000011368684 762.71427449331895332 0.800000000000011368684 615.79744455425441174
1.007140329435344483500 912.99258145620058258 1.007140329435344483500 700.15129605612185060
1.267914553968907398485 1081.85956572976033385 1.267914553968907398485 778.49915151625043563
1.596209851975117999245 1266.92931110328322575 1.596209851975117999245 842.79958983209667167
2.009509145207687197399 1463.78836055113424663 2.009509145207687197399 884.18427272408439421
2.529822128134725289783 1665.99467097928140902 2.529822128134725289783 894.78169345412550229
3.184857364427983839050 1865.60812473200803652 3.184857364427983839050 870.16119262803169931
4.009497869018204596614 2054.31849701238070338 4.009497869018204596614 811.67705107793392472
5.009497869018190385759 2219.68253803938796409 5.009497869018190385759 730.16672634351152738
6.009497869018190385759 2339.25608908104095462 6.009497869018190385759 652.44012558749011532
7.009497869018204596614 2428.63757095884011505 7.009497869018204596614 584.29669867700351915
8.009497869018190385759 2497.49384039932874657 8.009497869018190385759 527.05384928122543897
9.009497869018204596614 2551.99437137685663401 9.009497869018204596614 480.44855255637719438
10.009497869018190385759 2596.18433399236664627 10.009497869018190385759 442.92421501955891472
11.009497869018190385759 2632.78794559540574483 11.009497869018190385759 411.21735683850795340
12.009497869018204596614 2663.68180880659110699 12.009497869018204596614 385.21605738058417501
13.009497869018190385759 2690.18845587278383391 13.009497869018190385759 363.82739657218388629
14.009497869018204596614 2713.25918688585670679 14.009497869018204596614 346.15239759282223986
15.009497869018190385759 2733.59142071493033654 15.009497869018190385759 331.46486825381003882
16.009497869018190385759 2751.70559258382763801 16.009497869018190385759 319.18491123841243962
17.009497869018204596614 2767.99655785966069743 17.009497869018204596614 309.12537133609947659
18.009497869018190385759 2782.76860967668426383 18.009497869018190385759 300.32830418495819913
19.009497869018204596614 2796.26029740659305389 19.009497869018204596614 293.18696447101268632
20.009497869018190385759 2808.65967461916034154 20.009497869018190385759 286.69788714213223102
21.009497869018190385759 2820.11789212794701598 21.009497869018190385759 281.10208516262287048
22.009497869018204596614 2830.75861554594848712 22.009497869018204596614 276.24386749714579992
23.009497869018190385759 2840.68197740172035992 23.009497869018190385759 272.13109671390543554
24.009497869018204596614 2849.97198172819480533 24.009497869018204596614 268.38671778435877968
25.009497869018204596614 2858.69866876517926357 25.009497869018204596614 265.07880803003297387
26.009497869018190385759 2866.92102936488618070 26.009497869018190385759 262.28239103795914389
27.009497869018204596614 2874.68969193558950792 27.009497869018204596614 259.64032674427687652
28.009497869018190385759 2882.04764125356496152 28.009497869018190385759 257.27268428867176908
29.009497869018190385759 2889.03239595400600592 29.009497869018190385759 255.20180370624879629
30.009497869018190385759 2895.67640182735340204 30.009497869018190385759 253.26242826111885620
31.009497869018218807469 2902.00798147602199606 31.009497869018218807469 251.49899947860205884
32.009497869018190385759 2908.05243791508337381 32.009497869018190385759 249.89076004624044458
33.009497869018190385759 2913.83152594007651714 33.009497869018190385759 248.47725377889906895
34.009497869018218807469 2919.36533829885456726 34.009497869018218807469 247.11247779396001079
35.009497869018190385759 2924.67117535411307472 35.009497869018190385759 245.88643530664739956
36.009497869018190385759 2929.76482164022263532 36.009497869018190385759 244.71669637591313062
37.009497869018190385759 2934.66070005806886911 37.009497869018190385759 243.62984565158521377
38.009497869018218807469 2939.37138112915999955 38.009497869018218807469 242.61794987016128289
39.009497869018190385759 2943.90860632528710994 39.009497869018190385759 241.69020240121395204
40.009497869018190385759 2948.28305708578818667 40.009497869018190385759 240.85513995298910572
41.009497869018218807469 2952.50423038719281976 41.009497869018218807469 239.99679334979407486
42.009497869018190385759 2956.58102922147782010 42.009497869018190385759 239.22355391325558571
43.009497869018190385759 2960.52166479016113954 43.009497869018190385759 238.46277166165711492
44.009497869018218807469 2964.33345988020255390 44.009497869018218807469 237.77128568048965462
46.009497869018190385759 2971.59768663852810278 46.009497869018190385759 236.48821060702630348
48.009497869018218807469 2978.42283817249426647 48.009497869018218807469 235.30568872624411370
50.009497869018190385759 2984.85114669775248331 50.009497869018190385759 234.24532883672196704
52.009497869018190385759 2990.91915374394875471 52.009497869018190385759 233.27115707258107591
54.009497869018218807469 2996.65884000224377814 54.009497869018218807469 232.36007003349760680
56.009497869018190385759 3002.09815528600756807 56.009497869018190385759 231.51781621361368479
58.009497869018218807469 3007.26186310075127039 58.009497869018218807469 230.76418492440586760
60.009497869018190385759 3012.17185769568277465 60.009497869018190385759 230.03118233710131335
62.009497869018190385759 3016.84765145913115703 62.009497869018190385759 229.34640597321541122
64.009497869018218807469 3021.30673002323919718 64.009497869018218807469 228.70419799194002053
66.009497869018190385759 3025.56471270887413993 66.009497869018190385759 228.10652427109820906
68.009497869018190385759 3029.63577455271615690 68.009497869018190385759 227.54762136778794002
70.009497869018190385759 3033.53263170676063964 70.009497869018190385759 227.00765548549742334
72.009497869018190385759 3037.26686573735150887 72.009497869018190385759 226.50142080454207871
74.009497869018218807469 3040.84902106527488286 74.009497869018218807469 226.01816146231291782
76.009497869018190385759 3044.28865494122055679 76.009497869018190385759 225.55847807083023326
78.009497869018190385759 3047.59455219646679325 78.009497869018190385759 225.12259855006396947
80.009497869018218807469 3050.77475002913070057 80.009497869018218807469 224.70501873977028140
82.009497869018190385759 3053.83659979977619514 82.009497869018190385759 224.30522110818611736
84.009497869018218807469 3056.78690395690682635 84.009497869018218807469 223.91922263490036471
86.009497869018190385759 3059.63192960182050228 86.009497869018190385759 223.55405281740772239
88.009497869018190385759 3062.37743814966415812 88.009497869018190385759 223.19962926200955167
91.009497869018218807469 3066.32071510938067149 91.009497869018218807469 222.69622638330096720
94.009497869018218807469 3070.06849594020741279 94.009497869018218807469 222.22031949166677123
97.009497869018218807469 3073.63548451864335220 97.009497869018218807469 221.77340388597912124
99.504748934509137825444 3076.47419553716463270 99.504748934509137825444 221.35563068879508819
nan nan nan nan

