Time Pressure difference Time.1 Pressure.1 difference.1
(hr) (psi) (hr) (psi)
0.000200000000020850166 0.52065616406019255 0.000200000000020850166 0.41498998817951105
0.000399999999999067768 1.04112715851461468 0.000399999999999067768 1.08677619047152363
0.000600000000019917934 1.56144201294958007 0.000600000000019917934 1.59030634744097621
0.000799999999998135536 2.08161312135390508 0.000799999999998135536 2.10307927675318096
0.001007140329434719206 2.62021315612721528 0.001007140329434719206 2.64153869205020220
0.001267914553977789183 3.29807395996358332 0.001267914553977789183 3.32443456818597260
0.001596209851982166583 4.15115175522129043 0.001596209851982166583 4.18359600645340812
0.002009509145224797066 5.22465928132161839 0.002009509145224797066 5.26437207959073650
0.002529822128153114136 6.57543425369483447 0.002529822128153114136 6.62370008785858566
0.003184857364431081805 8.27490600810386567 0.003184857364431081805 8.33302412519242530
0.004009497869034817086 10.41280715261701140 0.004009497869034817086 10.48192552998799876
0.005047658755856332391 13.10181074252913902 0.005047658755856332391 13.18262608867153318
0.006354625877790454069 16.48331359845966659 0.006354625877790454069 16.57555399444549593
0.008000000000009777068 20.73463333112537654 0.008000000000009777068 20.83619260748950097
0.010071403294361402914 26.07794032155093333 0.010071403294361402914 26.18345981152967283
0.012679145539692626699 32.79130523195139801 0.012679145539692626699 32.88988547319707578
0.015962098519750611558 41.22230476296437729 0.015962098519750611558 41.29385640166985638
0.020095091452091651263 51.80468761804655742 0.020095091452091651263 51.81416639315960992
0.025298221281360611101 65.07864866262514170 0.025298221281360611101 64.96701834929481834
0.031848573644296607199 81.71527456410485968 0.031848573644296607199 81.38543766917857170
0.040094978690191851456 102.54568039616643205 0.040094978690191851456 101.84071401643112154
0.050476587558435426217 128.59520948113166128 0.050476587558435426217 127.26490996202792871
0.063546258777947173257 161.12275125090914685 0.063546258777947173257 158.77254621793477440
0.080000000000012505552 201.66464670457088459 0.080000000000012505552 197.67814498018873337
0.100714032943542974863 252.08166176209024911 0.100714032943542974863 245.50420314649733200
0.126791455396883634421 314.60593375065997179 0.126791455396883634421 303.97117815117059081
0.159620985197506115583 391.88240871682859279 0.159620985197506115583 374.95703096086384676
0.200950914520774404082 486.99583070418600528 0.200950914520774404082 460.40872962203735597
0.252982212813464002465 603.46957608973355036 0.252982212813464002465 562.18210149653646113
0.318485736442809752589 745.21641479046036238 0.318485736442809752589 681.78036898686571021
0.400949786901833249431 916.41380549115353915 0.400949786901833249431 819.95772990163698068
0.504765875584169521062 1121.26850237796270449 0.504765875584169521062 976.15724467290328903
0.635462587779443310865 1363.62955326520523158 0.635462587779443310865 1147.77201754589532356
0.800000000000011368684 1646.41081321661272341 0.800000000000011368684 1329.27310445159741903
1.007140329435344483500 1970.80467583303970969 1.007140329435344483500 1511.36107355562830890
1.267914553968907398485 2335.32444188562112686 1.267914553968907398485 1680.48437534197523746
1.596209851975117999245 2734.81982327812147560 1.596209851975117999245 1819.28463184445695333
2.009509145207687197399 3159.76384036210311024 2.009509145207687197399 1908.61846456992020649
2.529822128134725289783 3596.25056563113821539 2.529822128134725289783 1931.49427621476729655
3.184857364427983839050 4027.14029683529952308 3.184857364427983839050 1878.34795374188911410
4.009497869018204596614 4434.49441079224197892 4.009497869018204596614 1752.10287577512622192
5.009497869018190385759 4791.45265107812792849 5.009497869018190385759 1576.15300238289046320
6.009497869018190385759 5049.56659229217711982 6.009497869018190385759 1408.37075385437515251
7.009497869018204596614 5242.50730834563455574 7.009497869018204596614 1261.27494266139387946
8.009497869018190385759 5391.14187617234529171 8.009497869018190385759 1137.70934362085222347
9.009497869018204596614 5508.78784993762837985 9.009497869018204596614 1037.10618586307623445
10.009497869018190385759 5604.17721751455701451 10.009497869018190385759 956.10537449049604675
11.009497869018190385759 5683.19053083697872353 11.009497869018190385759 887.66229441691712054
12.009497869018204596614 5749.87866314802158740 12.009497869018204596614 831.53535144912314081
13.009497869018190385759 5807.09645991849265556 13.009497869018190385759 785.36534570409355638
14.009497869018204596614 5856.89741720878100750 14.009497869018204596614 747.21172721760933655
15.009497869018190385759 5900.78699781912655453 15.009497869018190385759 715.50692250650035930
16.009497869018190385759 5939.88862399129720870 16.009497869018190385759 688.99915322498679870
17.009497869018204596614 5975.05463869016421086 17.009497869018204596614 667.28442226344225219
18.009497869018190385759 6006.94189537104921328 18.009497869018190385759 648.29489110270287711
19.009497869018204596614 6036.06533164319716889 19.009497869018204596614 632.87944744432400057
20.009497869018190385759 6062.83088383308404445 20.009497869018190385759 618.87199086543034809
21.009497869018190385759 6087.56482921411952702 21.009497869018190385759 606.79277693724804976
22.009497869018204596614 6110.53411493711610092 22.009497869018204596614 596.30572776970097948
23.009497869018190385759 6131.95488914992074569 23.009497869018190385759 587.42781566518885938
24.009497869018204596614 6152.00848469603351987 24.009497869018204596614 579.34512183796061890
25.009497869018204596614 6170.84609188621379872 25.009497869018204596614 572.20459940276066391
26.009497869018190385759 6188.59504959454807249 26.009497869018190385759 566.16819582676703249
27.009497869018204596614 6205.36464535061713832 27.009497869018204596614 560.46498117902524427
28.009497869018190385759 6221.24766698183248081 28.009497869018190385759 555.35413918865003780
29.009497869018190385759 6236.32510299037039658 29.009497869018190385759 550.88389351762668866
30.009497869018190385759 6250.66699153076933726 30.009497869018190385759 546.69751755675997629
31.009497869018218807469 6264.33447035858534946 31.009497869018218807469 542.89094370208579221
32.009497869018190385759 6277.38215908566326107 32.009497869018190385759 539.41936478947070555
33.009497869018190385759 6289.85701806375163869 33.009497869018190385759 536.36814091583039499
34.009497869018218807469 6301.80241991407910973 34.009497869018218807469 533.42210723799655625
35.009497869018190385759 6313.25570955749935820 35.009497869018190385759 530.77554655848712173
36.009497869018190385759 6324.25095981648064480 36.009497869018190385759 528.25052390110897704
37.009497869018190385759 6334.81930426327835448 37.009497869018190385759 525.90442544100812938
38.009497869018218807469 6344.98787788570371049 38.009497869018218807469 523.72012627145159058
39.009497869018190385759 6354.78202606768809346 39.009497869018190385759 521.71747139020669692
40.009497869018190385759 6364.22480598518450279 40.009497869018190385759 519.91488831231436052
41.009497869018218807469 6373.33671800821593934 41.009497869018218807469 518.06204357576234543
42.009497869018190385759 6382.13698031946569245 42.009497869018190385759 516.39291292999303096
43.009497869018190385759 6390.64331778841642517 43.009497869018190385759 514.75067262137019952
44.009497869018218807469 6398.87153753450638760 44.009497869018218807469 513.25801667581561105
46.009497869018190385759 6414.55224770937456924 46.009497869018190385759 510.48834427585671847
48.009497869018218807469 6429.28516102062530990 48.009497869018218807469 507.93572807803036540
50.009497869018190385759 6443.16144080273443251 50.009497869018190385759 505.64681328202738086
52.009497869018190385759 6456.25996635762658116 52.009497869018190385759 503.54394595667503154
54.009497869018218807469 6468.64977186691248789 54.009497869018218807469 501.57725462403277561
56.009497869018190385759 6480.39119037600266893 56.009497869018190385759 499.75914810249025777
58.009497869018218807469 6491.53767690024233161 58.009497869018218807469 498.13234400923471412
60.009497869018190385759 6502.13649281895686727 60.009497869018190385759 496.55006945870837853
62.009497869018190385759 6512.22975797729668557 62.009497869018190385759 495.07189703183735219
64.009497869018218807469 6521.85521722257817601 64.009497869018218807469 493.68561359639460306
66.009497869018190385759 6531.04658674398342555 66.009497869018190385759 492.39546273692241130
68.009497869018190385759 6539.83446506896689243 68.009497869018190385759 491.18900336632850667
70.009497869018190385759 6548.24630154631904588 70.009497869018190385759 490.02342184110818835
72.009497869018190385759 6556.30709638476582768 72.009497869018190385759 488.93065318497713179
74.009497869018218807469 6564.03961098917989148 74.009497869018218807469 487.88747957037196556
76.009497869018190385759 6571.46447583863482578 76.009497869018190385759 486.89519749082671751
78.009497869018190385759 6578.60065405168370489 78.009497869018190385759 485.95429893910358032
80.009497869018218807469 6585.46549489046810777 80.009497869018218807469 485.05290252102139448
82.009497869018190385759 6592.07486715399954846 82.009497869018190385759 484.18989108180869607
84.009497869018218807469 6598.44345474835699861 84.009497869018218807469 483.35666679119873379
86.009497869018190385759 6604.58478596806708083 86.009497869018190385759 482.56840366792152963
88.009497869018190385759 6610.51129752306860610 88.009497869018190385759 481.80333764833784471
91.009497869018218807469 6619.02333675335285079 91.009497869018218807469 480.71668177912556530
94.009497869018218807469 6627.11337399506828660 94.009497869018218807469 479.68937931649440998
97.009497869018218807469 6634.81314934024339891 97.009497869018218807469 478.72465804352736995
99.504748934509137825444 6640.94084967677645182 99.504748934509137825444 477.82284417650254227
nan nan nan nan

