Time Pressure difference Time.1 Pressure.1 difference.1
(hr) (psi) (hr) (psi)
0.000200000000020850166 0.60299635613999936 0.000200000000020850166 0.48061939525582359
0.000399999999999067768 1.20577825866309207 0.000399999999999067768 1.25864654647261132
0.000600000000019917934 1.80837932809655833 0.000600000000019917934 1.84180846948036403
0.000799999999998135536 2.41081391850092830 0.000799999999998135536 2.43567488122373232
0.001007140329434719206 3.03459191404509765 0.001007140329434719206 3.05929001874823747
0.001267914553977789183 3.81965434660319181 0.001267914553977789183 3.85018380500771640
0.001596209851982166583 4.80764380596714958 0.001596209851982166583 4.84521901705866043
0.002009509145224797066 6.05092328907056487 0.002009509145224797066 6.09691654585189191
0.002529822128153114136 7.61531922352836332 0.002529822128153114136 7.67121815287136499
0.003184857364431081805 9.58355727775607313 0.003184857364431081805 9.65086659866534902
0.004009497869034817086 12.05956099943663418 0.004009497869034817086 12.13961023840463227
0.005047658755856332391 15.17382234558087184 0.005047658755856332391 15.26741839342949270
0.006354625877790454069 19.09009961482948370 0.006354625877790454069 19.19692754947760704
0.008000000000009777068 24.01375265984967555 0.008000000000009777068 24.13137322752378822
0.010071403294361402914 30.20208743310611155 0.010071403294361402914 30.32429451015816824
0.012679145539692626699 37.97715062805873032 0.012679145539692626699 38.09132103525220714
0.015962098519750611558 47.74148714560570994 0.015962098519750611558 47.82435445880295077
0.020095091452091651263 59.99744173016573257 0.020095091452091651263 60.00841954479347606
0.025298221281360611101 75.37063942556426355 0.025298221281360611101 75.24135511699478229
0.031848573644296607199 94.63829721881154455 0.031848573644296607199 94.25629762005506507
0.040094978690191851456 118.76296850993715282 0.040094978690191851456 117.94651383692102797
0.050476587558435426217 148.93215155562373297 0.050476587558435426217 147.39146920522401274
0.063546258777947173257 186.60382533052575127 0.063546258777947173257 183.88194250479665470
0.080000000000012505552 233.55729849970271061 0.080000000000012505552 228.94034362721535558
0.100714032943542974863 291.94761146567958576 0.100714032943542974863 284.32994773356313090
0.126791455396883634421 364.35990729908706953 0.126791455396883634421 352.04329737955055180
0.159620985197506115583 453.85742223594365896 0.159620985197506115583 434.25534735882791892
0.200950914520774404082 564.01274322769143055 0.200950914520774404082 533.22097280507523465
0.252982212813464002465 698.90645793140072328 0.252982212813464002465 651.08949454471076024
0.318485736442809752589 863.07012895061313884 0.318485736442809752589 789.60186504069906732
0.400949786901833249431 1061.34186738192693156 0.400949786901833249431 949.63155619598535395
0.504765875584169521062 1298.59371281792800801 0.504765875584169521062 1130.53355014034332271
0.635462587779443310865 1579.28342830235419569 0.635462587779443310865 1329.28867846769026073
0.800000000000011368684 1906.78568623329738330 0.800000000000011368684 1539.49361138563585882
1.007140329435344483500 2282.48145364050151329 1.007140329435344483500 1750.37824014030456965
1.267914553968907398485 2704.64891432440117569 1.267914553968907398485 1946.24787879062614593
1.596209851975117999245 3167.32327775820795068 1.596209851975117999245 2106.99897458024179286
2.009509145207687197399 3659.47090137783561659 2.009509145207687197399 2210.46068181021109922
2.529822128134725289783 4164.98667744820340886 2.529822128134725289783 2236.95423363531335781
3.184857364427983839050 4664.02031183002054604 3.184857364427983839050 2175.40298157007919144
4.009497869018204596614 5135.79624253095062159 4.009497869018204596614 2029.19262769483452757
5.009497869018190385759 5549.20634509847059235 5.009497869018190385759 1825.41681585877904581
6.009497869018190385759 5848.14022270260193181 6.009497869018190385759 1631.10031396872523146
7.009497869018204596614 6071.59392739710074238 7.009497869018204596614 1460.74174669250874103
8.009497869018190385759 6243.73460099832209380 8.009497869018190385759 1317.63462320306348374
9.009497869018204596614 6379.98592844214181241 9.009497869018204596614 1201.12138139094304279
10.009497869018190385759 6490.46083498091684305 10.009497869018190385759 1107.31053754889717311
11.009497869018190385759 6581.96986398851458944 11.009497869018190385759 1028.04339209626982665
12.009497869018204596614 6659.20452201647822221 12.009497869018204596614 963.04014345146049436
13.009497869018190385759 6725.47113968195935740 13.009497869018190385759 909.56849143045974415
14.009497869018204596614 6783.14796721464244911 14.009497869018204596614 865.38099398205554280
15.009497869018190385759 6833.97855178732697823 15.009497869018190385759 828.66217063452506864
16.009497869018190385759 6879.26398145957045926 16.009497869018190385759 797.96227809603112746
17.009497869018204596614 6919.99139464915151621 17.009497869018204596614 772.81342834024860622
18.009497869018190385759 6956.92152419170997746 18.009497869018190385759 750.82076046239546940
19.009497869018204596614 6990.65074351648217998 19.009497869018204596614 732.96741117753174422
20.009497869018190385759 7021.64918654790108121 20.009497869018190385759 716.74471785533069124
21.009497869018190385759 7050.29473031986708520 21.009497869018190385759 702.75521290655717621
22.009497869018204596614 7076.89653886487030832 22.009497869018204596614 690.60966874286452821
23.009497869018190385759 7101.70494350430089980 23.009497869018190385759 680.32774178476358884
24.009497869018204596614 7124.92995432048610382 24.009497869018204596614 670.96679446089694920
25.009497869018204596614 7146.74667191294793156 25.009497869018204596614 662.69702007508237784
26.009497869018190385759 7167.30257341221567913 26.009497869018190385759 655.70597759489794498
27.009497869018204596614 7186.72422983897376980 27.009497869018204596614 649.10081686069213447
28.009497869018190385759 7205.11910313391217642 28.009497869018190385759 643.18171072167933744
29.009497869018190385759 7222.58098988501478743 29.009497869018190385759 638.00450926562200493
30.009497869018190385759 7239.19100456838350510 30.009497869018190385759 633.15607065279709786
31.009497869018218807469 7255.01995369005544489 31.009497869018218807469 628.74749869650509027
32.009497869018190385759 7270.13109478770911664 32.009497869018190385759 624.72690011560109724
33.009497869018190385759 7284.57881485019061074 33.009497869018190385759 621.19313444724764395
34.009497869018218807469 7298.41334574713710026 34.009497869018218807469 617.78119448490008381
35.009497869018190385759 7311.67793838528268680 35.009497869018190385759 614.71608826661838521
36.009497869018190385759 7324.41205410055772518 36.009497869018190385759 611.79174093978292603
37.009497869018190385759 7336.65175014517171803 37.009497869018190385759 609.07461412896316233
38.009497869018218807469 7348.42845282290090836 38.009497869018218807469 606.54487467540320722
39.009497869018190385759 7359.77151581321686535 39.009497869018190385759 604.22550600303486590
40.009497869018190385759 7370.70764271447023930 40.009497869018190385759 602.13784988247277852
41.009497869018218807469 7381.26057596798182203 41.009497869018218807469 599.99198337448524398
42.009497869018190385759 7391.45257305369432288 42.009497869018190385759 598.05888478313897849
43.009497869018190385759 7401.30416197540307621 43.009497869018190385759 596.15692915414274466
44.009497869018218807469 7410.83364970050661213 44.009497869018218807469 594.42821420122413656
46.009497869018190385759 7428.99421659632025694 46.009497869018190385759 591.22052651756575870
48.009497869018218807469 7446.05709543123521144 48.009497869018218807469 588.26422181561031266
50.009497869018190385759 7462.12786674438120826 50.009497869018190385759 585.61332209180488917
52.009497869018190385759 7477.29788435987120465 52.009497869018190385759 583.17789268145270398
54.009497869018218807469 7491.64710000560899061 54.009497869018218807469 580.90017508374398858
56.009497869018190385759 7505.24538821501846542 56.009497869018190385759 578.79454053403412672
58.009497869018218807469 7518.15465775187840336 58.009497869018218807469 576.91046231101472586
60.009497869018190385759 7530.42964423920784611 60.009497869018190385759 575.07795584275322653
62.009497869018190385759 7542.11912864782789256 62.009497869018190385759 573.36601493303840016
64.009497869018218807469 7553.26682505809731083 64.009497869018218807469 571.76049497985002290
66.009497869018190385759 7563.91178177218534984 66.009497869018190385759 570.26631067774565054
68.009497869018190385759 7574.08943638179061963 68.009497869018190385759 568.86905341946987846
70.009497869018190385759 7583.83157926690273598 70.009497869018190385759 567.51913871374358678
72.009497869018190385759 7593.16716434337922692 72.009497869018190385759 566.25355201135516836
74.009497869018218807469 7602.12255266318697977 74.009497869018218807469 565.04540365578225192
76.009497869018190385759 7610.72163735305093724 76.009497869018190385759 563.89619517707558316
78.009497869018190385759 7618.98638049116743787 78.009497869018190385759 562.80649637516000894
80.009497869018218807469 7626.93687507282629667 80.009497869018218807469 561.76254684942568929
82.009497869018190385759 7634.59149949944003311 82.009497869018190385759 560.76305277046537867
84.009497869018218807469 7641.96725989226706588 84.009497869018218807469 559.79805658725092599
86.009497869018190385759 7649.07982400455057359 86.009497869018190385759 558.88513204351932018
88.009497869018190385759 7655.94359537416130479 88.009497869018190385759 557.99907315502389338
91.009497869018218807469 7665.80178777345190611 91.009497869018218807469 556.74056595825243221
94.009497869018218807469 7675.17123985051875934 94.009497869018218807469 555.55079872916689965
97.009497869018218807469 7684.08871129660838051 97.009497869018218807469 554.43350971494783153
99.504748934509137825444 7691.18548884291158174 99.504748934509137825444 553.38907672198774890
nan nan nan nan

