Time Pressure difference Time.1 Pressure.1 difference.1
(hr) (psi) (hr) (psi)
0.000200000000020850166 0.43166221908504782 0.000200000000020850166 0.34405719467278956
0.000399999999999067768 0.86317091896019971 0.000399999999999067768 0.90101732085418662
0.000600000000019917934 1.29455016728567407 0.000600000000019917934 1.31848082160042623
0.000799999999998135536 1.72581023958894031 0.000799999999998135536 1.74360725980016129
0.001007140329434719206 2.17234924605435298 0.001007140329434719206 2.19002968238666940
0.001267914553977789183 2.73434566329249185 0.001267914553977789183 2.75620054455035124
0.001596209851982166583 3.44160984178889739 0.001596209851982166583 3.46850851014268224
0.002009509145224797066 4.33162646486568725 0.002009509145224797066 4.36455129282362986
0.002529822128153114136 5.45151817518789006 0.002529822128153114136 5.49153409840032936
0.003184857364431081805 6.86050514090400299 0.003184857364431081805 6.90868933063078039
0.004009497869034817086 8.63298228787257038 0.004009497869034817086 8.69028650169931538
0.005047658755856332391 10.86236385842271801 0.005047658755856332391 10.92936571888262876
0.006354625877790454069 13.66587820702965672 0.006354625877790454069 13.74235227335017662
0.008000000000009777068 17.19053466270618102 0.008000000000009777068 17.27473476563426757
0.010071403294361402914 21.62052879694078911 0.010071403294361402914 21.70801220796150588
0.012679145539692626699 27.18640162201721466 0.012679145539692626699 27.26813188592537429
0.015962098519750611558 34.17631976354395107 0.015962098519750611558 34.23564132981893948
0.020095091452091651263 42.94989276959450564 0.020095091452091651263 42.95775137068663696
0.025298221281360611101 53.95498187843841009 0.025298221281360611101 53.86243214582109573
0.031848573644296607199 67.74796725043198364 0.031848573644296607199 67.47450822732217546
0.040094978690191851456 85.01790435401018442 0.040094978690191851456 84.43343542256829437
0.050476587558435426217 106.61487814809477470 0.050476587558435426217 105.51196209311899565
0.063546258777947173257 133.58260047799015524 0.063546258777947173257 131.63410780688201385
0.080000000000012505552 167.19481092599406225 0.080000000000012505552 163.88970805865486113
0.100714032943542974863 208.99422117336234805 0.100714032943542974863 203.54102465340591266
0.126791455396883634421 260.83143708720854193 0.126791455396883634421 252.01444322756793781
0.159620985197506115583 324.89931329717899189 0.159620985197506115583 310.86693141962990694
0.200950914520774404082 403.75532928989218817 0.200950914520774404082 381.71266880804694210
0.252982212813464002465 500.32062298813372081 0.252982212813464002465 466.09027264648955224
0.318485736442809752589 617.83916817292163159 0.318485736442809752589 565.24602476706604648
0.400949786901833249431 759.77438506375187899 0.400949786901833249431 679.80521057340195057
0.504765875584169521062 929.61398200345468013 0.504765875584169521062 809.30608623839759730
0.635462587779443310865 1130.54910246747840574 0.635462587779443310865 951.58734362031896126
0.800000000000011368684 1364.99554642080170197 0.800000000000011368684 1102.06508180571722733
1.007140329435344483500 1633.94189577851057038 1.007140329435344483500 1253.02938845905941889
1.267914553968907398485 1936.15556763360564219 1.267914553968907398485 1393.24503323080671180
1.596209851975117999245 2267.36659469863434424 1.596209851975117999245 1508.32064525123496423
2.009509145207687197399 2619.67641077944381323 2.009509145207687197399 1582.38495704758543070
2.529822128134725289783 2981.55598013188637196 2.529822128134725289783 1601.35068587134878726
3.184857364427983839050 3338.79523012383469904 3.184857364427983839050 1557.28847922051181740
4.009497869018204596614 3676.52172396353580552 4.009497869018204596614 1452.62203279119898980
5.009497869018190385759 3972.46633531876705092 5.009497869018190385759 1306.74665852511202502
6.009497869018190385759 4186.46175942434456374 6.009497869018190385759 1167.64284544795646070
7.009497869018204596614 4346.42379078495923750 7.009497869018204596614 1045.68960901160289723
8.009497869018190385759 4469.65276954224736983 8.009497869018190385759 943.24464750674474089
9.009497869018204596614 4567.18992670547868329 9.009497869018204596614 859.83723716124052316
10.009497869018190385759 4646.27472186909744778 10.009497869018190385759 792.68161239707274035
11.009497869018190385759 4711.78256470350152085 11.009497869018190385759 735.93726965236419346
12.009497869018204596614 4767.07192679524450796 12.009497869018204596614 689.40390958801106081
13.009497869018190385759 4814.50968482060216047 13.009497869018190385759 651.12558214125328959
14.009497869018204596614 4855.79833790951670380 14.009497869018204596614 619.49342879543019080
15.009497869018190385759 4892.18602534844467300 15.009497869018190385759 593.20781594388768099
16.009497869018190385759 4924.60414672760907706 16.009497869018190385759 571.23092735426223499
17.009497869018204596614 4953.75935699711681082 17.009497869018204596614 553.22781973598489458
18.009497869018190385759 4980.19623593861797417 18.009497869018190385759 537.48410300687339713
19.009497869018204596614 5004.34170466904015484 19.009497869018204596614 524.70356744984678699
20.009497869018190385759 5026.53231423222132435 20.009497869018190385759 513.09035664402290422
21.009497869018190385759 5047.03857246346433385 21.009497869018190385759 503.07580068759057212
22.009497869018204596614 5066.08179816671417939 22.009497869018204596614 494.38126631385756582
23.009497869018190385759 5083.84119403963086370 23.009497869018190385759 487.02082480867898084
24.009497869018204596614 5100.46709833425211400 24.009497869018204596614 480.31967768993865775
25.009497869018204596614 5116.08485892802764283 25.009497869018204596614 474.39965988823138332
26.009497869018190385759 5130.80004910474508506 26.009497869018190385759 469.39503775414073061
27.009497869018204596614 5144.70327625714162423 27.009497869018204596614 464.66665372510243515
28.009497869018190385759 5157.87146831241443579 28.009497869018190385759 460.42939015800220659
29.009497869018190385759 5170.37177069009976549 29.009497869018190385759 456.72322801221764621
30.009497869018190385759 5182.26225016688385949 30.009497869018190385759 453.25241471558854300
31.009497869018218807469 5193.59359443467383244 31.009497869018218807469 450.09648527377402161
32.009497869018190385759 5204.41108716527014622 32.009497869018190385759 447.21829125516825343
33.009497869018190385759 5214.75366194103298767 33.009497869018190385759 444.68860245258144914
34.009497869018218807469 5224.65727785208855494 34.009497869018218807469 442.24612405194915254
35.009497869018190385759 5234.15289658201618295 35.009497869018190385759 440.05193077293102988
36.009497869018190385759 5243.26876700439879642 36.009497869018190385759 437.95850144516867886
37.009497869018190385759 5252.03070113840476552 37.009497869018190385759 436.01341342473358509
38.009497869018218807469 5260.46119588287638180 38.009497869018218807469 434.20246890556450126
39.009497869018190385759 5268.58126442353113816 39.009497869018190385759 432.54212084906913560
40.009497869018190385759 5276.41002285353170009 40.009497869018190385759 431.04764701931497939
41.009497869018218807469 5283.96446748604466848 41.009497869018218807469 429.51150258118320835
42.009497869018190385759 5291.26053160671290243 42.009497869018190385759 428.12767062406771856
43.009497869018190385759 5298.31291043480541703 43.009497869018190385759 426.76613273241395063
44.009497869018218807469 5305.13470923388013034 44.009497869018218807469 425.52861126956594262
46.009497869018190385759 5318.13517022550422553 46.009497869018190385759 423.23234932774710160
48.009497869018218807469 5330.34983797077438794 48.009497869018218807469 421.11604292731271926
50.009497869018190385759 5341.85429357287466701 50.009497869018190385759 419.21836436640933243
52.009497869018190385759 5352.71393376934247499 52.009497869018190385759 417.47493282989512409
54.009497869018218807469 5362.98599296953307203 54.009497869018218807469 415.84440119788024504
56.009497869018190385759 5372.72049170151058206 56.009497869018190385759 414.33705729263965623
58.009497869018218807469 5381.96174810099910246 58.009497869018218807469 412.98831715781602725
60.009497869018190385759 5390.74894532434245775 60.009497869018190385759 411.67649528605375053
62.009497869018190385759 5399.11700381823811767 62.009497869018190385759 410.45098172447859497
64.009497869018218807469 5407.09721683469342679 64.009497869018218807469 409.30165088902373327
66.009497869018190385759 5414.71753757208807656 66.009497869018190385759 408.23202102310335704
68.009497869018190385759 5422.00333445813703293 68.009497869018190385759 407.23177755131706590
70.009497869018190385759 5428.97736502003044734 70.009497869018190385759 406.26542481714881205
72.009497869018190385759 5435.66035626788107038 72.009497869018190385759 405.35943930192189555
74.009497869018218807469 5442.07117907888823538 74.009497869018218807469 404.49457172048414577
76.009497869018190385759 5448.22693763618372031 76.009497869018190385759 403.67189696124449938
78.009497869018190385759 5454.14335375850441778 78.009497869018190385759 402.89182292235585692
80.009497869018218807469 5459.83481125903017528 80.009497869018218807469 402.14449905496815063
82.009497869018190385759 5465.31446653821967629 82.009497869018190385759 401.42899915568483493
84.009497869018218807469 5470.59449363322255522 84.009497869018218807469 400.73819499142518907
86.009497869018190385759 5475.68610849429205700 86.009497869018190385759 400.08466693873998565
88.009497869018190385759 5480.59962206784803129 88.009497869018190385759 399.45037098959642208
91.009497869018218807469 5487.65672807506416575 91.009497869018218807469 398.54945342390760743
94.009497869018218807469 5494.36396342402622395 94.009497869018218807469 397.69774419370702390
97.009497869018218807469 5500.74764298336503998 97.009497869018218807469 396.89791936835575825
99.504748934509137825444 5505.82795684064967645 99.504748934509137825444 396.15024940511949580
nan nan nan nan

