Time Pressure difference Time.1 Pressure.1 difference.1
(hr) (psi) (hr) (psi)
0.000200000000020850166 0.09232082142281368 0.000200000000020850166 0.07358448672192609
0.000399999999999067768 0.18460880925738377 0.000399999999999067768 0.19270312642546189
0.000600000000019917934 0.27686911092236960 0.000600000000019917934 0.28198722774113161
0.000799999999998135536 0.36910392407393522 0.000799999999998135536 0.37291022319425415
0.001007140329434719206 0.46460648615035294 0.001007140329434719206 0.46838785114628184
0.001267914553977789183 0.58480225168683342 0.001267914553977789183 0.58947641704256071
0.001596209851982166583 0.73606684477566009 0.001596209851982166583 0.74181973916346378
0.002009509145224797066 0.92641722080942435 0.002009509145224797066 0.93345894702008259
0.002529822128153114136 1.16593163284365264 0.002529822128153114136 1.17448995168099524
0.003184857364431081805 1.46727566597368853 0.003184857364431081805 1.47758095510600529
0.004009497869034817086 1.84636037370685036 0.004009497869034817086 1.85861618822470920
0.005047658755856332391 2.32316452463376066 0.005047658755856332391 2.33749440230437733
0.006354625877790454069 2.92276007896010004 0.006354625877790454069 2.93911580412691675
0.008000000000009777068 3.67658833826664022 0.008000000000009777068 3.69459645276571047
0.010071403294361402914 4.62404373113762546 0.010071403294361402914 4.64275405603800984
0.012679145539692626699 5.81443271684761243 0.012679145539692626699 5.83191259987999278
0.015962098519750611558 7.30938630780997745 0.015962098519750611558 7.32207357920983082
0.020095091452091651263 9.18581521661847766 0.020095091452091651263 9.18749595789251927
0.025298221281360611101 11.53950479481052760 0.025298221281360611101 11.51971092136058239
0.031848573644296607199 14.48944964315597339 0.031848573644296607199 14.43096418734636011
0.040094978690191851456 18.18302000634899684 0.040094978690191851456 18.05801798054929108
0.050476587558435426217 22.80202596230928691 0.050476587558435426217 22.56614218176533626
0.063546258777947173257 28.56968911957015322 0.063546258777947173257 28.15295947314817582
0.080000000000012505552 35.75842777029931341 0.080000000000012505552 35.05155605878745462
0.100714032943542974863 44.69818603129714774 0.100714032943542974863 43.53189544610415851
0.126791455396883634421 55.78475822096367409 0.126791455396883634421 53.89904277121394927
0.159620985197506115583 69.48713636991688247 0.159620985197506115583 66.48599111286883101
0.200950914520774404082 86.35229585968792776 0.200950914520774404082 81.63796962946669566
0.252982212813464002465 107.00498873156617208 0.252982212813464002465 99.68404675098331325
0.318485736442809752589 132.13901284623179322 0.318485736442809752589 120.89076830278290231
0.400949786901833249431 162.49509969571570878 0.400949786901833249431 145.39186584517844381
0.504765875584169521062 198.81917534177932794 0.504765875584169521062 173.08858491803877655
0.635462587779443310865 241.79373867801561460 0.635462587779443310865 203.51868042746704646
0.800000000000011368684 291.93546368537380431 0.800000000000011368684 235.70178050180078344
1.007140329435344483500 349.45578117806297769 1.007140329435344483500 267.98894435251560253
1.267914553968907398485 414.09107515863246363 1.267914553968907398485 297.97726144242687951
1.596209851975117999245 484.92811562918768686 1.596209851975117999245 322.58880852194045019
2.009509145207687197399 560.27761386612371552 2.009509145207687197399 338.42915266335643310
2.529822128134725289783 637.67382234034562316 2.529822128134725289783 342.48540680485490384
3.184857364427983839050 714.07759256983752039 3.184857364427983839050 333.06169786797079269
4.009497869018204596614 786.30811437370414296 4.009497869018204596614 310.67638851603675221
5.009497869018190385759 849.60262662886930229 5.009497869018190385759 279.47760904872342280
6.009497869018190385759 895.37043409653631443 6.009497869018190385759 249.72708255245308351
7.009497869018204596614 929.58196681528033878 7.009497869018204596614 223.64459845912895730
8.009497869018190385759 955.93729753215700384 8.009497869018190385759 201.73440438005522424
9.009497869018204596614 976.79784559596942017 9.009497869018204596614 183.89582528882024803
10.009497869018190385759 993.71193473500943583 10.009497869018190385759 169.53306161093462379
11.009497869018190385759 1007.72228262444843949 11.009497869018190385759 157.39698830715303757
12.009497869018204596614 1019.54717509493673333 12.009497869018204596614 147.44476679049947165
13.009497869018190385759 1029.69282276509989060 13.009497869018190385759 139.25807248107727787
14.009497869018204596614 1038.52334394596596212 14.009497869018204596614 132.49281425104575760
15.009497869018190385759 1046.30568172192170096 15.009497869018190385759 126.87103577990662018
16.009497869018190385759 1053.23903716139625431 16.009497869018190385759 122.17077637056475226
17.009497869018204596614 1059.47454456007722001 17.009497869018204596614 118.32040075278290203
18.009497869018190385759 1065.12867473831693133 18.009497869018190385759 114.95324746389779591
19.009497869018204596614 1070.29273452459233340 19.009497869018204596614 112.21983812511176382
20.009497869018190385759 1075.03870304388533441 20.009497869018190385759 109.73608783716098003
21.009497869018190385759 1079.42443457311060229 21.009497869018190385759 107.59424638983151112
22.009497869018204596614 1083.49726319172486910 22.009497869018204596614 105.73472169718338876
23.009497869018190385759 1087.29551548824474594 23.009497869018190385759 104.16052322497759519
24.009497869018204596614 1090.85134473044695369 24.009497869018204596614 102.72732991056491869
25.009497869018204596614 1094.19155942391330427 25.009497869018204596614 101.46119893563329128
26.009497869018190385759 1097.33873882587045046 26.009497869018190385759 100.39084622487402498
27.009497869018204596614 1100.31226139603609226 27.009497869018204596614 99.37957334005081123
28.009497869018190385759 1103.12857992808858398 28.009497869018190385759 98.47333777945711120
29.009497869018190385759 1105.80205500308488809 29.009497869018190385759 97.68069038411591976
30.009497869018190385759 1108.34510552702136010 30.009497869018190385759 96.93837771373858914
31.009497869018218807469 1110.76857222013245519 31.009497869018218807469 96.26341014525802109
32.009497869018190385759 1113.08214002956651711 32.009497869018190385759 95.64784263838858180
33.009497869018190385759 1115.29413579085667152 33.009497869018190385759 95.10681092916482271
34.009497869018218807469 1117.41225017645820117 34.009497869018218807469 94.58443115561918546
35.009497869018190385759 1119.44310504933309858 35.009497869018190385759 94.11515282426847762
36.009497869018190385759 1121.39274207608536926 36.009497869018190385759 93.66742516457364331
37.009497869018190385759 1123.26668174636415642 37.009497869018190385759 93.25142368043435681
38.009497869018218807469 1125.06973553564398571 38.009497869018218807469 92.86411184685482567
39.009497869018190385759 1126.80639759347172912 39.009497869018190385759 92.50900850529224329
40.009497869018190385759 1128.48075633283633579 40.009497869018190385759 92.18938115441997638
41.009497869018218807469 1130.09644680337373757 41.009497869018218807469 91.86084159250738423
42.009497869018190385759 1131.65687670201373294 42.009497869018190385759 91.56487753231506588
43.009497869018190385759 1133.16518893692386882 43.009497869018190385759 91.27368156704805813
44.009497869018218807469 1134.62418636793972837 44.009497869018218807469 91.00900934667016884
46.009497869018190385759 1137.40463178233335384 46.009497869018190385759 90.51790130131006151
48.009497869018218807469 1140.01701736947211430 48.009497869018218807469 90.06528085728653821
50.009497869018190385759 1142.47750787396739724 50.009497869018190385759 89.65941896853840376
52.009497869018190385759 1144.80008988130430225 52.009497869018190385759 89.28654632778103917
54.009497869018218807469 1146.99700427672109981 54.009497869018218807469 88.93781990937323201
56.009497869018190385759 1149.07894909223045943 56.009497869018190385759 88.61543999900385415
58.009497869018218807469 1151.05540277304612573 58.009497869018218807469 88.32698112623812392
60.009497869018190385759 1152.93474553179589748 60.009497869018190385759 88.04641806695947537
62.009497869018190385759 1154.72444590332247571 62.009497869018190385759 87.78431401043761184
64.009497869018218807469 1156.43119666406732904 64.009497869018218807469 87.53850336932876530
66.009497869018190385759 1158.06097624374160659 66.009497869018190385759 87.30973860031691913
68.009497869018190385759 1159.61921025983292566 68.009497869018190385759 87.09581369594641842
70.009497869018190385759 1161.11076592913968852 70.009497869018190385759 86.88913709962142207
72.009497869018190385759 1162.54007619602089108 72.009497869018190385759 86.69537141139370817
74.009497869018218807469 1163.91117702843280313 74.009497869018218807469 86.51039973212665757
76.009497869018190385759 1165.22772654646723822 76.009497869018190385759 86.33445195124882332
78.009497869018190385759 1166.49308722002706418 78.009497869018190385759 86.16761530709344186
80.009497869018218807469 1167.71033535597757691 80.009497869018218807469 86.00778303487759047
82.009497869018190385759 1168.88228475094865644 82.009497869018190385759 85.85475704485745041
84.009497869018218807469 1170.01153910074685882 84.009497869018218807469 85.70701280163427782
86.009497869018190385759 1171.10049719242078936 86.009497869018190385759 85.56724090597330701
88.009497869018190385759 1172.15136425728542235 88.009497869018190385759 85.43158223476918067
91.009497869018218807469 1173.66068750738372728 91.009497869018218807469 85.23890044326347493
94.009497869018218807469 1175.09518292883785762 94.009497869018218807469 85.05674297784484850
97.009497869018218807469 1176.46047855713595709 97.009497869018218807469 84.88568217704717256
99.504748934509137825444 1177.54701967112168859 99.504748934509137825444 84.72577588433192375
nan nan nan nan

