Time Pressure difference Time.1 Pressure.1 difference.1
(hr) (psi) (hr) (psi)
0.000200000000020850166 0.66703872775762696 0.000200000000020850166 0.53166448964851099
0.000399999999999067768 1.33384022544524128 0.000399999999999067768 1.39232349002901268
0.000600000000019917934 2.00044168432198566 0.000600000000019917934 2.03742123106655448
0.000799999999998135536 2.66685898294861312 0.000799999999998135536 2.69436035136749386
0.001007140329434719206 3.35688650353678408 0.001007140329434719206 3.38420771729115355
0.001267914553977789183 4.22532798065622028 0.001267914553977789183 4.25909987809129476
0.001596209851982166583 5.31824873432503953 0.001596209851982166583 5.35981469197385607
0.002009509145224797066 6.69357307287530023 0.002009509145224797066 6.74445113072167768
0.002529822128153114136 8.42411864450999559 0.002529822128153114136 8.48595442565908264
0.003184857364431081805 10.60139715415223627 0.003184857364431081805 10.67585518914428988
0.004009497869034817086 13.34036954696300903 0.004009497869034817086 13.42892056717312244
0.005047658755856332391 16.78538692573221880 0.005047658755856332391 16.88892351935234615
0.006354625877790454069 21.11759984978378668 0.006354625877790454069 21.23577364783591648
0.008000000000009777068 26.56417880441302160 0.008000000000009777068 26.69429148755044778
0.010071403294361402914 33.40975740876013589 0.010071403294361402914 33.54494372020255355
0.012679145539692626699 42.01058593614220626 0.012679145539692626699 42.13688202796174664
0.015962098519750611558 52.81196233210452107 0.015962098519750611558 52.90363072546202261
0.020095091452091651263 66.36958381736954493 0.020095091452091651263 66.38172755161981797
0.025298221281360611101 83.37552113007245680 0.025298221281360611101 83.23250593631699701
0.031848573644296607199 104.68953706136117887 0.031848573644296607199 104.26696647073676161
0.040094978690191851456 131.37641482064773868 0.040094978690191851456 130.47324703063537754
0.050476587558435426217 164.74977316911753178 0.050476587558435426217 163.04545972770989692
0.063546258777947173257 206.42243850356089752 0.063546258777947173257 203.41147295013365692
0.080000000000012505552 258.36269434036074699 0.080000000000012505552 253.25538701934721075
0.100714032943542974863 322.95446123513795555 0.100714032943542974863 314.52774907905882174
0.126791455396883634421 403.05744228119704076 0.126791455396883634421 389.43272344606839397
0.159620985197506115583 502.06021052858869780 0.159620985197506115583 480.37626011280002558
0.200950914520774404082 623.91478630152903406 0.200950914520774404082 589.85271750299364157
0.252982212813464002465 773.13514380825290573 0.252982212813464002465 720.23968913773535405
0.318485736442809752589 954.73412885295408614 0.318485736442809752589 873.46302863812513806
0.400949786901833249431 1174.06369329697304238 0.400949786901833249431 1050.48897664714513667
0.504765875584169521062 1436.51332093790097133 0.504765875584169521062 1250.60400994835231359
0.635462587779443310865 1747.01421999791455164 0.635462587779443310865 1470.46830362908644929
0.800000000000011368684 2109.29947635738562894 0.800000000000011368684 1702.99845011211027668
1.007140329435344483500 2524.89672526852700685 1.007140329435344483500 1936.28048081727456520
1.267914553968907398485 2991.90128177678570864 1.267914553968907398485 2152.95282591735440292
1.596209851975117999245 3503.71485346494182522 1.596209851975117999245 2330.77679670807401635
2.009509145207687197399 4048.13194883451524220 2.009509145207687197399 2445.22685077488176830
2.529822128134725289783 4607.33698663925406436 2.529822128134725289783 2474.53420051796092594
3.184857364427983839050 5159.37143460369134118 3.184857364427983839050 2406.44578099200498400
4.009497869018204596614 5681.25322277216946532 4.009497869018204596614 2244.70687918794146753
5.009497869018190385759 6138.57032933651498752 5.009497869018190385759 2019.28867078447001404
6.009497869018190385759 6469.25304635515385598 6.009497869018190385759 1804.33441627988645450
7.009497869018204596614 6716.43907554824181716 7.009497869018204596614 1615.88259427226512344
8.009497869018190385759 6906.86227586297263770 8.009497869018190385759 1457.57650732256138326
9.009497869018204596614 7057.58443394565256312 9.009497869018204596614 1328.68875569039505535
10.009497869018190385759 7179.79253745475216419 10.009497869018190385759 1224.91455326098707701
11.009497869018190385759 7281.02045643970814126 11.009497869018190385759 1137.22869029132198193
12.009497869018204596614 7366.45796780305590801 12.009497869018204596614 1065.32164834216723648
13.009497869018190385759 7439.76255727576790377 13.009497869018190385759 1006.17093810652238517
14.009497869018204596614 7503.56506166364579258 14.009497869018204596614 957.29042368773593807
15.009497869018190385759 7559.79420487370498449 15.009497869018190385759 916.67180806743340327
16.009497869018190385759 7609.88925949044823938 16.009497869018190385759 882.71137521795446901
17.009497869018204596614 7654.94220483947538014 17.009497869018204596614 854.89154417776467199
18.009497869018190385759 7695.79456883000239031 18.009497869018190385759 830.56310329771201850
19.009497869018204596614 7733.10606386237031984 19.009497869018204596614 810.81360519224892869
20.009497869018190385759 7767.39675532609089714 20.009497869018190385759 792.86794995858645052
21.009497869018190385759 7799.08465340211478178 21.009497869018190385759 777.39266310490882006
22.009497869018204596614 7828.51175747534671245 22.009497869018204596614 763.95717838865846261
23.009497869018190385759 7855.95498577992930223 23.009497869018190385759 752.58323987776600461
24.009497869018204596614 7881.64665291728306329 24.009497869018204596614 742.22809538984745359
25.009497869018204596614 7905.78045637818468094 25.009497869018204596614 733.08001393133247348
26.009497869018190385759 7928.51953638151280757 26.009497869018190385759 725.34647452566639458
27.009497869018204596614 7950.00390666325165512 27.009497869018204596614 718.03980016865546077
28.009497869018190385759 7970.35244236330618151 28.009497869018190385759 711.49204413625761845
29.009497869018190385759 7989.66890191418042377 29.009497869018190385759 705.76498818072934682
30.009497869018190385759 8008.04301470874906954 30.009497869018190385759 700.40161194971483383
31.009497869018218807469 8025.55310739230844774 31.009497869018218807469 695.52481924772018829
32.009497869018190385759 8042.26915588929932710 32.009497869018190385759 691.07720536925808119
33.009497869018190385759 8058.25132346186546783 33.009497869018190385759 687.16812941612772647
34.009497869018218807469 8073.55517695062553685 34.009497869018218807469 683.39381789915842091
35.009497869018190385759 8088.22856080689234659 35.009497869018190385759 680.00317626183175435
36.009497869018190385759 8102.31512743261737342 36.009497869018190385759 676.76824308097354788
37.009497869018190385759 8115.85476360886605107 37.009497869018190385759 673.76253866403919801
38.009497869018218807469 8128.88223332960842527 38.009497869018218807469 670.96412343403221712
39.009497869018190385759 8141.43000783751813287 39.009497869018190385759 668.39842181301241908
40.009497869018190385759 8153.52762683724813542 40.009497869018190385759 666.08904221481816421
41.009497869018218807469 8165.20135438113356940 41.009497869018218807469 663.71526988460288976
42.009497869018190385759 8176.47581184698174184 42.009497869018190385759 661.57686289114121791
43.009497869018190385759 8187.37370745417047146 43.009497869018190385759 659.47290645741031767
44.009497869018218807469 8197.91529249628365505 44.009497869018218807469 657.56059005431961850
46.009497869018190385759 8218.00463684172245848 46.009497869018190385759 654.01222381667275840
48.009497869018218807469 8236.87971108393321629 48.009497869018218807469 650.74193916706133223
50.009497869018190385759 8254.65730914344021585 50.009497869018190385759 647.80949561052068475
52.009497869018190385759 8271.43848725050702342 52.009497869018190385759 645.11540680072425857
54.009497869018218807469 8287.31168855792930117 54.009497869018218807469 642.59577988574176288
56.009497869018190385759 8302.35420875647650973 56.009497869018190385759 640.26651242523507790
58.009497869018218807469 8316.63453174759524700 58.009497869018218807469 638.18233210128801147
60.009497869018190385759 8330.21320645495870849 60.009497869018190385759 636.15520080812154902
62.009497869018190385759 8343.14419472490772023 62.009497869018190385759 634.26143996730604613
64.009497869018218807469 8355.47585337461168820 64.009497869018218807469 632.48540272253762851
66.009497869018190385759 8367.25137790523149306 66.009497869018190385759 630.83252574283028480
68.009497869018190385759 8378.50996962509816512 68.009497869018190385759 629.28687012746866003
70.009497869018190385759 8389.28679527180065634 70.009497869018190385759 627.79358517023774766
72.009497869018190385759 8399.61388386674479989 72.009497869018190385759 626.39358443187154535
74.009497869018218807469 8409.52039618741582672 74.009497869018218807469 625.05712238887906551
76.009497869018190385759 8419.03276297537559003 76.009497869018190385759 623.78586004415819843
78.009497869018190385759 8428.17527883298680536 78.009497869018190385759 622.58042771431485107
80.009497869018218807469 8436.97017077021700970 80.009497869018218807469 621.42560354929571531
82.009497869018190385759 8445.43776910145061265 82.009497869018190385759 620.31995630608707870
84.009497869018218807469 8453.59688611530691560 84.009497869018218807469 619.25247087306922822
86.009497869018190385759 8461.46485358848076430 86.009497869018190385759 618.24258744676205879
88.009497869018190385759 8469.05760481389916094 88.009497869018190385759 617.26242299355749310
91.009497869018218807469 8479.96280523352834280 91.009497869018218807469 615.87025365312899794
94.009497869018218807469 8490.32735773809145030 94.009497869018218807469 614.55412493902326787
97.009497869018218807469 8500.19192615155952808 97.009497869018218807469 613.31817212605255918
99.504748934509137825444 8508.04243041657173308 99.504748934509137825444 612.16281314625405230
nan nan nan nan

