Time Pressure difference Time.1 Pressure.1 difference.1
(hr) (psi) (hr) (psi)
0.000200000000020850166 0.04990314671503443 0.000200000000020850166 0.03977539822806816
0.000399999999999067768 0.09978854554453176 0.000399999999999067768 0.10416385212187128
0.000600000000019917934 0.14965897887695656 0.000600000000019917934 0.15242552850871979
0.000799999999998135536 0.19951563463455957 0.000799999999998135536 0.20157309361851578
0.001007140329434719206 0.25113864116235290 0.001007140329434719206 0.25318262224123345
0.001267914553977789183 0.31610932523612623 0.001267914553977789183 0.31863590110408685
0.001596209851982166583 0.39787397014900550 0.001596209851982166583 0.40098364279106158
0.002009509145224797066 0.50076606530239154 0.002009509145224797066 0.50457240379463919
0.002529822128153114136 0.63023331505062308 0.002529822128153114136 0.63485943334107842
0.003184857364431081805 0.79312198160739922 0.003184857364431081805 0.79869240816540821
0.004009497869034817086 0.99803263443613532 0.004009497869034817086 1.00465739904038331
0.005047658755856332391 1.25576460791014100 0.005047658755856332391 1.26351048773209573
0.006354625877790454069 1.57987031295140556 0.006354625877790454069 1.58871124547400888
0.008000000000009777068 1.98734504771169718 0.008000000000009777068 1.99707916365714100
0.010071403294361402914 2.49948309791223000 0.010071403294361402914 2.50959678704757261
0.012679145539692626699 3.14293660370141215 0.012679145539692626699 3.15238518912432042
0.015962098519750611558 3.95101962584323063 0.015962098519750611558 3.95787761038369279
0.020095091452091651263 4.96530552249647439 0.020095091452091651263 4.96621403129325412
0.025298221281360611101 6.23757015935704207 0.025298221281360611101 6.22687076830301756
0.031848573644296607199 7.83213494224647278 0.031848573644296607199 7.80052118234938341
0.040094978690191851456 9.82865946289135017 0.040094978690191851456 9.76109080029691256
0.050476587558435426217 12.32541943908610271 0.050476587558435426217 12.19791469284612617
0.063546258777947173257 15.44307519976764809 0.063546258777947173257 15.21781593143144740
0.080000000000012505552 19.32887987583746536 0.080000000000012505552 18.94678705880403058
0.100714032943542974863 24.16118163853899858 0.100714032943542974863 23.53075429519143213
0.126791455396883634421 30.15392336268306650 0.126791455396883634421 29.13461771416970336
0.159620985197506115583 37.56061425400913123 0.159620985197506115583 35.93837357452368764
0.200950914520774404082 46.67691668091239876 0.200950914520774404082 44.12863223214415598
0.252982212813464002465 57.84053444949523026 0.252982212813464002465 53.88326851404503515
0.318485736442809752589 71.42649343039556697 0.318485736442809752589 65.34636124474751284
0.400949786901833249431 87.83518902471119816 0.400949786901833249431 78.59019775415050901
0.504765875584169521062 107.46982450906990891 0.504765875584169521062 93.56139725299392751
0.635462587779443310865 130.69931820433276926 0.635462587779443310865 110.01009752836057487
0.800000000000011368684 157.80295334344529579 0.800000000000011368684 127.40636783881124927
1.007140329435344483500 188.89501685300700728 1.007140329435344483500 144.85888883919761838
1.267914553968907398485 223.83301359926079499 1.267914553968907398485 161.06878996887940048
1.596209851975117999245 262.12330574550685469 1.596209851975117999245 174.37232893077862173
2.009509145207687197399 302.85276425195877437 2.009509145207687197399 182.93467711532781550
2.529822128134725289783 344.68855261640300114 2.529822128134725289783 185.12724692154318973
3.184857364427983839050 385.98788787558788727 3.184857364427983839050 180.03335019890309354
4.009497869018204596614 425.03141317497528462 4.009497869018204596614 167.93318298164149383
5.009497869018190385759 459.24466304263205529 5.009497869018190385759 151.06897786417479779
6.009497869018190385759 483.98401843056018379 6.009497869018190385759 134.98761219051519333
7.009497869018204596614 502.47673881907041959 7.009497869018204596614 120.88897214006971126
8.009497869018190385759 516.72286353089566546 8.009497869018190385759 109.04562398921905242
9.009497869018204596614 527.99883545728073386 9.009497869018204596614 99.40314880476771009
10.009497869018190385759 537.14158634324826380 10.009497869018190385759 91.63949276266735922
11.009497869018190385759 544.71474736456673327 11.009497869018190385759 85.07945313900164308
12.009497869018204596614 551.10658113239821887 12.009497869018204596614 79.69987394081051946
13.009497869018190385759 556.59071500816219213 13.009497869018190385759 75.27463377355529417
14.009497869018204596614 561.36396970052214783 14.009497869018204596614 71.61773743299769990
15.009497869018190385759 565.57063876860638629 15.009497869018190385759 68.57893825940897159
16.009497869018190385759 569.31839846561967988 16.009497869018190385759 66.03825749760257224
17.009497869018204596614 572.68894300544707221 17.009497869018204596614 63.95697337988264763
18.009497869018190385759 575.74522958827947150 18.009497869018190385759 62.13689052102583332
19.009497869018204596614 578.53661325653649783 19.009497869018204596614 60.65937195951986638
20.009497869018190385759 581.10200164534342093 20.009497869018190385759 59.31680423630322707
21.009497869018190385759 583.47266733681658479 21.009497869018190385759 58.15905210261163205
22.009497869018204596614 585.67419631985126216 22.009497869018204596614 57.15390362009913616
23.009497869018190385759 587.72730566932148122 23.009497869018190385759 56.30298552701491133
24.009497869018204596614 589.64937552997128023 24.009497869018204596614 55.52828643814319776
25.009497869018204596614 591.45489698589915406 25.009497869018204596614 54.84389131655854044
26.009497869018190385759 593.15607504101103586 26.009497869018190385759 54.26532228371569744
27.009497869018204596614 594.76338453839787235 27.009497869018204596614 53.71868829191935646
28.009497869018190385759 596.28571888004796619 28.009497869018190385759 53.22883123213897960
29.009497869018190385759 597.73084054220805683 29.009497869018190385759 52.80037318060319507
30.009497869018190385759 599.10546244703857610 30.009497869018190385759 52.39912308850734490
31.009497869018218807469 600.41544444331498198 31.009497869018218807469 52.03427575419352991
32.009497869018190385759 601.66602163760342137 32.009497869018190385759 51.70153656129112818
33.009497869018190385759 602.86169502208474569 33.009497869018190385759 51.40908698873774085
34.009497869018218807469 604.00662171700446379 34.009497869018218807469 51.12671954357793425
35.009497869018190385759 605.10438110774748566 35.009497869018190385759 50.87305558068566569
36.009497869018190385759 606.15823896004610560 36.009497869018190385759 50.63104062949926742
37.009497869018190385759 607.17117932235896660 37.009497869018190385759 50.40617496239695328
38.009497869018218807469 608.14580299223996462 38.009497869018218807469 50.19681721451612333
39.009497869018190385759 609.08453923971444510 39.009497869018190385759 50.00486946232012997
40.009497869018190385759 609.98959801774935841 40.009497869018190385759 49.83209792130809745
41.009497869018218807469 610.86294421803995647 41.009497869018218807469 49.65450896892291155
42.009497869018190385759 611.70641983892630833 42.009497869018190385759 49.49452839584598252
43.009497869018190385759 612.52172374968859003 43.009497869018190385759 49.33712517137733755
44.009497869018218807469 613.31037100969706444 44.009497869018218807469 49.19405910630820244
46.009497869018190385759 614.81331447693696646 46.009497869018190385759 48.92859529800544038
48.009497869018218807469 616.22541479430924483 48.009497869018218807469 48.68393559853326735
50.009497869018190385759 617.55540966160390326 50.009497869018190385759 48.46455079380454123
52.009497869018190385759 618.81085939529975803 52.009497869018190385759 48.26299801501676967
54.009497869018218807469 619.99838069011946118 54.009497869018218807469 48.07449724830985360
56.009497869018190385759 621.12375626607058621 56.009497869018190385759 47.90023783729938600
58.009497869018218807469 622.19210960705197522 58.009497869018218807469 47.74431412229087357
60.009497869018190385759 623.20797055772743533 60.009497869018190385759 47.59265841457268209
62.009497869018190385759 624.17537616395816258 62.009497869018190385759 47.45098054618249250
64.009497869018218807469 625.09794414273903840 64.009497869018218807469 47.31810992936690496
66.009497869018190385759 625.97890607769807048 66.009497869018190385759 47.19445329746859841
68.009497869018190385759 626.82119473504474172 68.009497869018190385759 47.07881821402509104
70.009497869018190385759 627.62744104277805945 70.009497869018190385759 46.96710113493050187
72.009497869018190385759 628.40004118703825498 72.009497869018190385759 46.86236292507767587
74.009497869018218807469 629.14117677212584567 74.009497869018218807469 46.76237823358198398
76.009497869018190385759 629.85282516025245059 76.009497869018190385759 46.66727132499936204
78.009497869018190385759 630.53680390271733813 78.009497869018190385759 46.57708935518564886
80.009497869018218807469 631.19477586809603054 80.009497869018218807469 46.49069353236626512
82.009497869018190385759 631.82826202753983580 82.009497869018190385759 46.40797678100402379
84.009497869018218807469 632.43866978418759572 84.009497869018218807469 46.32811502791042102
86.009497869018190385759 633.02729577968693775 86.009497869018190385759 46.25256265187746152
88.009497869018190385759 633.59533203096498255 88.009497869018190385759 46.17923364041577372
91.009497869018218807469 634.41118243642358721 91.009497869018218807469 46.07508132068296192
94.009497869018218807469 635.18658536693942551 94.009497869018218807469 45.97661782586208545
97.009497869018218807469 635.92458300385726488 97.009497869018218807469 45.88415252813361178
99.504748934509137825444 636.51190252493063326 99.504748934509137825444 45.79771669423346481
nan nan nan nan

