Time Pressure difference Time.1 Pressure.1 difference.1
(hr) (psi) (hr) (psi)
0.000200000000020850166 0.67369248065296483 0.000200000000020850166 0.53696787607892005
0.000399999999999067768 1.34714536485117864 0.000399999999999067768 1.40621200364526233
0.000600000000019917934 2.02039621483891363 0.000600000000019917934 2.05774463486771708
0.000799999999998135536 2.69346106756655423 0.000799999999998135536 2.72123676384996260
0.001007140329434719206 3.39037165569176446 0.001007140329434719206 3.41796540025665152
0.001267914553977789183 4.26747589068770328 0.001267914553977789183 4.30158466490517277
0.001596209851982166583 5.37129859701157386 0.001596209851982166583 5.41327917767933098
0.002009509145224797066 6.76034188158228577 0.002009509145224797066 6.81172745122763068
0.002529822128153114136 8.50814975318341205 0.002529822128153114136 8.57060235010455962
0.003184857364431081805 10.70714675169988794 0.003184857364431081805 10.78234751023301108
0.004009497869034817086 13.47344056488782726 0.004009497869034817086 13.56287488704517408
0.005047658755856332391 16.95282220678690521 0.005047658755856332391 17.05739158438329284
0.006354625877790454069 21.32824922484397234 0.006354625877790454069 21.44760181389911935
0.008000000000009777068 26.82915814410791455 0.008000000000009777068 26.96056870937140104
0.010071403294361402914 33.74302182181510545 0.010071403294361402914 33.87955662514223576
0.012679145539692626699 42.42964414996906442 0.012679145539692626699 42.55720005317832744
0.015962098519750611558 53.33876494888362174 0.015962098519750611558 53.43134774017984512
0.020095091452091651263 67.03162455370240025 0.020095091452091651263 67.04388942245891769
0.025298221281360611101 84.20719715132005945 0.025298221281360611101 84.06275537209073434
0.031848573644296607199 105.73382172032737003 0.031848573644296607199 105.30703596171667868
0.040094978690191851456 132.68690274903323711 0.040094978690191851456 131.77472580400831248
0.050476587558435426217 166.39316242766236087 0.050476587558435426217 164.67184835342271754
0.063546258777947173257 208.48151519686325628 0.063546258777947173257 205.44051507432453718
0.080000000000012505552 260.93987832380577174 0.080000000000012505552 255.78162529385440394
0.100714032943542974863 326.17595212027646312 0.100714032943542974863 317.66518298508435691
0.126791455396883634421 407.07796539622142973 0.126791455396883634421 393.31733914129102914
0.159620985197506115583 507.06829242912323252 0.159620985197506115583 485.16804325606983639
0.200950914520774404082 630.13837519231731221 0.200950914520774404082 595.73653513394617676
0.252982212813464002465 780.84721506818561920 0.252982212813464002465 727.42412493960796382
0.318485736442809752589 964.25766131034015416 0.318485736442809752589 882.17587680409144468
0.400949786901833249431 1185.77505183360131014 0.400949786901833249431 1060.96766968103202089
0.504765875584169521062 1450.84263087244380586 0.504765875584169521062 1263.07886291541808532
0.635462587779443310865 1764.44079575849218600 0.635462587779443310865 1485.13631663286764706
0.800000000000011368684 2130.33987013651130837 0.800000000000011368684 1719.98596582395180121
1.007140329435344483500 2550.08272751559479730 1.007140329435344483500 1955.59499932916764919
1.267914553968907398485 3021.74568359002068973 1.267914553968907398485 2174.42866457987202011
1.596209851975117999245 3538.66462756434293624 1.596209851975117999245 2354.02644056551162066
2.009509145207687197399 4088.51231740144339710 2.009509145207687197399 2469.61814105692519661
2.529822128134725289783 4653.29546032144116907 2.529822128134725289783 2499.21783344083314660
3.184857364427983839050 5210.83648632043605176 3.184857364427983839050 2430.45022768519220335
4.009497869018204596614 5737.92407786216608656 4.009497869018204596614 2267.09797025216039401
5.009497869018190385759 6199.80295107553229172 5.009497869018190385759 2039.43120116635986960
6.009497869018190385759 6533.78424881256250956 6.009497869018190385759 1822.33276457195506737
7.009497869018204596614 6783.43597405745094875 7.009497869018204596614 1632.00112389094101673
8.009497869018190385759 6975.75865766709193849 8.009497869018190385759 1472.11592385445737818
9.009497869018204596614 7127.98427867328973662 9.009497869018204596614 1341.94250886436407200
10.009497869018190385759 7251.41141563385190238 10.009497869018190385759 1237.13315229600925704
11.009497869018190385759 7353.64908942165038752 11.009497869018190385759 1148.57261737652220290
12.009497869018204596614 7439.93884528737544315 12.009497869018204596614 1075.94829820094196293
13.009497869018190385759 7513.97465261018987803 13.009497869018190385759 1016.20755594299646418
14.009497869018204596614 7578.41359095704865467 14.009497869018204596614 966.83945534546899125
15.009497869018190385759 7635.20362337618553283 15.009497869018190385759 925.81566650202114488
16.009497869018190385759 7685.79837928586493945 16.009497869018190385759 891.51647621763470397
17.009497869018204596614 7731.30073057353547483 17.009497869018204596614 863.41914062841567556
18.009497869018190385759 7772.56059944177286525 18.009497869018190385759 838.84802203384879249
19.009497869018204596614 7810.24427896324141329 19.009497869018204596614 818.90152145351828494
20.009497869018190385759 7844.87702221213658049 20.009497869018190385759 800.77685719009355125
21.009497869018190385759 7876.88100904702514526 21.009497869018190385759 785.14720338525705756
22.009497869018204596614 7906.60165031799260760 22.009497869018204596614 771.57769887133838438
23.009497869018190385759 7934.31862653583903011 23.009497869018190385759 760.09030461470126738
24.009497869018204596614 7960.26656965461279469 24.009497869018204596614 749.63186691493319813
25.009497869018204596614 7984.64110930963852297 25.009497869018204596614 740.39253277354032434
26.009497869018190385759 8007.60701305364909786 26.009497869018190385759 732.58185083016178396
27.009497869018204596614 8029.30569126837053773 27.009497869018204596614 725.20229194091132285
28.009497869018190385759 8049.85720488064634992 28.009497869018190385759 718.58922163387615001
29.009497869018190385759 8069.36634731980848301 29.009497869018190385759 712.80503793814318669
30.009497869018190385759 8087.92374303502128896 30.009497869018190385759 707.38816169484914553
31.009497869018218807469 8105.60849998475168832 31.009497869018218807469 702.46272268161260399
32.009497869018190385759 8122.49129210764658637 32.009497869018190385759 697.97074357743019846
33.009497869018190385759 8138.63288279814423731 33.009497869018190385759 694.02267434795942336
34.009497869018218807469 8154.08939317955992010 34.009497869018218807469 690.21071383830212653
35.009497869018190385759 8168.90914495459219324 35.009497869018190385759 686.78625033925652588
36.009497869018190385759 8183.13622596062305092 36.009497869018190385759 683.51904849824006760
37.009497869018190385759 8196.81092085184718599 37.009497869018190385759 680.48336199235882304
38.009497869018218807469 8209.96834039524037507 38.009497869018218807469 677.65703239596768981
39.009497869018190385759 8222.64127973614631628 39.009497869018190385759 675.06573774132175458
40.009497869018190385759 8234.85957323961520160 40.009497869018190385759 672.73332193765918419
41.009497869018218807469 8246.64974694353804807 41.009497869018218807469 670.33587108045935565
42.009497869018190385759 8258.03666782550499192 42.009497869018190385759 668.17613334392069646
43.009497869018190385759 8269.04327062079573807 43.009497869018190385759 666.05118981359396457
44.009497869018218807469 8279.69000863091059728 44.009497869018218807469 664.11979793516070458
46.009497869018190385759 8299.97974543864802399 46.009497869018190385759 660.53603652307344873
48.009497869018218807469 8319.04309972317423671 48.009497869018218807469 657.23313058019914479
50.009497869018190385759 8336.99803043165229610 50.009497869018190385759 654.27143571636133856
52.009497869018190385759 8353.94660183654559660 52.009497869018190385759 651.55047320272649358
54.009497869018218807469 8369.97813931661221432 54.009497869018218807469 649.00571285218302364
56.009497869018190385759 8385.17070959195189062 56.009497869018190385759 646.65321080354169681
58.009497869018218807469 8399.59347969520240440 58.009497869018218807469 644.54824065092668661
60.009497869018190385759 8413.30760252932122967 60.009497869018190385759 642.50088859673121533
62.009497869018190385759 8426.36757821343599062 62.009497869018190385759 640.58823737346369853
64.009497869018218807469 8438.82224592697821208 64.009497869018218807469 638.79448404645313531
66.009497869018190385759 8450.71523204892582726 66.009497869018190385759 637.12511951582609981
68.009497869018190385759 8462.08612892310338793 68.009497869018190385759 635.56404588933878586
70.009497869018190385759 8472.97045407750556478 70.009497869018190385759 634.05586532156178237
72.009497869018190385759 8483.40055602501524845 72.009497869018190385759 632.64189948854857448
74.009497869018218807469 8493.40588642369766603 74.009497869018218807469 631.29210615335682633
76.009497869018190385759 8503.01313966340967454 76.009497869018190385759 630.00816288749149408
78.009497869018190385759 8512.24685268668326898 78.009497869018190385759 628.79070629500620271
80.009497869018218807469 8521.12947421929493430 80.009497869018218807469 627.62436268694455066
82.009497869018190385759 8529.68153737178909068 82.009497869018190385759 626.50768654355431408
84.009497869018218807469 8537.92204208653311071 84.009497869018218807469 625.42955287679069443
86.009497869018190385759 8545.86849302577320486 86.009497869018190385759 624.40959580034575538
88.009497869018190385759 8553.53698241802703706 88.009497869018190385759 623.41965414561298076
91.009497869018218807469 8564.55096289171706303 91.009497869018218807469 622.01359782921997521
94.009497869018218807469 8575.01890245368122123 94.009497869018218807469 620.68434064913810744
97.009497869018218807469 8584.98187055207381491 97.009497869018218807469 619.43605912980376615
99.504748934509137825444 8592.91068408656428801 99.504748934509137825444 618.26917537215183529
nan nan nan nan

