Time Pressure difference Time.1 Pressure.1 difference.1
(hr) (psi) (hr) (psi)
0.000200000000020850166 0.50485350093376502 0.000200000000020850166 0.40239444540728947
0.000399999999999067768 1.00952745242551312 0.000399999999999067768 1.05379097063293115
0.000600000000019917934 1.51405000297187708 0.000600000000019917934 1.54203826341321526
0.000799999999998135536 2.01843317038629433 0.000799999999998135536 2.03924779710731752
0.001007140329434719206 2.54068591975913716 0.001007140329434719206 2.56136419500714485
0.001267914553977789183 3.19797267363881010 0.001267914553977789183 3.22353319950301209
0.001596209851982166583 4.02515833134077194 0.001596209851982166583 4.05661785290290577
0.002009509145224797066 5.06608336064252729 0.002009509145224797066 5.10459081838910045
0.002529822128153114136 6.37586037059547106 0.002529822128153114136 6.42266126730057785
0.003184857364431081805 8.02375071392818739 0.003184857364431081805 8.08010486260671357
0.004009497869034817086 10.09676348504556920 0.004009497869034817086 10.16378402029187811
0.005047658755856332391 12.70415195002425968 0.005047658755856332391 12.78251443422303701
0.006354625877790454069 15.98302133269171854 0.006354625877790454069 16.07246210004538867
0.008000000000009777068 20.10530739935000355 0.008000000000009777068 20.20378420566474276
0.010071403294361402914 25.28643734054539394 0.010071403294361402914 25.38875416229794268
0.012679145539692626699 31.79604197411261879 0.012679145539692626699 31.89163016330770617
0.015962098519750611558 39.97114854811402296 0.015962098519750611558 40.04052849171502260
0.020095091452091651263 50.23234086925600650 0.020095091452091651263 50.24153194991674809
0.025298221281360611101 63.10341811216207475 0.025298221281360611101 62.99517593933219217
0.031848573644296607199 79.23509849906014324 0.031848573644296607199 78.91527262810126331
0.040094978690191851456 99.43327156625083774 0.040094978690191851456 98.74970192967042237
0.050476587558435426217 124.69215999208773837 0.050476587558435426217 123.40223697595997976
0.063546258777947173257 156.23244410431604479 0.063546258777947173257 153.95357117298146932
0.080000000000012505552 195.54383474388902187 0.080000000000012505552 191.67832907823409982
0.100714032943542974863 244.43062090988618706 0.100714032943542974863 238.05279761968668595
0.126791455396883634421 305.05719135247704799 0.126791455396883634421 294.74521587501686781
0.159620985197506115583 379.98821420305904439 0.159620985197506115583 363.57654599559805320
0.200950914520774404082 472.21480708856375941 0.200950914520774404082 446.43466274852505649
0.252982212813464002465 585.15340684739339849 0.252982212813464002465 545.11906646708894186
0.318485736442809752589 722.59802520416849347 0.318485736442809752589 661.08735459269564672
0.400949786901833249431 888.59932896666168745 0.400949786901833249431 795.07083394615597172
0.504765875584169521062 1087.23639128342392723 0.504765875584169521062 946.52946887612188220
0.635462587779443310865 1322.24143583383306577 0.635462587779443310865 1112.93548666191441043
0.800000000000011368684 1596.43987799118826842 0.800000000000011368684 1288.92775463597376984
1.007140329435344483500 1910.98792049625421896 1.007140329435344483500 1465.48909208988243336
1.267914553968907398485 2264.44398757918861520 1.267914553968907398485 1629.47925851849663559
1.596209851975117999245 2651.81410979204474643 1.596209851975117999245 1764.06672768304360943
2.009509145207687197399 3063.86046501564987921 2.009509145207687197399 1850.68915015006632530
2.529822128134725289783 3487.09919063594361432 2.529822128134725289783 1872.87064802294526089
3.184857364427983839050 3904.91079900803015335 3.184857364427983839050 1821.33739284556986604
4.009497869018204596614 4299.90112995349954872 4.009497869018204596614 1698.92403449760649892
5.009497869018190385759 4646.02517444796103518 5.009497869018190385759 1528.31449272590202781
6.009497869018190385759 4896.30498645583429607 6.009497869018190385759 1365.62467666071188432
7.009497869018204596614 5083.38967438626241346 7.009497869018204596614 1222.99343481703840553
8.009497869018190385759 5227.51296938756149757 8.009497869018190385759 1103.17822935759954817
9.009497869018204596614 5341.58821870949032018 9.009497869018204596614 1005.62852207489993361
10.009497869018190385759 5434.08238183919456787 10.009497869018190385759 927.08620178231819864
11.009497869018190385759 5510.69752750486713921 11.009497869018190385759 860.72046758956662416
12.009497869018204596614 5575.36157912276212301 12.009497869018204596614 806.29705803453316548
13.009497869018190385759 5630.84273349924023933 13.009497869018190385759 761.52837834246770399
14.009497869018204596614 5679.13216013694909634 14.009497869018204596614 724.53277703049343472
15.009497869018190385759 5721.68962887573434273 15.009497869018190385759 693.79025872435408928
16.009497869018190385759 5759.60446447718550189 16.009497869018190385759 668.08703835074595645
17.009497869018204596614 5793.70314007177239546 17.009497869018204596614 647.03138069314616132
18.009497869018190385759 5824.62257266809410794 18.009497869018190385759 628.61820910437802468
19.009497869018204596614 5852.86207077862673032 19.009497869018204596614 613.67064632380925104
20.009497869018190385759 5878.81524997872475069 20.009497869018190385759 600.08833619060101228
21.009497869018190385759 5902.79848455746196123 21.009497869018190385759 588.37574377142095727
22.009497869018204596614 5925.07061943582903041 22.009497869018204596614 578.20699162333619370
23.009497869018190385759 5945.84124235463514196 23.009497869018190385759 569.59853691496755346
24.009497869018204596614 5965.28618244487643096 24.009497869018204596614 561.76116446588207509
25.009497869018204596614 5983.55204117401262920 25.009497869018204596614 554.83736715251723126
26.009497869018190385759 6000.76229249822790734 26.009497869018190385759 548.98417710359046850
27.009497869018204596614 6017.02290691345842788 27.009497869018204596614 543.45406321991742971
28.009497869018190385759 6032.42385600315174088 28.009497869018190385759 538.49834263180594007
29.009497869018190385759 6047.04367015200568858 29.009497869018190385759 534.16377534376908898
30.009497869018190385759 6060.95026175587372563 30.009497869018190385759 530.10446191206597177
31.009497869018218807469 6074.20291295153583633 31.009497869018218807469 526.41342304659121965
32.009497869018190385759 6086.85458556708817923 32.009497869018190385759 523.04721154506182756
33.009497869018190385759 6098.95081464009126648 33.009497869018190385759 520.08859670273011488
34.009497869018218807469 6110.53365637036131375 34.009497869018218807469 517.23197938253019856
35.009497869018190385759 6121.63932220671267714 35.009497869018190385759 514.66574562460334619
36.009497869018190385759 6132.30085081246670597 36.009497869018190385759 512.21736103510090743
37.009497869018190385759 6142.54843081119906856 37.009497869018190385759 509.94247003624911940
38.009497869018218807469 6152.40837360482873919 38.009497869018218807469 507.82446748685487137
39.009497869018190385759 6161.90525530844570312 39.009497869018190385759 505.88259606047199668
40.009497869018190385759 6171.06143327956306166 40.009497869018190385759 504.13472397056682439
41.009497869018218807469 6179.89678567250302876 41.009497869018218807469 502.33811573560353736
42.009497869018190385759 6188.42994737047229137 42.009497869018190385759 500.71964560464181204
43.009497869018190385759 6196.67810526768244017 43.009497869018190385759 499.12724965043406655
44.009497869018218807469 6204.65658671476921882 44.009497869018218807469 497.67989795881794635
46.009497869018190385759 6219.86136479167817015 46.009497869018190385759 494.99428909815509314
48.009497869018218807469 6234.14711300242834113 48.009497869018218807469 492.51914847182814583
50.009497869018190385759 6247.60222774322664918 50.009497869018190385759 490.29970553065595595
52.009497869018190385759 6260.30319421578133188 52.009497869018190385759 488.26066325191976603
54.009497869018218807469 6272.31695131504147867 54.009497869018218807469 486.35366382873468183
56.009497869018190385759 6283.70200089174704772 56.009497869018190385759 484.59073945401212313
58.009497869018218807469 6294.51017552467510541 58.009497869018218807469 483.01331120384264750
60.009497869018190385759 6304.78730214234292362 60.009497869018190385759 481.47906096076036420
62.009497869018190385759 6314.57422219204363500 62.009497869018190385759 480.04575319221288510
64.009497869018218807469 6323.90753491071063763 64.009497869018218807469 478.70154545209516073
66.009497869018190385759 6332.81993315271301981 66.009497869018190385759 477.45055252605737905
68.009497869018190385759 6341.34108673620266927 68.009497869018190385759 476.28071093188719942
70.009497869018190385759 6349.49761188277170731 70.009497869018190385759 475.15050648171359171
72.009497869018190385759 6357.31375000887055648 72.009497869018190385759 474.09090492536915917
74.009497869018218807469 6364.81157167800574825 74.009497869018218807469 473.07939312973769574
76.009497869018190385759 6372.01108120455501194 76.009497869018190385759 472.11722823791023984
78.009497869018190385759 6378.93066614915642276 78.009497869018190385759 471.20488730996146387
80.009497869018218807469 6385.58714919890462625 80.009497869018218807469 470.33084956910533947
82.009497869018190385759 6391.99591751194566314 82.009497869018190385759 469.49403176782402625
84.009497869018218807469 6398.17120931669705897 84.009497869018218807469 468.68609703236046471
86.009497869018190385759 6404.12614230449889874 86.009497869018190385759 467.92175882816030708
88.009497869018190385759 6409.87277571326285397 88.009497869018190385759 467.17991366220621785
91.009497869018218807469 6418.12646231515191175 91.009497869018218807469 466.12623936090932375
94.009497869018218807469 6425.97095529553735105 94.009497869018218807469 465.13011700497145284
97.009497869018218807469 6433.43703138902310457 97.009497869018218807469 464.19467640961835286
99.504748934509137825444 6439.37874721054777183 99.504748934509137825444 463.32023388999522240
nan nan nan nan

