Time Pressure difference Time.1 Pressure.1 difference.1
(hr) (psi) (hr) (psi)
0.000200000000020850166 0.12059927122799986 0.000200000000020850166 0.09612387905116471
0.000399999999999067768 0.24115565173261841 0.000399999999999067768 0.25172930929452225
0.000600000000019917934 0.36167586561931170 0.000600000000019917934 0.36836169389607282
0.000799999999998135536 0.48216278370018562 0.000799999999998135536 0.48713497624474644
0.001007140329434719206 0.60691838280901955 0.001007140329434719206 0.61185800374964749
0.001267914553977789183 0.76393086932063836 0.001267914553977789183 0.77003676100154328
0.001596209851982166583 0.96152876119342989 0.001596209851982166583 0.96904380341173202
0.002009509145224797066 1.21018465781411289 0.002009509145224797066 1.21938330917037829
0.002529822128153114136 1.52306384470567258 0.002529822128153114136 1.53424363057427304
0.003184857364431081805 1.91671145555121458 0.003184857364431081805 1.93017331973306994
0.004009497869034817086 2.41191219988732675 0.004009497869034817086 2.42792204768092645
0.005047658755856332391 3.03476446911617392 0.005047658755856332391 3.05348367868589810
0.006354625877790454069 3.81801992296589709 0.006354625877790454069 3.83938550989552185
0.008000000000009777068 4.80275053196993529 0.008000000000009777068 4.82627464550475782
0.010071403294361402914 6.04041748662122213 0.010071403294361402914 6.06485890203163347
0.012679145539692626699 7.59543012561174624 0.012679145539692626699 7.61826420705044161
0.015962098519750611558 9.54829742912114021 0.015962098519750611558 9.56487089176058980
0.020095091452091651263 11.99948834603314829 0.020095091452091651263 12.00168390895869486
0.025298221281360611101 15.07412788511285129 0.025298221281360611101 15.04827102339895895
0.031848573644296607199 18.92765944376230891 0.031848573644296607199 18.85125952401101301
0.040094978690191851456 23.75259370198743269 0.040094978690191851456 23.58930276738420417
0.050476587558435426217 29.78643031112474659 0.050476587558435426217 29.47829384104480255
0.063546258777947173257 37.32076506610515310 0.063546258777947173257 36.77638850095932810
0.080000000000012505552 46.71145969994053360 0.080000000000012505552 45.78806872544307538
0.100714032943542974863 58.38952229313591857 0.100714032943542974863 56.86598954671263328
0.126791455396883634421 72.87198145981741959 0.126791455396883634421 70.40865947591011320
0.159620985197506115583 90.77148444718874032 0.159620985197506115583 86.85106947176558378
0.200950914520774404082 112.80254864553829464 0.200950914520774404082 106.64419456101505546
0.252982212813464002465 139.78129158628013329 0.252982212813464002465 130.21789890894217478
0.318485736442809752589 172.61402579012261072 0.318485736442809752589 157.92037300813981915
0.400949786901833249431 212.26837347638539200 0.400949786901833249431 189.92631123919707647
0.504765875584169521062 259.71874256358557886 0.504765875584169521062 226.10671002806867591
0.635462587779443310865 315.85668566047087324 0.635462587779443310865 265.85773569353807488
0.800000000000011368684 381.35713724665947666 0.800000000000011368684 307.89872227712720587
1.007140329435344483500 456.49629072810029129 1.007140329435344483500 350.07564802806092530
1.267914553968907398485 540.92978286488016693 1.267914553968907398485 389.24957575812521782
1.596209851975117999245 633.46465555164161287 1.596209851975117999245 421.39979491604833584
2.009509145207687197399 731.89418027556712332 2.009509145207687197399 442.09213636204219711
2.529822128134725289783 832.99733548964070451 2.529822128134725289783 447.39084672706275114
3.184857364427983839050 932.80406236600401826 3.184857364427983839050 435.08059631401584966
4.009497869018204596614 1027.15924850619035169 4.009497869018204596614 405.83852553896696236
5.009497869018190385759 1109.84126901969398205 5.009497869018190385759 365.08336317175576369
6.009497869018190385759 1169.62804454052047731 6.009497869018190385759 326.22006279374505766
7.009497869018204596614 1214.31878547942005753 7.009497869018204596614 292.14834933850175958
8.009497869018190385759 1248.74692019966437329 8.009497869018190385759 263.52692464061271949
9.009497869018204596614 1275.99718568842831701 9.009497869018204596614 240.22427627818859719
10.009497869018190385759 1298.09216699618332314 10.009497869018190385759 221.46210750977945736
11.009497869018190385759 1316.39397279770287241 11.009497869018190385759 205.60867841925397670
12.009497869018204596614 1331.84090440329555349 12.009497869018204596614 192.60802869029208750
13.009497869018190385759 1345.09422793639191696 13.009497869018190385759 181.91369828609194315
14.009497869018204596614 1356.62959344292835340 14.009497869018204596614 173.07619879641111993
15.009497869018190385759 1366.79571035746516827 15.009497869018190385759 165.73243412690501941
16.009497869018190385759 1375.85279629191381900 16.009497869018190385759 159.59245561920621981
17.009497869018204596614 1383.99827892983034872 17.009497869018204596614 154.56268566804973830
18.009497869018190385759 1391.38430483834213192 18.009497869018190385759 150.16415209247909957
19.009497869018204596614 1398.13014870329652695 19.009497869018204596614 146.59348223550634316
20.009497869018190385759 1404.32983730958017077 20.009497869018190385759 143.34894357106611551
21.009497869018190385759 1410.05894606397350799 21.009497869018190385759 140.55104258131143524
22.009497869018204596614 1415.37930777297424356 22.009497869018204596614 138.12193374857289996
23.009497869018190385759 1420.34098870086017996 23.009497869018190385759 136.06554835695271777
24.009497869018204596614 1424.98599086409740266 24.009497869018204596614 134.19335889217938984
25.009497869018204596614 1429.34933438258963179 25.009497869018204596614 132.53940401501648694
26.009497869018190385759 1433.46051468244309035 26.009497869018190385759 131.14119551897957194
27.009497869018204596614 1437.34484596779475396 27.009497869018204596614 129.82016337213843826
28.009497869018190385759 1441.02382062678248076 28.009497869018190385759 128.63634214433588454
29.009497869018190385759 1444.51619797700300296 29.009497869018190385759 127.60090185312439814
30.009497869018190385759 1447.83820091367670102 30.009497869018190385759 126.63121413055942810
31.009497869018218807469 1451.00399073801099803 31.009497869018218807469 125.74949973930102942
32.009497869018190385759 1454.02621895754168690 32.009497869018190385759 124.94538002312022229
33.009497869018190385759 1456.91576297003825857 33.009497869018190385759 124.23862688944953447
34.009497869018218807469 1459.68266914942728363 34.009497869018218807469 123.55623889698000539
35.009497869018190385759 1462.33558767705653736 35.009497869018190385759 122.94321765332369978
36.009497869018190385759 1464.88241082011131766 36.009497869018190385759 122.35834818795656531
37.009497869018190385759 1467.33035002903443456 37.009497869018190385759 121.81492282579260689
38.009497869018218807469 1469.68569056457999977 38.009497869018218807469 121.30897493508064144
39.009497869018190385759 1471.95430316264355497 39.009497869018190385759 120.84510120060697602
40.009497869018190385759 1474.14152854289409333 40.009497869018190385759 120.42756997649455286
41.009497869018218807469 1476.25211519359640988 41.009497869018218807469 119.99839667489703743
42.009497869018190385759 1478.29051461073891005 42.009497869018190385759 119.61177695662779286
43.009497869018190385759 1480.26083239508056977 43.009497869018190385759 119.23138583082855746
44.009497869018218807469 1482.16672994010127695 44.009497869018218807469 118.88564284024482731
46.009497869018190385759 1485.79884331926405139 46.009497869018190385759 118.24410530351315174
48.009497869018218807469 1489.21141908624713324 48.009497869018218807469 117.65284436312205685
50.009497869018190385759 1492.42557334887624165 50.009497869018190385759 117.12266441836098352
52.009497869018190385759 1495.45957687197437735 52.009497869018190385759 116.63557853629053795
54.009497869018218807469 1498.32942000112188907 54.009497869018218807469 116.18003501674880340
56.009497869018190385759 1501.04907764300378403 56.009497869018190385759 115.75890810680684240
58.009497869018218807469 1503.63093155037563520 58.009497869018218807469 115.38209246220293380
60.009497869018190385759 1506.08592884784138732 60.009497869018190385759 115.01559116855065668
62.009497869018190385759 1508.42382572956557851 62.009497869018190385759 114.67320298660770561
64.009497869018218807469 1510.65336501161959859 64.009497869018218807469 114.35209899597001026
66.009497869018190385759 1512.78235635443706997 66.009497869018190385759 114.05326213554910453
68.009497869018190385759 1514.81788727635807845 68.009497869018190385759 113.77381068389397001
70.009497869018190385759 1516.76631585338031982 70.009497869018190385759 113.50382774274871167
72.009497869018190385759 1518.63343286867575443 72.009497869018190385759 113.25071040227103936
74.009497869018218807469 1520.42451053263744143 74.009497869018218807469 113.00908073115645891
76.009497869018190385759 1522.14432747061027840 76.009497869018190385759 112.77923903541511663
78.009497869018190385759 1523.79727609823339662 78.009497869018190385759 112.56129927503198473
80.009497869018218807469 1525.38737501456535028 80.009497869018218807469 112.35250936988514070
82.009497869018190385759 1526.91829989988809757 82.009497869018190385759 112.15261055409305868
84.009497869018218807469 1528.39345197845341318 84.009497869018218807469 111.95961131745018236
86.009497869018190385759 1529.81596480091025114 86.009497869018190385759 111.77702640870386119
88.009497869018190385759 1531.18871907483207906 88.009497869018190385759 111.59981463100477583
91.009497869018218807469 1533.16035755469033575 91.009497869018218807469 111.34811319165048360
94.009497869018218807469 1535.03424797010370639 94.009497869018218807469 111.11015974583338561
97.009497869018218807469 1536.81774225932167610 97.009497869018218807469 110.88670194298956062
99.504748934509137825444 1538.23709776858231635 99.504748934509137825444 110.67781534439754410
nan nan nan nan

