Time Pressure difference Time.1 Pressure.1 difference.1
(hr) (psi) (hr) (psi)
0.000200000000020850166 0.03493220270052410 0.000200000000020850166 0.02784277875964771
0.000399999999999067768 0.06985198188117223 0.000399999999999067768 0.07291469648530990
0.000600000000019917934 0.10476128521386958 0.000600000000019917934 0.10669786995610385
0.000799999999998135536 0.13966094424419170 0.000799999999998135536 0.14110116553296104
0.001007140329434719206 0.17579704881364705 0.001007140329434719206 0.17722783556886340
0.001267914553977789183 0.22127652766528835 0.001267914553977789183 0.22304513077286078
0.001596209851982166583 0.27851177910430380 0.001596209851982166583 0.28068854995374309
0.002009509145224797066 0.35053624571167408 0.002009509145224797066 0.35320068265624749
0.002529822128153114136 0.44116332053543622 0.002529822128153114136 0.44440160333875495
0.003184857364431081805 0.55518538712517940 0.003184857364431081805 0.55908468571578573
0.004009497869034817086 0.69862284410529463 0.004009497869034817086 0.70326017932826834
0.005047658755856332391 0.87903522553709867 0.005047658755856332391 0.88445734141246712
0.006354625877790454069 1.10590921906598383 0.006354625877790454069 1.11209787183180620
0.008000000000009777068 1.39114153339818825 0.008000000000009777068 1.39795541455999861
0.010071403294361402914 1.74963816853856091 0.010071403294361402914 1.75671775093330096
0.012679145539692626699 2.20005562259098841 0.012679145539692626699 2.20666963238702429
0.015962098519750611558 2.76571373809026166 0.015962098519750611558 2.77051432726858460
0.020095091452091651263 3.47571386574753260 0.020095091452091651263 3.47634982190527753
0.025298221281360611101 4.36629911154992989 0.025298221281360611101 4.35880953781211211
0.031848573644296607199 5.48249445957253023 0.031848573644296607199 5.46036482764456821
0.040094978690191851456 6.88006162402394583 0.040094978690191851456 6.83276356020783826
0.050476587558435426217 8.62779360736027101 0.050476587558435426217 8.53854028499228868
0.063546258777947173257 10.81015263983735331 0.063546258777947173257 10.65247115200201300
0.080000000000012505552 13.53021591308622540 0.080000000000012505552 13.26275094116282105
0.100714032943542974863 16.91282714697729972 0.100714032943542974863 16.47152800663400285
0.126791455396883634421 21.10774635387814868 0.126791455396883634421 20.39423239991879200
0.159620985197506115583 26.29242997780638902 0.159620985197506115583 25.15686150216658490
0.200950914520774404082 32.67384167663868055 0.200950914520774404082 30.89004256250090918
0.252982212813464002465 40.48837411464666047 0.252982212813464002465 37.71828795983152105
0.318485736442809752589 49.99854540127689972 0.318485736442809752589 45.74245287132325899
0.400949786901833249431 61.48463231729784439 0.400949786901833249431 55.01313842790536057
0.504765875584169521062 75.22887715634892913 0.504765875584169521062 65.49297807709575636
0.635462587779443310865 91.48952274303293564 0.635462587779443310865 77.00706826985241094
0.800000000000011368684 110.46206734041170705 0.800000000000011368684 89.18445748716787591
1.007140329435344483500 132.22651179710490510 1.007140329435344483500 101.40122218743832150
1.267914553968907398485 156.68310951948257070 1.267914553968907398485 112.74815297821558602
1.596209851975117999245 183.48631402185480965 1.596209851975117999245 122.06063025154502100
2.009509145207687197399 211.99693497637116479 2.009509145207687197399 128.05427398072947653
2.529822128134725289783 241.28198683148212922 2.529822128134725289783 129.58907284508023849
3.184857364427983839050 270.19152151291149266 3.184857364427983839050 126.02334513923219106
4.009497869018204596614 297.52198922248265944 4.009497869018204596614 117.55322808714905136
5.009497869018190385759 321.47126412984243871 5.009497869018190385759 105.74828450492236698
6.009497869018190385759 338.78881290139207749 6.009497869018190385759 94.49132853336062965
7.009497869018204596614 351.73371717334930509 7.009497869018204596614 84.62228049804879504
8.009497869018190385759 361.70600447162695446 8.009497869018190385759 76.33193679245333385
9.009497869018204596614 369.59918482009646823 9.009497869018204596614 69.58220416333738001
10.009497869018190385759 375.99911044027379603 10.009497869018190385759 64.14764493386715571
11.009497869018190385759 381.30032315519667918 11.009497869018190385759 59.55561719730115300
12.009497869018204596614 385.77460679267875321 12.009497869018204596614 55.78991175856736362
13.009497869018190385759 389.61350050571348902 13.009497869018190385759 52.69224364148870166
14.009497869018204596614 392.95477879036548075 14.009497869018204596614 50.13241620309839419
15.009497869018190385759 395.89944713802447041 15.009497869018190385759 48.00525678158628295
16.009497869018190385759 398.52287892593375318 16.009497869018190385759 46.22678024832180199
17.009497869018204596614 400.88226010381293918 17.009497869018204596614 44.76988136591785405
18.009497869018190385759 403.02166071179561868 18.009497869018190385759 43.49582336471808475
19.009497869018204596614 404.97562927957551437 19.009497869018204596614 42.46156037166390718
20.009497869018190385759 406.77140115174046286 20.009497869018190385759 41.52176296541225753
21.009497869018190385759 408.43086713577162072 21.009497869018190385759 40.71133647182814030
22.009497869018204596614 409.97193742389589488 22.009497869018204596614 40.00773253406939745
23.009497869018190385759 411.40911396852499138 23.009497869018190385759 39.41208986891044219
24.009497869018204596614 412.75456287097995300 24.009497869018204596614 38.86980050670023701
25.009497869018204596614 414.01842789012937374 25.009497869018204596614 38.39072392159097546
26.009497869018190385759 415.20925252870767963 26.009497869018190385759 37.98572559860097897
27.009497869018204596614 416.33436917687856749 27.009497869018204596614 37.60308180434355307
28.009497869018190385759 417.40000321603349676 28.009497869018190385759 37.26018186249729069
29.009497869018190385759 418.41158837954566252 29.009497869018190385759 36.96026122642224010
30.009497869018190385759 419.37382371292704875 30.009497869018190385759 36.67938616195514356
31.009497869018218807469 420.29081111032047602 31.009497869018218807469 36.42399302793546667
32.009497869018190385759 421.16621514632242906 32.009497869018190385759 36.19107559290379328
33.009497869018190385759 422.00318651545933335 33.009497869018190385759 35.98636089211641576
34.009497869018218807469 422.80463520190312465 34.009497869018218807469 35.78870368050456108
35.009497869018190385759 423.57306677542328543 35.009497869018190385759 35.61113890647996527
36.009497869018190385759 424.31076727203230803 36.009497869018190385759 35.44172844064949146
37.009497869018190385759 425.01982552565129936 37.009497869018190385759 35.28432247367786090
38.009497869018218807469 425.70206209456802071 38.009497869018218807469 35.13777205016128846
39.009497869018190385759 426.35917746780017978 39.009497869018190385759 35.00340862362408956
40.009497869018190385759 426.99271861242448267 40.009497869018190385759 34.88246854491566751
41.009497869018218807469 427.60406095262788995 41.009497869018218807469 34.75815627824604093
42.009497869018190385759 428.19449388724848404 42.009497869018190385759 34.64616987709219131
43.009497869018190385759 428.76520662478196755 43.009497869018190385759 34.53598761996413202
44.009497869018218807469 429.31725970678797921 44.009497869018218807469 34.43584137441573745
46.009497869018190385759 430.36932013385580831 46.009497869018190385759 34.25001670860380898
48.009497869018218807469 431.35779035601643727 48.009497869018218807469 34.07875491897328146
50.009497869018190385759 432.28878676312274365 50.009497869018190385759 33.92518555566318383
52.009497869018190385759 433.16760157670978515 52.009497869018190385759 33.78409861051174090
54.009497869018218807469 433.99886648308358872 54.009497869018218807469 33.65214807381689610
56.009497869018190385759 434.78662938624933076 56.009497869018190385759 33.53016648610957162
58.009497869018218807469 435.53447672493638265 58.009497869018218807469 33.42101988560360581
60.009497869018190385759 436.24557939040926158 60.009497869018190385759 33.31486089020088315
62.009497869018190385759 436.92276331477074791 62.009497869018190385759 33.21568638232774617
64.009497869018218807469 437.56856089991742920 64.009497869018218807469 33.12267695055682992
66.009497869018190385759 438.18523425438871755 66.009497869018190385759 33.03611730822802173
68.009497869018190385759 438.77483631453128510 68.009497869018190385759 32.95517274981756373
70.009497869018190385759 439.33920872994468709 70.009497869018190385759 32.87697079445134563
72.009497869018190385759 439.88002883092678985 72.009497869018190385759 32.80365404755437453
74.009497869018218807469 440.39882374048806923 74.009497869018218807469 32.73366476350739163
76.009497869018190385759 440.89697761217672678 76.009497869018190385759 32.66708992749955343
78.009497869018190385759 441.37576273190211396 78.009497869018190385759 32.60396254862995136
80.009497869018218807469 441.83634310766717590 80.009497869018218807469 32.54348547265638558
82.009497869018190385759 442.27978341927791917 82.009497869018190385759 32.48558374670282234
84.009497869018218807469 442.70706884893132838 84.009497869018218807469 32.42968051953729258
86.009497869018190385759 443.11910704578082232 86.009497869018190385759 32.37679385631422235
88.009497869018190385759 443.51673242167549915 88.009497869018190385759 32.32546354829104018
91.009497869018218807469 444.08782770549652241 91.009497869018218807469 32.25255692447807121
94.009497869018218807469 444.63060975685760923 94.009497869018218807469 32.18363247810345484
97.009497869018218807469 445.14720810270006268 97.009497869018218807469 32.11890676969353109
99.504748934509137825444 445.55833176745142055 99.504748934509137825444 32.05840168596342465
nan nan nan nan

