Time Pressure difference Time.1 Pressure.1 difference.1
(hr) (psi) (hr) (psi)
0.000200000000020850166 0.74355688605401304 0.000200000000020850166 0.59265343359821554
0.000399999999999067768 1.48684932861352315 0.000399999999999067768 1.55204139661588192
0.000600000000019917934 2.22991878526665221 0.000600000000019917934 2.27114037477992481
0.000799999999998135536 2.97278295605493792 0.000799999999998135536 3.00343909491588468
0.001007140329434719206 3.74196575331905867 0.001007140329434719206 3.77242107139437843
0.001267914553977789183 4.71002894601828004 0.001267914553977789183 4.74767492645089462
0.001596209851982166583 5.92832215522018213 0.001596209851982166583 5.97465627758681705
0.002009509145224797066 7.46141437300563393 0.002009509145224797066 7.51812881654012521
0.002529822128153114136 9.39047639425428393 0.002529822128153114136 9.45940555678206962
0.003184857364431081805 11.81751752595024740 0.003184857364431081805 11.90051688166458277
0.004009497869034817086 14.87068625309841607 0.004009497869034817086 14.96939524570171010
0.005047658755856332391 18.71089265786110190 0.005047658755856332391 18.82630626720822775
0.006354625877790454069 23.54006766297594311 0.006354625877790454069 23.67179755756273352
0.008000000000009777068 29.61144121090428882 0.008000000000009777068 29.75647953849139782
0.010071403294361402914 37.24229815889222550 0.010071403294361402914 37.39299212700883857
0.012679145539692626699 46.82975539515103947 0.012679145539692626699 46.97053931795237247
0.015962098519750611558 58.87019242506414685 0.015962098519750611558 58.97237639471701698
0.020095091452091651263 73.98305228519748766 0.020095091452091651263 73.99658906626947896
0.025298221281360611101 92.93979537441992989 0.025298221281360611101 92.78037444771494791
0.031848573644296607199 116.69881063947244115 0.031848573644296607199 116.22776561700581510
0.040094978690191851456 146.44702599708111279 0.040094978690191851456 145.44025292442398722
0.050476587558435426217 183.64874964238291000 0.050476587558435426217 181.74892892340727713
0.063546258777947173257 230.10182047653796644 0.063546258777947173257 226.74545737832858094
0.080000000000012505552 288.00031014997824741 0.080000000000012505552 282.30712717618007446
0.100714032943542974863 360.00160641423110519 0.100714032943542974863 350.60823899835236261
0.126791455396883634421 449.29345810397774130 0.126791455396883634421 434.10580394112861313
0.159620985197506115583 559.65315238473601767 0.159620985197506115583 535.48176626040299197
0.200950914520774404082 695.48605854559468753 0.200950914520774404082 657.51662025894790986
0.252982212813464002465 861.82396329747894015 0.252982212813464002465 802.86070085927099171
0.318485736442809752589 1064.25475211289403887 0.318485736442809752589 973.66078254673800529
0.400949786901833249431 1308.74431646819675734 0.400949786901833249431 1170.99394653684248624
0.504765875584169521062 1601.30038518514152202 0.504765875584169521062 1394.06481906960971173
0.635462587779443310865 1947.41984124455802885 0.635462587779443310865 1639.15045317257249735
0.800000000000011368684 2351.26400481733526249 0.800000000000011368684 1898.35488079828746777
1.007140329435344483500 2814.53575110980455065 1.007140329435344483500 2158.39744370404469009
1.267914553968907398485 3335.11190262898571746 1.267914553968907398485 2399.92497053630313530
1.596209851975117999245 3905.63725560805232817 1.596209851975117999245 2598.14770106860169108
2.009509145207687197399 4512.50618735418629512 2.009509145207687197399 2725.72668901838460442
2.529822128134725289783 5135.85943398440576857 2.529822128134725289783 2758.39597913099396465
3.184857364427983839050 5751.21952934625915077 3.184857364427983839050 2682.49691796365596019
4.009497869018204596614 6332.96805630713151913 4.009497869018204596614 2502.20442642645821252
5.009497869018190385759 6842.74547933521807863 5.009497869018190385759 2250.92777017620483093
6.009497869018190385759 7211.36187461534609611 6.009497869018190385759 2011.31542163867607087
7.009497869018204596614 7486.90340840414864942 7.009497869018204596614 1801.24568488703857838
8.009497869018190385759 7699.17066661034550634 8.009497869018190385759 1624.77979743936384693
9.009497869018204596614 7867.18264831348369626 9.009497869018204596614 1481.10691719103874675
10.009497869018190385759 8003.40963651439960813 10.009497869018190385759 1365.42844216374373900
11.009497869018190385759 8116.24973573204351851 11.009497869018190385759 1267.68385177112463680
12.009497869018204596614 8211.48805887273374537 12.009497869018204596614 1187.52812171807681807
13.009497869018190385759 8293.20165362161606026 13.009497869018190385759 1121.59204322597383907
14.009497869018204596614 8364.32314853777825192 14.009497869018204596614 1067.10428775166565174
15.009497869018190385759 8427.00251765223401890 15.009497869018190385759 1021.82618006519385290
16.009497869018190385759 8482.84413713773210475 16.009497869018190385759 983.97003671427830795
17.009497869018204596614 8533.06525078116101213 17.009497869018204596614 952.95890336025149736
18.009497869018190385759 8578.60392086536376155 18.009497869018190385759 925.83966876328486251
19.009497869018204596614 8620.19553752239153255 19.009497869018204596614 903.82464219684607087
20.009497869018190385759 8658.41982451561852940 20.009497869018190385759 883.82038312091810894
21.009497869018190385759 8693.74274331856759090 21.009497869018190385759 866.56987632891332396
22.009497869018204596614 8726.54552516578587529 22.009497869018204596614 851.59316393947710822
23.009497869018190385759 8757.13685447288844443 23.009497869018190385759 838.91448435252220861
24.009497869018204596614 8785.77569539657270070 24.009497869018204596614 827.37146792833368636
25.009497869018204596614 8812.67796508989522408 25.009497869018204596614 817.17398061672224685
26.009497869018190385759 8838.02551811106422974 26.009497869018190385759 808.55330202736377032
27.009497869018204596614 8861.97442962212880957 27.009497869018204596614 800.40845554959844321
28.009497869018190385759 8884.65721131271311606 28.009497869018190385759 793.10958535887073140
29.009497869018190385759 8906.18952407889992173 29.009497869018190385759 786.72556039098765268
30.009497869018190385759 8926.67139046087504539 30.009497869018190385759 780.74693401875947529
31.009497869018218807469 8946.19012220539116242 31.009497869018218807469 775.31070873748365102
32.009497869018190385759 8964.82372240029144450 32.009497869018190385759 770.35289476323782765
33.009497869018190385759 8982.63925582906267664 33.009497869018190385759 765.99539613219235434
34.009497869018218807469 8999.69866358336730627 34.009497869018218807469 761.78812119931126290
35.009497869018190385759 9016.05527850543876411 35.009497869018190385759 758.00852815221639958
36.009497869018190385759 9031.75776050468630274 36.009497869018190385759 754.40250537953920684
37.009497869018190385759 9046.85057190315092157 37.009497869018190385759 751.05200693971448800
38.009497869018218807469 9061.37246458437584806 38.009497869018218807469 747.93257649629026673
39.009497869018190385759 9075.35963467174588004 39.009497869018190385759 745.07255498856989107
40.009497869018190385759 9088.84501046446348482 40.009497869018190385759 742.49825902749057605
41.009497869018218807469 9101.85786884879416903 41.009497869018218807469 739.85218363695139487
42.009497869018190385759 9114.42565560000184632 42.009497869018190385759 737.46847309810505067
43.009497869018190385759 9126.57368387035967316 43.009497869018190385759 735.12316505352225704
44.009497869018218807469 9138.32452804448621464 44.009497869018218807469 732.99148068399222211
46.009497869018190385759 9160.71838570635918586 46.009497869018190385759 729.03606994028109511
48.009497869018218807469 9181.75868043520677020 48.009497869018218807469 725.39064041814572192
50.009497869018190385759 9201.57560395789914764 50.009497869018190385759 722.12180682768769202
52.009497869018190385759 9220.28180498996698589 52.009497869018190385759 719.11867042374990433
54.009497869018218807469 9237.97587228277916438 54.009497869018218807469 716.31000899981677321
56.009497869018190385759 9254.74396836444975634 56.009497869018190385759 713.71354377576074057
58.009497869018218807469 9270.66243314507482864 58.009497869018218807469 711.39028042213408298
60.009497869018190385759 9285.79876131013952545 60.009497869018190385759 709.13061037713305268
62.009497869018190385759 9300.21310484297828225 62.009497869018190385759 707.01961013811910561
64.009497869018218807469 9313.95936772681307048 64.009497869018218807469 705.03983794756686621
66.009497869018190385759 9327.08570055770178442 66.009497869018190385759 703.19735413228215748
68.009497869018190385759 9339.63580155216732237 68.009497869018190385759 701.47439138897391331
70.009497869018190385759 9351.64887153739437053 70.009497869018190385759 699.80980691046443098
72.009497869018190385759 9363.16061368687041977 72.009497869018190385759 698.24920758365738038
74.009497869018218807469 9374.20353390467607824 74.009497869018218807469 696.75943568037155273
76.009497869018190385759 9384.80709488776301441 76.009497869018190385759 695.34234274249058672
78.009497869018190385759 9394.99837815048704215 78.009497869018190385759 693.99863139226613384
80.009497869018218807469 9404.80216043463042297 80.009497869018218807469 692.71133363225737867
82.009497869018190385759 9414.24110421034492902 82.009497869018190385759 691.47885403695988771
84.009497869018218807469 9423.33617978439542640 84.009497869018218807469 690.28891391586535065
86.009497869018190385759 9432.10670711733655480 86.009497869018190385759 689.16318351297411482
88.009497869018190385759 9440.57044726137974067 88.009497869018190385759 688.07058124219497586
91.009497869018218807469 9452.72661830271135841 91.009497869018218807469 686.51871167817614605
94.009497869018218807469 9464.28012196739837236 94.009497869018218807469 685.05160560534500291
97.009497869018218807469 9475.27628675747291709 97.009497869018218807469 683.67387266919081412
99.504748934509137825444 9484.02734762146610592 99.504748934509137825444 682.38597874407867039
nan nan nan nan

