Time Pressure difference Time.1 Pressure.1 difference.1
(hr) (psi) (hr) (psi)
0.000200000000020850166 0.40587892661561337 0.000200000000020850166 0.32350657225495433
0.000399999999999067768 0.81161350376219166 0.000399999999999067768 0.84719933059121977
0.000600000000019917934 1.21722636153258001 0.000600000000019917934 1.23972763187092094
0.000799999999998135536 1.62272716169441789 0.000799999999998135536 1.63946116143059473
0.001007140329434719206 2.04259428145380362 0.001007140329434719206 2.05921866089536554
0.001267914553977789183 2.57102251192049325 0.001267914553977789183 2.59157199564657281
0.001596209851982166583 3.23604162387857786 0.001596209851982166583 3.26133362803396754
0.002009509145224797066 4.07289733112611785 0.002009509145224797066 4.10385555086306653
0.002529822128153114136 5.12589762907840196 0.002529822128153114136 5.16352339117410519
0.003184857364431081805 6.45072545040684631 0.003184857364431081805 6.49603158641198597
0.004009497869034817086 8.11733209341389994 0.004009497869034817086 8.17121351219511816
0.005047658755856332391 10.21355214433581438 0.005047658755856332391 10.27655196688771255
0.006354625877790454069 12.84961187867143018 0.006354625877790454069 12.92151812985527393
0.008000000000009777068 16.16373972138847037 0.008000000000009777068 16.24291053107808125
0.010071403294361402914 20.32912919635280247 0.010071403294361402914 20.41138720132025952
0.012679145539692626699 25.56255104343815177 0.012679145539692626699 25.63939953821113704
0.015962098519750611558 32.13495962352494217 0.015962098519750611558 32.19073789778736483
0.020095091452091651263 40.38448491630466464 0.020095091452091651263 40.39187412118512555
0.025298221281360611101 50.73223729610393917 0.025298221281360611101 50.64521558219787067
0.031848573644296607199 63.70136419693797336 0.031848573644296607199 63.44423894977498435
0.040094978690191851456 79.93976363151631404 0.040094978690191851456 79.39020517574822122
0.050476587558435426217 100.24674477123362237 0.050476587558435426217 99.20970616848182999
0.063546258777947173257 125.60367829144355767 0.063546258777947173257 123.77156957564244522
0.080000000000012505552 157.20822299014471923 0.080000000000012505552 154.10053474493943781
0.100714032943542974863 196.51094399345052466 0.100714032943542974863 191.38346826755699226
0.126791455396883634421 245.25191001648894940 0.126791455396883634421 236.96155740858026206
0.159620985197506115583 305.49299593260758456 0.159620985197506115583 292.29877173945936875
0.200950914520774404082 379.63892233808752508 0.200950914520774404082 358.91287548810578301
0.252982212813464002465 470.43634685589449873 0.252982212813464002465 438.25058391423294779
0.318485736442809752589 580.93547990055060382 0.318485736442809752589 531.48373812394640936
0.400949786901833249431 714.39287073431785302 0.400949786901833249431 639.20027506709084264
0.504765875584169521062 874.08790600710187846 0.504765875584169521062 760.96603099101730550
0.635462587779443310865 1063.02112139523978840 0.635462587779443310865 894.74879323066602410
0.800000000000011368684 1283.46402052668827309 0.800000000000011368684 1036.23845842233140502
1.007140329435344483500 1536.34613707112362135 1.007140329435344483500 1178.18562922547403105
1.267914553968907398485 1820.50851060732111364 1.267914553968907398485 1310.02615841355259363
1.596209851975117999245 2131.93622006345594855 1.596209851975117999245 1418.22827530366612336
2.009509145207687197399 2463.20248258259789509 2.009509145207687197399 1487.86870720466617968
2.529822128134725289783 2803.46689461341111382 2.529822128134725289783 1505.70160829521796586
3.184857364427983839050 3139.36815472144780870 3.184857364427983839050 1464.27124828441196769
4.009497869018204596614 3456.92216048979889820 4.009497869018204596614 1365.85655491735087708
5.009497869018190385759 3735.18992608007420131 5.009497869018190385759 1228.69435329528846523
6.009497869018190385759 3936.40334990188921438 6.009497869018190385759 1097.89924581619015953
7.009497869018204596614 4086.81080906177294310 7.009497869018204596614 983.23030673923358336
8.009497869018190385759 4202.67929005128462450 8.009497869018190385759 886.90440844564830059
9.009497869018204596614 4294.39052838588395389 9.009497869018204596614 808.47894361211058367
10.009497869018190385759 4368.75156892508584860 10.009497869018190385759 745.33454113636116745
11.009497869018190385759 4430.34661189847611240 11.009497869018190385759 691.97955219721336562
12.009497869018204596614 4482.33352654350528610 12.009497869018204596614 648.22564138525888211
13.009497869018190385759 4526.93781539971860184 13.009497869018190385759 612.23368802491631868
14.009497869018204596614 4565.76028689757913526 14.009497869018204596614 582.49093112171465236
15.009497869018190385759 4599.97452865133163868 15.009497869018190385759 557.77536450985962801
16.009497869018190385759 4630.45630752037232014 16.009497869018190385759 537.11116098050092660
17.009497869018204596614 4657.87006977763576288 17.009497869018204596614 520.18338348971224150
18.009497869018190385759 4682.72786731800624693 18.009497869018190385759 505.38004290434344057
19.009497869018204596614 4705.43112115316307609 19.009497869018204596614 493.36289193742828729
20.009497869018190385759 4726.29628004879396030 20.009497869018190385759 482.44334112193291730
21.009497869018190385759 4745.57769433944122284 21.009497869018190385759 473.02695710124123707
22.009497869018204596614 4763.48346340145781141 22.009497869018204596614 464.85174944347295423
23.009497869018190385759 4780.18208611048066814 23.009497869018190385759 457.93094895305461023
24.009497869018204596614 4795.81492097709997324 24.009497869018204596614 451.63006303023132659
25.009497869018204596614 4810.49982881864616502 25.009497869018204596614 446.06364937467617438
26.009497869018190385759 4824.33607700022275822 26.009497869018190385759 441.35795457422096888
27.009497869018204596614 4837.40886091230277088 27.009497869018204596614 436.91199810761077060
28.009497869018190385759 4849.79051355772298848 28.009497869018190385759 432.92782735473036837
29.009497869018190385759 4861.54416974329251389 29.009497869018190385759 429.44303520223934356
30.009497869018190385759 4872.72442790258082823 30.009497869018190385759 426.17953445319307093
31.009497869018218807469 4883.37894813896127744 31.009497869018218807469 423.21210946744071180
32.009497869018190385759 4893.55030931917463022 32.009497869018190385759 420.50583069850114271
33.009497869018190385759 4903.27511951295582548 33.009497869018190385759 418.12724084173362371
34.009497869018218807469 4912.58718996496918408 34.009497869018218807469 415.83065228776723643
35.009497869018190385759 4921.51563300968064141 35.009497869018190385759 413.76751872291009704
36.009497869018190385759 4930.08701020837543183 36.009497869018190385759 411.79913045326077281
37.009497869018190385759 4938.32559182185286772 37.009497869018190385759 409.97022302749513756
38.009497869018218807469 4946.25253100355166680 38.009497869018218807469 408.26744667806451616
39.009497869018190385759 4953.88758581634465372 39.009497869018190385759 406.70627162687037526
40.009497869018190385759 4961.24873054436102393 40.009497869018190385759 405.30106309330579961
41.009497869018218807469 4968.35194630672413041 41.009497869018218807469 403.85667294723970144
42.009497869018190385759 4975.21221468993462622 42.009497869018190385759 402.55549761954733867
43.009497869018190385759 4981.84335316413307737 43.009497869018190385759 401.27528472720229047
44.009497869018218807469 4988.25768421220254822 44.009497869018218807469 400.11168073130676248
46.009497869018190385759 5000.48162441242038767 46.009497869018190385759 397.95257509044427024
48.009497869018218807469 5011.96670699371497903 48.009497869018218807469 395.96267620140389454
50.009497869018190385759 5022.78399858104512532 50.009497869018190385759 394.17834645627698364
52.009497869018190385759 5032.99498974843754695 52.009497869018190385759 392.53905052213644922
54.009497869018218807469 5042.65349627963860257 54.009497869018218807469 391.00591095292008958
56.009497869018190385759 5051.80655096404007054 56.009497869018190385759 389.58860107670165007
58.009497869018218807469 5060.49582480402204965 58.009497869018218807469 388.32042152796572054
60.009497869018190385759 5068.75816053618382284 60.009497869018190385759 387.08695510519117988
62.009497869018190385759 5076.62639280019357102 62.009497869018190385759 385.93464177561759243
64.009497869018218807469 5084.12994569427792158 64.009497869018218807469 384.85396075885080336
66.009497869018190385759 5091.29510276527798851 66.009497869018190385759 383.84822015274460227
68.009497869018190385759 5098.14571717836315656 68.009497869018190385759 382.90772147407074044
70.009497869018190385759 5104.70318714792847459 70.009497869018190385759 381.99908923076810652
72.009497869018190385759 5110.98700165457830735 72.009497869018190385759 381.14721845729843608
74.009497869018218807469 5117.01490441329042369 74.009497869018218807469 380.33400963313346210
76.009497869018190385759 5122.80297797005368921 76.009497869018190385759 379.56047344332813509
78.009497869018190385759 5128.36600507543425920 78.009497869018190385759 378.82699342217659932
80.009497869018218807469 5133.71751039384707838 80.009497869018218807469 378.12430739657895629
82.009497869018190385759 5138.86986449065716442 82.009497869018190385759 377.45154448549936888
84.009497869018218807469 5143.83451424472514191 84.009497869018218807469 376.80200222700477752
86.009497869018190385759 5148.62200567478703306 86.009497869018190385759 376.18750956860333190
88.009497869018190385759 5153.24203385184864601 88.009497869018190385759 375.59110027538162058
91.009497869018218807469 5159.87761714957832737 91.009497869018218807469 374.74399474155472944
94.009497869018218807469 5166.18422765110790351 94.009497869018218807469 373.94315831701163688
97.009497869018218807469 5172.18660843137240590 97.009497869018218807469 373.19110722881998754
99.504748934509137825444 5176.96347386943580204 99.504748934509137825444 372.48809577976550145
nan nan nan nan

