Time Pressure difference Time.1 Pressure.1 difference.1
(hr) (psi) (hr) (psi)
0.000200000000020850166 0.64375059262394418 0.000200000000020850166 0.51310263714207927
0.000399999999999067768 1.28727223752445985 0.000399999999999067768 1.34371369237213956
0.000600000000019917934 1.93060082751273976 0.000600000000019917934 1.96628931776248539
0.000799999999998135536 2.57375168678581856 0.000799999999998135536 2.60029290767885302
0.001007140329434719206 3.23968847099435253 0.001007140329434719206 3.26605582691191154
0.001267914553977789183 4.07781029554602803 0.001267914553977789183 4.11040312424272081
0.001596209851982166583 5.13257421492217070 0.001596209851982166583 5.17268899200469434
0.002009509145224797066 6.45988224240085085 0.002009509145224797066 6.50898400895084706
0.002529822128153114136 8.13000976415303889 0.002529822128153114136 8.18968669009991324
0.003184857364431081805 10.23127356273544919 0.003184857364431081805 10.30313206533376658
0.004009497869034817086 12.87462098422614609 0.004009497869034817086 12.96008044762094435
0.005047658755856332391 16.19936344204081635 0.005047658755856332391 16.29928529174403451
0.006354625877790454069 20.38032703707312976 0.006354625877790454069 20.49437506661471531
0.008000000000009777068 25.63675111548089802 0.008000000000009777068 25.76232121117712026
0.010071403294361402914 32.24333196306776728 0.010071403294361402914 32.37379855291369068
0.012679145539692626699 40.54388218774821695 0.012679145539692626699 40.66576893970373874
0.015962098519750611558 50.96815317337767937 0.015962098519750611558 51.05662117394962962
0.020095091452091651263 64.05244124020451579 0.020095091452091651263 64.06416100368296895
0.025298221281360611101 80.46465505570584753 0.025298221281360611101 80.32663291110893056
0.031848573644296607199 101.03454075497950271 0.031848573644296607199 100.62672325230704473
0.040094978690191851456 126.78970707129842310 0.040094978690191851456 125.91807132383019052
0.050476587558435426217 158.99791076421070102 0.050476587558435426217 157.35309953771502478
0.063546258777947173257 199.21567007700267027 0.063546258777947173257 196.30982551546568970
0.080000000000012505552 249.34255039830330247 0.080000000000012505552 244.41355305857200619
0.100714032943542974863 311.67924313715309381 0.100714032943542974863 303.54673040796950545
0.126791455396883634421 388.98561137861162251 0.126791455396883634421 375.83656851278914246
0.159620985197506115583 484.53192387671776942 0.159620985197506115583 463.60501911135560249
0.200950914520774404082 602.13222518376994685 0.200950914520774404082 569.25935579465965475
0.252982212813464002465 746.14289439848857910 0.252982212813464002465 695.09416383118093563
0.318485736442809752589 921.40176525210279124 0.318485736442809752589 842.96806005724295119
0.400949786901833249431 1133.07393841877455998 0.400949786901833249431 1013.81355102854149663
0.504765875584169521062 1386.36073616700195998 0.504765875584169521062 1206.94202456362177145
0.635462587779443310865 1686.02120483589260402 0.635462587779443310865 1419.13025811585134761
0.800000000000011368684 2035.65809813044415932 0.800000000000011368684 1643.54214512066505449
1.007140329435344483500 2436.74571740379087714 1.007140329435344483500 1868.67966602564933964
1.267914553968907398485 2887.44587543046418432 1.267914553968907398485 2077.78739059854433435
1.596209851975117999245 3381.39064411703839141 1.596209851975117999245 2249.40304320704399288
2.009509145207687197399 3906.80065885026851902 2.009509145207687197399 2359.85733478772863236
2.529822128134725289783 4446.48232875159828836 2.529822128134725289783 2388.14148528790701675
3.184857364427983839050 4979.24375359508394467 3.184857364427983839050 2322.43021756584994364
4.009497869018204596614 5482.90522995718129096 4.009497869018204596614 2166.33806046317567962
5.009497869018190385759 5924.25615324995396804 5.009497869018190385759 1948.78981444785517851
6.009497869018190385759 6243.39383775422538747 6.009497869018190385759 1741.34019725764596842
7.009497869018204596614 6481.94993076600803761 7.009497869018204596614 1559.46774060689926955
8.009497869018190385759 6665.72493954855417542 8.009497869018190385759 1406.68854946092574210
9.009497869018204596614 6811.18497739892154641 9.009497869018204596614 1282.30061958150349710
10.009497869018190385759 6929.12646382790262578 10.009497869018190385759 1182.14945663840876477
11.009497869018190385759 7026.82024100290982460 11.009497869018190385759 1097.52494549312109484
12.009497869018204596614 7109.27489660793708026 12.009497869018204596614 1028.12837383645592126
13.009497869018190385759 7180.02022360529190337 13.009497869018190385759 971.04277567886310862
14.009497869018204596614 7241.59520913673532050 14.009497869018204596614 923.86881288567042247
15.009497869018190385759 7295.86124011502215581 15.009497869018190385759 884.66830354637579603
16.009497869018190385759 7344.20734020649342710 16.009497869018190385759 851.89352171907307820
17.009497869018204596614 7387.68736477026686771 17.009497869018204596614 825.04495660048610262
18.009497869018190385759 7427.11346168880481855 18.009497869018190385759 801.56588772123336639
19.009497869018204596614 7463.12231100931967376 19.009497869018204596614 782.50589827780640917
20.009497869018190385759 7496.21582122493055067 20.009497869018190385759 765.18677464831159796
21.009497869018190385759 7526.79740864493396657 21.009497869018190385759 750.25177212368998880
22.009497869018204596614 7555.19713252608198673 22.009497869018204596614 737.28535669927885010
23.009497869018190385759 7581.68224313424707361 23.009497869018190385759 726.30851329849247122
24.009497869018204596614 7606.47694433662945812 24.009497869018204596614 716.31489505204729085
25.009497869018204596614 7629.76817111809850758 25.009497869018204596614 707.48619798360516597
26.009497869018190385759 7651.71336802904261276 26.009497869018190385759 700.02265745993247492
27.009497869018204596614 7672.44766054533283750 27.009497869018204596614 692.97107896575971608
28.009497869018190385759 7692.08577355261786579 28.009497869018190385759 686.65192289459287167
29.009497869018190385759 7710.72784299448449019 29.009497869018190385759 681.12481402978130518
30.009497869018190385759 7728.46046556679812056 30.009497869018190385759 675.94868784174468601
31.009497869018218807469 7745.35923331876256270 31.009497869018218807469 671.24215722909661963
32.009497869018190385759 7761.49167912508528389 32.009497869018190385759 666.94982164065550023
33.009497869018190385759 7776.91586578489386739 33.009497869018190385759 663.17722215471690106
34.009497869018218807469 7791.68542014935792395 34.009497869018218807469 659.53468211215533756
35.009497869018190385759 7805.84651628994288330 35.009497869018190385759 656.26241699084505399
36.009497869018190385759 7819.44128258459386416 36.009497869018190385759 653.14042412054050146
37.009497869018190385759 7832.50821325843116938 37.009497869018190385759 650.23965701492068092
38.009497869018218807469 7845.08085859989660094 38.009497869018218807469 647.53894206725806271
39.009497869018190385759 7857.19055619231676246 39.009497869018190385759 645.06281606392963113
40.009497869018190385759 7868.86581442896658700 40.009497869018190385759 642.83406318487436693
41.009497869018218807469 7880.13198041271425609 41.009497869018218807469 640.54316569910565704
42.009497869018190385759 7891.01281592215036653 42.009497869018190385759 638.47941630641309985
43.009497869018190385759 7901.53023637098249310 43.009497869018190385759 636.44891471076766720
44.009497869018218807469 7911.70378602509299526 44.009497869018218807469 634.60336247137581722
46.009497869018190385759 7931.09175675248479820 46.009497869018190385759 631.17887934427017171
48.009497869018218807469 7949.30785084658782580 48.009497869018218807469 628.02276922107910195
50.009497869018190385759 7966.46478463469065900 50.009497869018190385759 625.19270524007868062
52.009497869018190385759 7982.66008619936656032 52.009497869018190385759 622.59267439371637920
54.009497869018218807469 7997.97911090254092414 54.009497869018218807469 620.16101450319717969
56.009497869018190385759 8012.49645583230994816 56.009497869018190385759 617.91306810116202541
58.009497869018218807469 8026.27821393097019609 58.009497869018218807469 615.90165217755225058
60.009497869018190385759 8039.38282019468533690 60.009497869018190385759 613.94529354798771692
62.009497869018190385759 8051.86235251506059285 62.009497869018190385759 612.11764904575420587
64.009497869018218807469 8063.76347944133522105 64.009497869018218807469 610.40361808883301364
66.009497869018190385759 8075.12788840230496135 66.009497869018190385759 608.80844753734493224
68.009497869018190385759 8085.99341208207624732 68.009497869018190385759 607.31675496092373123
70.009497869018190385759 8096.39398945183802425 70.009497869018190385759 605.87560464060345566
72.009497869018190385759 8106.36053131279277295 72.009497869018190385759 604.52448173350194338
74.009497869018218807469 8115.92118036042302265 74.009497869018218807469 603.23467921320752794
76.009497869018190385759 8125.10144456725720374 76.009497869018190385759 602.00780009249172053
78.009497869018190385759 8133.92477034505282063 78.009497869018190385759 600.84445268189483613
80.009497869018218807469 8142.41260869843790715 80.009497869018218807469 599.72994656752484843
82.009497869018190385759 8150.58458015526503004 82.009497869018190385759 598.66290047495192539
84.009497869018218807469 8158.45884021601978020 84.009497869018218807469 597.63268386004449439
86.009497869018190385759 8166.05211555796176981 86.009497869018190385759 596.65805820921923441
88.009497869018190385759 8173.37978319944795658 88.009497869018190385759 595.71211396136345684
91.009497869018218807469 8183.90425342986418400 91.009497869018218807469 594.36854903681023643
94.009497869018218807469 8193.90695123351906659 94.009497869018218807469 593.09836995362081780
97.009497869018218807469 8203.42712074975861469 97.009497869018218807469 591.90556761292361898
99.504748934509137825444 8211.00354257160506677 99.504748934509137825444 590.79054535561169814
nan nan nan nan

