Time Pressure difference Time.1 Pressure.1 difference.1
(hr) (psi) (hr) (psi)
0.000200000000020850166 0.41752299418245475 0.000200000000020850166 0.33278749850817024
0.000399999999999067768 0.83489749772258237 0.000399999999999067768 0.87150422941965633
0.000600000000019917934 1.25214678993720319 0.000600000000019917934 1.27529358852295571
0.000799999999998135536 1.66928080977581517 0.000799999999998135536 1.68649488327491515
0.001007140329434719206 2.10119329772501917 0.001007140329434719206 2.11829460608498632
0.001267914553977789183 2.64478135447558893 0.001267914553977789183 2.66592037257085979
0.001596209851982166583 3.32887888358001227 0.001596209851982166583 3.35489647801854840
0.002009509145224797066 4.18974274636334254 0.002009509145224797066 4.22158911174848139
0.002529822128153114136 5.27295206925687943 0.002529822128153114136 5.31165725895368990
0.003184857364431081805 6.63578724611523985 0.003184857364431081805 6.68239314831724851
0.004009497869034817086 8.35020637478233141 0.004009497869034817086 8.40563357197120808
0.005047658755856332391 10.50656388618151382 0.005047658755856332391 10.57137108069186837
0.006354625877790454069 13.21824828502675864 0.006354625877790454069 13.29221742046587451
0.008000000000009777068 16.62745356585453393 0.008000000000009777068 16.70889566926474501
0.010071403294361402914 20.91234191919899033 0.010071403294361402914 20.99695978496469451
0.012679145539692626699 26.29590291763514642 0.012679145539692626699 26.37495608234014455
0.015962098519750611558 33.05686420288836302 0.015962098519750611558 33.11424267354355777
0.020095091452091651263 41.54305620488717921 0.020095091452091651263 41.55065739515355716
0.025298221281360611101 52.18767033328725091 0.025298221281360611101 52.09815209480191101
0.031848573644296607199 65.52886235012881855 0.031848573644296607199 65.26436055898984989
0.040094978690191851456 82.23311750619096472 0.040094978690191851456 81.66779302915082894
0.050476587558435426217 103.12267597368703775 0.050476587558435426217 102.05588626347926606
0.063546258777947173257 129.20706250472267129 0.063546258777947173257 127.32239329297644304
0.080000000000012505552 161.71829496117345570 0.080000000000012505552 158.52145172532704009
0.100714032943542974863 202.14855304244295553 0.100714032943542974863 196.87397760310165040
0.126791455396883634421 252.28782546778168694 0.126791455396883634421 243.75963487521985940
0.159620985197506115583 314.25713925854307718 0.159620985197506115583 300.68439224018158029
0.200950914520774404082 390.53020289696701184 0.200950914520774404082 369.20955634227277642
0.252982212813464002465 483.93247156077677573 0.252982212813464002465 450.82334656751015700
0.318485736442809752589 597.60166170097625127 0.318485736442809752589 546.73122241438761648
0.400949786901833249431 734.88774817341698053 0.400949786901833249431 657.53798787639254897
0.504765875584169521062 899.16419839255161151 0.504765875584169521062 782.79702368338257656
0.635462587779443310865 1093.51762897625076221 0.635462587779443310865 920.41781598728357494
0.800000000000011368684 1320.28470964015900790 0.800000000000011368684 1065.96661091805412980
1.007140329435344483500 1580.42164100349214095 1.007140329435344483500 1211.98603662128653013
1.267914553968907398485 1872.73621378048187580 1.267914553968907398485 1347.60887607295762791
1.596209851975117999245 2193.09832473740743808 1.596209851975117999245 1458.91515205418113510
2.009509145207687197399 2533.86812757472216617 2.009509145207687197399 1530.55346519824274765
2.529822128134725289783 2883.89422355723900182 2.529822128134725289783 1548.89796591024469308
3.184857364427983839050 3229.43199522575150695 3.184857364427983839050 1506.27902999748926050
4.009497869018204596614 3556.09615689729344012 4.009497869018204596614 1405.04096427973377104
5.009497869018190385759 3842.34701412335471105 5.009497869018190385759 1263.94378146359599668
6.009497869018190385759 4049.33295420235344864 6.009497869018190385759 1129.39635532731040257
7.009497869018204596614 4204.05538145288937812 7.009497869018204596614 1011.43773357191651030
8.009497869018190385759 4323.24795820849340089 8.009497869018190385759 912.34838737646612117
9.009497869018204596614 4417.59025665924855275 9.009497869018204596614 831.67301166655636280
10.009497869018190385759 4494.08460573851061781 10.009497869018190385759 766.71708944765020988
11.009497869018190385759 4557.44671961687527073 11.009497869018190385759 711.83142459631369547
12.009497869018204596614 4610.92506214106469997 12.009497869018204596614 666.82227863811476709
13.009497869018190385759 4656.80898223495660204 13.009497869018190385759 629.79776923874590011
14.009497869018204596614 4696.74521316103528079 14.009497869018204596614 599.20173652274752385
15.009497869018190385759 4731.94101103067259828 15.009497869018190385759 573.77711677038848848
16.009497869018190385759 4763.29726716235018102 16.009497869018190385759 552.52008772994145147
17.009497869018204596614 4791.49748981224092859 17.009497869018204596614 535.10667727835141250
18.009497869018190385759 4817.06842088860503281 18.009497869018190385759 519.87865069258282347
19.009497869018204596614 4840.42299757968794438 19.009497869018204596614 507.51674539464960390
20.009497869018190385759 4861.88674709937367879 20.009497869018190385759 496.28392877707040043
21.009497869018190385759 4881.72131671803253994 21.009497869018190385759 486.59740259185059585
22.009497869018204596614 4900.14077587608971953 22.009497869018204596614 478.18766028816281732
23.009497869018190385759 4917.31845743332269194 23.009497869018190385759 471.06831224269143377
24.009497869018204596614 4933.39977526742677583 24.009497869018204596614 464.58666319913140796
25.009497869018204596614 4948.50597144868879695 25.009497869018204596614 458.86055734853977128
26.009497869018190385759 4962.73916117645876511 26.009497869018190385759 454.01986310708798555
27.009497869018204596614 4976.18698397126263444 27.009497869018204596614 449.44635870905864294
28.009497869018190385759 4988.92384796306760109 28.009497869018190385759 445.34788797556279860
29.009497869018190385759 5001.01469920314048068 29.009497869018190385759 441.76312227771342123
30.009497869018190385759 5012.51570247355721222 30.009497869018190385759 438.40599650717808800
31.009497869018218807469 5023.47588517573512945 31.009497869018218807469 435.35344047675249612
32.009497869018190385759 5033.93904770128301607 32.009497869018190385759 432.56952256280243319
33.009497869018190385759 5043.94284835144298995 33.009497869018190385759 430.12269447243909326
34.009497869018218807469 5053.52206836560344527 34.009497869018218807469 427.76022018126872126
35.009497869018190385759 5062.70665526815446356 35.009497869018190385759 425.63789835840344722
36.009497869018190385759 5071.52393263238536747 36.009497869018190385759 423.61303993347718233
37.009497869018190385759 5079.99886699706985382 37.009497869018190385759 421.73166385205445295
38.009497869018218807469 5088.15321836840848846 38.009497869018218807469 419.98003736145159337
39.009497869018190385759 5096.00731163894488418 39.009497869018190385759 418.37407450141176923
40.009497869018190385759 5103.57963674850270763 40.009497869018190385759 416.92855260827769825
41.009497869018218807469 5110.88663329093378707 41.009497869018218807469 415.44272503998837465
42.009497869018190385759 5117.94371265235076862 42.009497869018190385759 414.10422091191139771
43.009497869018190385759 5124.76508870572706655 43.009497869018190385759 412.78728060052372939
44.009497869018218807469 5131.36343744779969711 44.009497869018218807469 411.59029452277860628
46.009497869018190385759 5143.93806445703921781 46.009497869018190385759 409.36924732664556359
48.009497869018218807469 5155.75263711238676478 48.009497869018218807469 407.32226117439495283
50.009497869018190385759 5166.88026083541990374 50.009497869018190385759 405.48674164149804255
52.009497869018190385759 5177.38419027400777850 52.009497869018190385759 403.80041672564038890
54.009497869018218807469 5187.31978510733279109 54.009497869018218807469 402.22329364419243802
56.009497869018190385759 5196.73542742612335132 56.009497869018190385759 400.76532323873817631
58.009497869018218807469 5205.67398371233502985 58.009497869018218807469 399.46076148983360099
60.009497869018190385759 5214.17335366631959914 60.009497869018190385759 398.19190873525815277
62.009497869018190385759 5222.26731390511758946 62.009497869018190385759 397.00653723639351256
64.009497869018218807469 5229.98613266091797414 64.009497869018218807469 395.89485307570305395
66.009497869018190385759 5237.35684751674034487 66.009497869018190385759 394.86025925548733539
68.009497869018190385759 5244.40399594987411547 68.009497869018190385759 393.89277905734326168
70.009497869018190385759 5251.14959005791024538 70.009497869018190385759 392.95807949558519567
72.009497869018190385759 5257.61367793155386607 72.009497869018190385759 392.08176980648318022
74.009497869018218807469 5263.81451232678591623 74.009497869018218807469 391.24523122096923089
76.009497869018190385759 5269.76863717411288235 76.009497869018190385759 390.44950341916137404
78.009497869018190385759 5275.49125931940125156 78.009497869018190385759 389.69498093838660679
80.009497869018218807469 5280.99629142973662965 80.009497869018218807469 388.97213588746438973
82.009497869018190385759 5286.29645896375041048 82.009497869018190385759 388.28007240106700237
84.009497869018218807469 5291.40353719436916435 84.009497869018218807469 387.61189573351720128
86.009497869018190385759 5296.32837469004789455 86.009497869018190385759 386.97977418737474409
88.009497869018190385759 5301.08094465907379345 88.009497869018190385759 386.36625479147863871
91.009497869018218807469 5307.90689305141040677 91.009497869018218807469 385.49484704971411020
94.009497869018218807469 5314.39443090339318587 94.009497869018218807469 384.67103580971280508
97.009497869018218807469 5320.56901113227286260 97.009497869018218807469 383.89740948538451448
99.504748934509137825444 5325.48291779192004469 99.504748934509137825444 383.17422967508667853
nan nan nan nan

