Time Pressure difference Time.1 Pressure.1 difference.1
(hr) (psi) (hr) (psi)
0.000200000000020850166 0.37344188125084099 0.000200000000020850166 0.29765256340671004
0.000399999999999067768 0.74675094915824591 0.000399999999999067768 0.77949282671200337
0.000600000000019917934 1.11994802526255821 0.000600000000019917934 1.14065103834025305
0.000799999999998135536 1.49304199918195435 0.000799999999998135536 1.50843865057855941
0.001007140329434719206 1.87935416469827432 0.001007140329434719206 1.89464995643856371
0.001267914553977789183 2.36555145051701077 0.001267914553977789183 2.38445865992891637
0.001596209851982166583 2.97742354328172398 0.001596209851982166583 3.00069426021977748
0.002009509145224797066 3.74739938867956335 0.002009509145224797066 3.77588348839655064
0.002529822128153114136 4.71624597429549652 0.002529822128153114136 4.75086475950240406
0.003184857364431081805 5.93519616236203706 0.003184857364431081805 5.97688152110447124
0.004009497869034817086 7.46861088103041304 0.004009497869034817086 7.51818620281886751
0.005047658755856332391 9.39730514919422255 0.005047658755856332391 9.45527014986184966
0.006354625877790454069 11.82269617525301797 0.006354625877790454069 11.88885582029716659
0.008000000000009777068 14.87196544037587032 0.008000000000009777068 14.94480907470093811
0.010071403294361402914 18.70446518270985337 0.010071403294361402914 18.78014928973933806
0.012679145539692626699 23.51964225103223427 0.012679145539692626699 23.59034916528033321
0.015962098519750611558 29.56679686672684682 0.015962098519750611558 29.61811745103796412
0.020095091452091651263 37.15703632668195411 0.020095091452091651263 37.16383500084450731
0.025298221281360611101 46.67781669252186560 0.025298221281360611101 46.59774958280091539
0.031848573644296607199 58.61047648447776481 0.031848573644296607199 58.37390018124789037
0.040094978690191851456 73.55113498063694522 0.040094978690191851456 73.04549615555522735
0.050476587558435426217 92.23522213582765517 0.050476587558435426217 91.28106161813184372
0.063546258777947173257 115.56567941159457291 0.063546258777947173257 113.87998922021199633
0.080000000000012505552 144.64445107085035147 0.080000000000012505552 141.78512315671682131
0.100714032943542974863 180.80617592840016528 0.100714032943542974863 176.08847797568256510
0.126791455396883634421 225.65185983074496789 0.126791455396883634421 218.02405589436992273
0.159620985197506115583 281.07859666750164251 0.159620985197506115583 268.93882891601896290
0.200950914520774404082 349.29892649549441330 0.200950914520774404082 330.22926453721208873
0.252982212813464002465 432.83999946372262002 0.252982212813464002465 403.22645938010367672
0.318485736442809752589 534.50825917079350802 0.318485736442809752589 489.00860331486057930
0.400949786901833249431 657.29999786825544561 0.400949786901833249431 588.11664652689296418
0.504765875584169521062 804.23252007620646964 0.504765875584169521062 700.15112277657124196
0.635462587779443310865 978.06656456242353670 0.635462587779443310865 823.24222983723166180
0.800000000000011368684 1180.89210085344893741 0.800000000000011368684 953.42431932710417186
1.007140329435344483500 1413.56437611666910925 1.007140329435344483500 1084.02735147999555920
1.267914553968907398485 1675.01705176780160400 1.267914553968907398485 1205.33144493378085826
1.596209851975117999245 1961.55607132887621447 1.596209851975117999245 1304.88626149866013293
2.009509145207687197399 2266.34818581882473154 2.009509145207687197399 1368.96116707970304560
2.529822128134725289783 2579.41933541274920572 2.529822128134725289783 1385.36889779621492380
3.184857364427983839050 2888.47602760231575303 3.184857364427983839050 1347.24957065512489862
4.009497869018204596614 3180.65174192606491488 4.009497869018204596614 1256.69998597928383788
5.009497869018190385759 3436.68089510236359274 5.009497869018190385759 1130.49951768357482251
6.009497869018190385759 3621.81373792202521145 6.009497869018190385759 1010.15729789235547287
7.009497869018204596614 3760.20092882937706236 7.009497869018204596614 904.65247484818837620
8.009497869018190385759 3866.80942875620257837 8.009497869018190385759 816.02475285265586535
9.009497869018204596614 3951.19128533865023201 9.009497869018204596614 743.86689688901162754
10.009497869018190385759 4019.60953780197451124 10.009497869018190385759 685.76887084062741451
11.009497869018190385759 4076.28202611150709345 11.009497869018190385759 636.67790765686231680
12.009497869018204596614 4124.11424880744652910 12.009497869018204596614 596.42072332373209065
13.009497869018190385759 4165.15385064441397844 13.009497869018190385759 563.30517607210538245
14.009497869018204596614 4200.87370659224052361 14.009497869018204596614 535.93940179026606074
15.009497869018190385759 4232.35361345173714653 15.009497869018190385759 513.19905464124383343
16.009497869018190385759 4260.39934851772068214 16.009497869018190385759 494.18629360705921272
17.009497869018204596614 4285.62225682409552974 17.009497869018204596614 478.61135079278847115
18.009497869018190385759 4308.49346808562495426 18.009497869018190385759 464.99106406567671002
19.009497869018204596614 4329.38232253641399438 19.009497869018204596614 453.93430016374037450
20.009497869018190385759 4348.57997897932000342 20.009497869018190385759 443.88741836833588650
21.009497869018190385759 4366.32046057051138632 21.009497869018190385759 435.22357323454372136
22.009497869018204596614 4382.79523579355372931 22.009497869018204596614 427.70171209040853455
23.009497869018190385759 4398.15933742542256368 23.009497869018190385759 421.33400836049492000
24.009497869018204596614 4412.54282688261901058 24.009497869018204596614 415.53667684543825089
25.009497869018204596614 4426.05414577781175467 25.009497869018204596614 410.41512001891305772
26.009497869018190385759 4438.78462822356596007 26.009497869018190385759 406.08549508980576093
27.009497869018204596614 4450.81266096234412544 27.009497869018204596614 401.99485071786318713
28.009497869018190385759 4462.20479628569228225 28.009497869018190385759 398.32908705383999859
29.009497869018190385759 4473.01912339085720305 29.009497869018190385759 395.12279263484731473
30.009497869018190385759 4483.30587731200557755 30.009497869018190385759 392.12010444566328715
31.009497869018218807469 4493.10890925080639136 31.009497869018218807469 389.38983022721492944
32.009497869018190385759 4502.46739525473276444 32.009497869018190385759 386.89983193366191472
33.009497869018190385759 4511.41501774860080332 33.009497869018190385759 384.71133429905410139
34.009497869018218807469 4519.98288584891633946 34.009497869018218807469 382.59828458444155785
35.009497869018190385759 4528.19778528964434372 35.009497869018190385759 380.70003259546444951
36.009497869018190385759 4536.08415488434457075 36.009497869018190385759 378.88895404408623335
37.009497869018190385759 4543.66432526231983502 37.009497869018190385759 377.20620930193717868
38.009497869018218807469 4550.95775905859591148 38.009497869018218807469 375.63951548862900154
39.009497869018190385759 4557.98263531052998587 39.009497869018190385759 374.20310647636233625
40.009497869018190385759 4564.75549183282419108 40.009497869018190385759 372.91019944445559986
41.009497869018218807469 4571.29103256499820418 41.009497869018218807469 371.58124211743984233
42.009497869018190385759 4577.60304179463219043 42.009497869018190385759 370.38405416224742339
43.009497869018190385759 4583.70423272683638061 43.009497869018190385759 369.20615336580704025
44.009497869018218807469 4589.60594305589984288 44.009497869018218807469 368.13554231220638258
46.009497869018190385759 4600.85297000241098431 46.009497869018190385759 366.14898814674074856
48.009497869018218807469 4611.42018737741364021 48.009497869018218807469 364.31811806235731410
50.009497869018190385759 4621.37298230100259389 50.009497869018190385759 362.67638844030398104
52.009497869018190385759 4630.76793114149313624 52.009497869018190385759 361.16810181237553934
54.009497869018218807469 4639.65454883106031048 54.009497869018218807469 359.75748774151878706
56.009497869018190385759 4648.07610939109508763 56.009497869018190385759 358.45344648245708186
58.009497869018218807469 4656.07095355943874893 58.009497869018218807469 357.28661734847668185
60.009497869018190385759 4663.67297967366084777 60.009497869018190385759 356.15172713571894292
62.009497869018190385759 4670.91239829362075398 62.009497869018190385759 355.09150442059899433
64.009497869018218807469 4677.81628200149862096 64.009497869018218807469 354.09718930476230980
66.009497869018190385759 4684.40881381477356626 66.009497869018190385759 353.17182550939003249
68.009497869018190385759 4690.71194060058496689 68.009497869018190385759 352.30648963495445969
70.009497869018190385759 4696.74535047012341238 70.009497869018190385759 351.47047349306325259
72.009497869018190385759 4702.52697488300327677 72.009497869018190385759 350.68668255599794747
74.009497869018218807469 4708.07313951140804420 74.009497869018218807469 349.93846378130513131
76.009497869018190385759 4713.39864161588957359 76.009497869018190385759 349.22674708207858885
78.009497869018190385759 4718.51708253866763698 78.009497869018190385759 348.55188534130593325
80.009497869018218807469 4723.44090607958423789 80.009497869018218807469 347.90535660054086975
82.009497869018190385759 4728.18149417275617452 82.009497869018190385759 347.28635957784678112
84.009497869018218807469 4732.74937888500335248 84.009497869018218807469 346.68872745886295661
86.009497869018190385759 4737.15426341799047805 86.009497869018190385759 346.12334384488298156
88.009497869018190385759 4741.40506803172138461 88.009497869018190385759 345.57459840911133142
91.009497869018218807469 4747.51034856590285926 91.009497869018218807469 344.79519188311081734
94.009497869018218807469 4753.31294716259708366 94.009497869018218807469 344.05835673020129661
97.009497869018218807469 4758.83562947886548500 97.009497869018218807469 343.36640808553318038
99.504748934509137825444 4763.23073722823119169 99.504748934509137825444 342.71957992851378094
nan nan nan nan

