Time Pressure difference Time.1 Pressure.1 difference.1
(hr) (psi) (hr) (psi)
0.000200000000020850166 0.41003752217519956 0.000200000000020850166 0.32682118877395999
0.000399999999999067768 0.81992921589090262 0.000399999999999067768 0.85587965160137569
0.000600000000019917934 1.22969794310565961 0.000600000000019917934 1.25242975924664757
0.000799999999998135536 1.63935346458063114 0.000799999999998135536 1.65625891923213775
0.001007140329434719206 2.06352250155066663 0.001007140329434719206 2.08031721274880166
0.001267914553977789183 2.59736495569016990 0.001267914553977789183 2.61812498740524680
0.001596209851982166583 3.26919778805766148 0.001596209851982166583 3.29474893159988902
0.002009509145224797066 4.11462783656798425 0.002009509145224797066 4.14590325117928593
0.002529822128153114136 5.17841707199928614 0.002529822128153114136 5.21642834395252830
0.003184857364431081805 6.51681894887413016 0.003184857364431081805 6.56258928709243783
0.004009497869034817086 8.20050147961691245 0.004009497869034817086 8.25493496211514888
0.005047658755856332391 10.31819919499499072 0.005047658755856332391 10.38184450753205468
0.006354625877790454069 12.98126773808404799 0.006354625877790454069 13.05391073364477350
0.008000000000009777068 16.32935180869777980 0.008000000000009777068 16.40933379471617215
0.010071403294361402914 20.53741945451215756 0.010071403294361402914 20.62052026690755824
0.012679145539692626699 25.82446242707993633 0.012679145539692626699 25.90209830397149915
0.015962098519750611558 32.46421125901187565 0.015962098519750611558 32.52056103198600567
0.020095091452091651263 40.79826037651270099 0.020095091452091651263 40.80572529045956998
0.025298221281360611101 51.25203480938369438 0.025298221281360611101 51.16412147955645651
0.031848573644296607199 64.35404210879185882 0.031848573644296607199 64.09428238163742719
0.040094978690191851456 80.75881858675725766 0.040094978690191851456 80.20362940910629845
0.050476587558435426217 101.27386305782412990 0.050476587558435426217 100.22619905955234287
0.063546258777947173257 126.89060122475751768 0.063546258777947173257 125.03972090326173827
0.080000000000012505552 158.81896297979784549 0.080000000000012505552 155.67943366650646908
0.100714032943542974863 198.52437579666209899 0.100714032943542974863 193.34436445882295175
0.126791455396883634421 247.76473696337919250 0.126791455396883634421 239.38944221809438773
0.159620985197506115583 308.62304712044169719 0.159620985197506115583 295.29363620400295076
0.200950914520774404082 383.52866539483017050 0.200950914520774404082 362.59026150745120276
0.252982212813464002465 475.25639139335248728 0.252982212813464002465 442.74085629040337153
0.318485736442809752589 586.88768768641693896 0.318485736442809752589 536.92926822767537942
0.400949786901833249431 721.71246981971034984 0.400949786901833249431 645.74945821327003159
0.504765875584169521062 883.04372471619103635 0.504765875584169521062 768.76281409543355494
0.635462587779443310865 1073.91273124560098040 0.635462587779443310865 903.91630135802938639
0.800000000000011368684 1296.61426663864199327 0.800000000000011368684 1046.85565574223255680
1.007140329435344483500 1552.08738847554081985 1.007140329435344483500 1190.25720329540695275
1.267914553968907398485 1839.16126174059286313 1.267914553968907398485 1323.44855757762593385
1.596209851975117999245 2153.77982887558118819 1.596209851975117999245 1432.75930271456422815
2.009509145207687197399 2488.44021293692776453 2.009509145207687197399 1503.11326363094349290
2.529822128134725289783 2832.19094066477828164 2.529822128134725289783 1521.12887887201327430
3.184857364427983839050 3171.53381204441348018 3.184857364427983839050 1479.27402746765369557
4.009497869018204596614 3492.34144492104678648 4.009497869018204596614 1379.85098683248770612
5.009497869018190385759 3773.46031466696013013 5.009497869018190385759 1241.28343478396982391
6.009497869018190385759 3976.73535143776916811 6.009497869018190385759 1109.14821349873295731
7.009497869018204596614 4128.68387063002865034 7.009497869018204596614 993.30438775090601666
8.009497869018190385759 4245.73952867885964224 8.009497869018190385759 895.99154377808326899
9.009497869018204596614 4338.39043134065650520 9.009497869018204596614 816.76253934584121907
10.009497869018190385759 4413.51336778702352603 10.009497869018190385759 752.97116553325008681
11.009497869018190385759 4475.73950751218944788 11.009497869018190385759 699.06950662546353215
12.009497869018204596614 4528.25907497120442713 12.009497869018204596614 654.86729754699319983
13.009497869018190385759 4573.32037498373301787 13.009497869018190385759 618.50657417271270333
14.009497869018204596614 4612.54061770595671987 14.009497869018204596614 588.45907590779779639
15.009497869018190385759 4647.10541521538198140 15.009497869018190385759 563.49027603147715126
16.009497869018190385759 4677.89950739250707556 16.009497869018190385759 542.61434910530113029
17.009497869018204596614 4705.59414836142332206 17.009497869018204596614 525.51313127136904768
18.009497869018190385759 4730.70663645036256639 18.009497869018190385759 510.55811711442896694
19.009497869018204596614 4753.64250559120773687 19.009497869018204596614 498.41783960072166337
20.009497869018190385759 4774.72144685257262609 20.009497869018190385759 487.38640814162488368
21.009497869018190385759 4794.20041661750929052 21.009497869018190385759 477.87354477645891393
22.009497869018204596614 4812.28964642811206431 22.009497869018204596614 469.61457474514787691
23.009497869018190385759 4829.15936158292424807 23.009497869018190385759 462.62286441363920630
24.009497869018204596614 4844.95236893793116906 24.009497869018204596614 456.25742023340990272
25.009497869018204596614 4859.78773690080470260 25.009497869018204596614 450.63397365105601011
26.009497869018190385759 4873.76574992030691647 26.009497869018190385759 445.88006476453057303
27.009497869018204596614 4886.97247629050252726 27.009497869018204596614 441.38855546527076967
28.009497869018190385759 4899.48099013106002531 28.009497869018190385759 437.36356329074192217
29.009497869018190385759 4911.35507312180925510 29.009497869018190385759 433.84306630062292243
30.009497869018190385759 4922.64988310650096537 30.009497869018190385759 430.54612804390200154
31.009497869018218807469 4933.41356850923693855 31.009497869018218807469 427.54829911362350003
32.009497869018190385759 4943.68914445564223570 32.009497869018190385759 424.81429207860873021
33.009497869018190385759 4953.51359409812994272 33.009497869018190385759 422.41133142412843426
34.009497869018218807469 4962.92107510805362836 34.009497869018218807469 420.09121224973205244
35.009497869018190385759 4971.94099810199259082 35.009497869018190385759 418.00694002130057925
36.009497869018190385759 4980.60019678837852553 36.009497869018190385759 416.01838383905231922
37.009497869018190385759 4988.92319009871607705 37.009497869018190385759 414.17073760769494584
38.009497869018218807469 4996.93134791957163543 38.009497869018218807469 412.45051477927415817
39.009497869018190385759 5004.64463075298772310 39.009497869018190385759 410.87334408206373837
40.009497869018190385759 5012.08119704583987186 40.009497869018190385759 409.45373792008149394
41.009497869018218807469 5019.25719165822829382 41.009497869018218807469 407.99454869464994999
42.009497869018190385759 5026.18774967651188490 42.009497869018190385759 406.68004165253449855
43.009497869018190385759 5032.88683014327398269 43.009497869018190385759 405.38671182481709820
44.009497869018218807469 5039.36688179634438711 44.009497869018218807469 404.21118565683241286
46.009497869018190385759 5051.71606728549795662 46.009497869018190385759 402.02995803194471591
48.009497869018218807469 5063.31882489324016206 48.009497869018218807469 400.01967083461499897
50.009497869018190385759 5074.24694938617903972 50.009497869018190385759 398.21705902242734965
52.009497869018190385759 5084.56256136471256468 52.009497869018190385759 396.56096702338783189
54.009497869018218807469 5094.32002800381451380 54.009497869018218807469 395.01211905694594861
56.009497869018190385759 5103.56686398621241096 56.009497869018190385759 393.58028756314325847
58.009497869018218807469 5112.34516727127720515 58.009497869018218807469 392.29911437149002040
60.009497869018190385759 5120.69215808266108070 60.009497869018190385759 391.05300997307227817
62.009497869018190385759 5128.64100748052260315 62.009497869018190385759 389.88889015446613939
64.009497869018218807469 5136.22144103950722638 64.009497869018218807469 388.79713658629805195
66.009497869018190385759 5143.46001160508603789 66.009497869018190385759 387.78109126086695824
68.009497869018190385759 5150.38081673961733031 68.009497869018190385759 386.83095632523946961
70.009497869018190385759 5157.00547390149313287 70.009497869018190385759 385.91301432534561400
72.009497869018190385759 5163.35367175349801983 72.009497869018190385759 385.05241536772155087
74.009497869018218807469 5169.44333581096725538 74.009497869018218807469 384.23087448593196314
76.009497869018190385759 5175.29071340007430990 76.009497869018190385759 383.44941272041148750
78.009497869018190385759 5180.91073873399363947 78.009497869018190385759 382.70841753510876515
80.009497869018218807469 5186.31707504952191812 80.009497869018218807469 381.99853185760946417
82.009497869018190385759 5191.52221965961962269 82.009497869018190385759 381.31887588391640520
84.009497869018218807469 5196.53773672674105910 84.009497869018218807469 380.66267847933062285
86.009497869018190385759 5201.37428032309435366 86.009497869018190385759 380.04188978959314227
88.009497869018190385759 5206.04164485442925070 88.009497869018190385759 379.43936974541622931
91.009497869018218807469 5212.74521568594627752 91.009497869018218807469 378.58358485161170393
94.009497869018218807469 5219.11644309835264721 94.009497869018218807469 377.77454313583348267
97.009497869018218807469 5225.18032368169406254 97.009497869018218807469 377.01478660616447769
99.504748934509137825444 5230.00613241317932989 99.504748934509137825444 376.30457217095164424
nan nan nan nan

