Time Pressure difference Time.1 Pressure.1 difference.1
(hr) (psi) (hr) (psi)
0.000200000000020850166 0.14887772103318606 0.000200000000020850166 0.11866327138040333
0.000399999999999067768 0.29770249420785305 0.000399999999999067768 0.31075549216358267
0.000600000000019917934 0.44648262031625369 0.000600000000019917934 0.45473616005101403
0.000799999999998135536 0.59522164332643612 0.000799999999998135536 0.60135972929523873
0.001007140329434719206 0.74923027946768628 0.001007140329434719206 0.75532815635301320
0.001267914553977789183 0.94305948695444319 0.001267914553977789183 0.95059710496052585
0.001596209851982166583 1.18699067761119958 0.001596209851982166583 1.19626786766000026
0.002009509145224797066 1.49395209481880142 0.002009509145224797066 1.50530767132067367
0.002529822128153114136 1.88019605656769229 0.002529822128153114136 1.89399730946755085
0.003184857364431081805 2.36614724512874108 0.003184857364431081805 2.38276568436013436
0.004009497869034817086 2.97746402606780336 0.004009497869034817086 2.99722790713714327
0.005047658755856332391 3.74636441359858718 0.005047658755856332391 3.76947295506741931
0.006354625877790454069 4.71327976697169326 0.006354625877790454069 4.73965521566412651
0.008000000000009777068 5.92891272567323036 0.008000000000009777068 5.95795283824380384
0.010071403294361402914 7.45679124210481969 0.010071403294361402914 7.48696374802525799
0.012679145539692626699 9.37642753437588006 0.012679145539692626699 9.40461581422088955
0.015962098519750611558 11.78720855043230564 0.015962098519750611558 11.80766820431134967
0.020095091452091651263 14.81316147544781714 0.020095091452091651263 14.81587186002487400
0.025298221281360611101 18.60875097541517320 0.025298221281360611101 18.57683112543733372
0.031848573644296607199 23.36586924436864265 0.031848573644296607199 23.27155486067566059
0.040094978690191851456 29.32216739762586144 0.040094978690191851456 29.12058755421912082
0.050476587558435426217 36.77083465994020628 0.050476587558435426217 36.39044550032427594
0.063546258777947173257 46.07184101264015652 0.063546258777947173257 45.39981752877048393
0.080000000000012505552 57.66449162958176800 0.080000000000012505552 56.52458139209869614
0.100714032943542974863 72.08085855497468231 0.100714032943542974863 70.20008364732110806
0.126791455396883634421 89.95920469867115798 0.126791455396883634421 86.91827618060628424
0.159620985197506115583 112.05583252446056974 0.159620985197506115583 107.21614783066235077
0.200950914520774404082 139.25280143138863309 0.200950914520774404082 131.65041949256340104
0.252982212813464002465 172.55759444099410871 0.252982212813464002465 160.75175106690102211
0.318485736442809752589 213.08903873401342821 0.318485736442809752589 194.94997771349676441
0.400949786901833249431 262.04164725705510364 0.400949786901833249431 234.46075663321568072
0.504765875584169521062 320.61830978539188663 0.504765875584169521062 279.12483513809854685
0.635462587779443310865 389.91963264292610347 0.635462587779443310865 328.19679095960901805
0.800000000000011368684 470.77881080794514901 0.800000000000011368684 380.09566405245351461
1.007140329435344483500 563.53680027813766173 1.007140329435344483500 432.16235170360624807
1.267914553968907398485 667.76849057112804076 1.267914553968907398485 480.52189007382355612
1.596209851975117999245 782.00119547409553888 1.596209851975117999245 520.21078131015622148
2.009509145207687197399 903.51074668501041742 2.009509145207687197399 545.75512006072790427
2.529822128134725289783 1028.32084863893578586 2.529822128134725289783 552.29628664927054160
3.184857364427983839050 1151.53053216217040244 3.184857364427983839050 537.09949476006090663
4.009497869018204596614 1268.01038263867621936 4.009497869018204596614 501.00066256189711567
5.009497869018190385759 1370.07991141051911654 5.009497869018190385759 450.68911729478821826
6.009497869018190385759 1443.88565498450452651 6.009497869018190385759 402.71304303503700339
7.009497869018204596614 1499.05560414356000365 7.009497869018204596614 360.65210021787459027
8.009497869018190385759 1541.55654286717208379 8.009497869018190385759 325.31944490117012947
9.009497869018204596614 1575.19652578088744121 9.009497869018204596614 296.55272726755697477
10.009497869018190385759 1602.47239925735743782 10.009497869018190385759 273.39115340862429093
11.009497869018190385759 1625.06566297095719165 11.009497869018190385759 253.82036853135488741
12.009497869018204596614 1644.13463371165448734 12.009497869018204596614 237.77129059008473178
13.009497869018190385759 1660.49563310768371593 13.009497869018190385759 224.56932409110660842
14.009497869018204596614 1674.73584293989097205 14.009497869018204596614 213.65958334177645384
15.009497869018190385759 1687.28573899300886296 15.009497869018190385759 204.59383247390343286
16.009497869018190385759 1698.46655542243183845 16.009497869018190385759 197.01413486784767315
17.009497869018204596614 1708.52201329958370479 17.009497869018204596614 190.80497058331656035
18.009497869018190385759 1717.63993493836710513 18.009497869018190385759 185.37505672106038901
19.009497869018204596614 1725.96756288200026574 19.009497869018204596614 180.96712634590093671
20.009497869018190385759 1733.62097157527477975 20.009497869018190385759 176.96179930497129362
21.009497869018190385759 1740.69345755483641369 21.009497869018190385759 173.50783877279135936
22.009497869018204596614 1747.26135235422316327 22.009497869018204596614 170.50914579996242537
23.009497869018190385759 1753.38646191347561398 23.009497869018190385759 167.97057348892781192
24.009497869018204596614 1759.12063699774762426 24.009497869018204596614 165.65938787379386099
25.009497869018204596614 1764.50710934126573193 25.009497869018204596614 163.61760909439965417
26.009497869018190385759 1769.58229053901618499 26.009497869018190385759 161.89154481308514733
27.009497869018204596614 1774.37743053955364303 27.009497869018204596614 160.26075340422607951
28.009497869018190385759 1778.91906132547615016 28.009497869018190385759 158.79934650921464367
29.009497869018190385759 1783.23034095092066309 29.009497869018190385759 157.52111332213286232
30.009497869018190385759 1787.33129630033181456 30.009497869018190385759 156.32405054738023864
31.009497869018218807469 1791.23940925588931350 31.009497869018218807469 155.23558933334402354
32.009497869018190385759 1794.97029788551708407 32.009497869018190385759 154.24291740785184857
33.009497869018190385759 1798.53739014921961825 33.009497869018190385759 153.37044284973427466
34.009497869018218807469 1801.95308812239659346 34.009497869018218807469 152.52804663834083954
35.009497869018190385759 1805.22807030478020351 35.009497869018190385759 151.77128248237892194
36.009497869018190385759 1808.37207956413749343 36.009497869018190385759 151.04927121133948731
37.009497869018190385759 1811.39401831170425794 37.009497869018190385759 150.37842197115088538
38.009497869018218807469 1814.30164559351601383 38.009497869018218807469 149.75383802330645722
39.009497869018190385759 1817.10220873181492607 39.009497869018190385759 149.18119389592172297
40.009497869018190385759 1819.80230075295207826 40.009497869018190385759 148.66575879856912934
41.009497869018218807469 1822.40778358381908220 41.009497869018218807469 148.13595175728670483
42.009497869018190385759 1824.92415251946385979 42.009497869018190385759 147.65867638094050562
43.009497869018190385759 1827.35647585323749809 43.009497869018190385759 147.18909009460904258
44.009497869018218807469 1829.70927351226305291 44.009497869018218807469 146.76227633381947157
46.009497869018190385759 1834.19305485619497631 46.009497869018190385759 145.97030930571622775
48.009497869018218807469 1838.40582080302237955 48.009497869018218807469 145.24040786895758970
50.009497869018190385759 1842.37363882378508606 50.009497869018190385759 144.58590986818356328
52.009497869018190385759 1846.11906386264399771 52.009497869018190385759 143.98461074480005095
54.009497869018218807469 1849.66183572552290570 54.009497869018218807469 143.42225012412438900
56.009497869018190385759 1853.01920619377688126 56.009497869018190385759 142.90237621460983064
58.009497869018218807469 1856.20646032770514466 58.009497869018218807469 142.43720379816778632
60.009497869018190385759 1859.23711216388710454 60.009497869018190385759 141.98476427014185219
62.009497869018190385759 1862.12320555580868131 62.009497869018190385759 141.56209196277777096
64.009497869018218807469 1864.87553335917186814 64.009497869018218807469 141.16569462261125523
66.009497869018190385759 1867.50373646513253334 66.009497869018190385759 140.79678567078133256
68.009497869018190385759 1870.01656429288345862 68.009497869018190385759 140.45180767184152160
70.009497869018190385759 1872.42186577762140587 70.009497869018190385759 140.11851838587600128
72.009497869018190385759 1874.72678954133084517 72.009497869018190385759 139.80604939314838475
74.009497869018218807469 1876.93784403684207973 74.009497869018218807469 139.50776173018624604
76.009497869018190385759 1879.06092839475331857 76.009497869018190385759 139.22402611958145258
78.009497869018190385759 1881.10146497643995644 78.009497869018190385759 138.95498324297054182
80.009497869018218807469 1883.06441467315289628 80.009497869018218807469 138.69723570489267672
82.009497869018190385759 1884.95431504882753870 82.009497869018190385759 138.45046406332866695
84.009497869018218807469 1886.77536485615951278 84.009497869018218807469 138.21220983326608689
86.009497869018190385759 1888.53143240939925818 86.009497869018190385759 137.98681191143441538
88.009497869018190385759 1890.22607389237896314 88.009497869018190385759 137.76804702724038521
91.009497869018218807469 1892.66002760199694421 91.009497869018218807469 137.45732594003749227
94.009497869018218807469 1894.97331301136932780 94.009497869018218807469 137.16357651382188010
97.009497869018218807469 1897.17500596150739511 97.009497869018218807469 136.88772170893193447
99.504748934509137825444 1898.92717586604294411 99.504748934509137825444 136.62985480446317865
nan nan nan nan

