Time Pressure difference Time.1 Pressure.1 difference.1
(hr) (psi) (hr) (psi)
0.000200000000020850166 0.85334380882708871 0.000200000000020850166 0.68015930969996541
0.000399999999999067768 1.70638412881149315 0.000399999999999067768 1.78120187128399898
0.000600000000019917934 2.55916853879595685 0.000600000000019917934 2.60647653749910813
0.000799999999998135536 3.41171735225096873 0.000799999999998135536 3.44689990087661924
0.001007140329434719206 4.29447076387623472 0.001007140329434719206 4.32942284032509228
0.001267914553977789183 5.40546946153775831 0.001267914553977789183 5.44867390887988545
0.001596209851982166583 6.80364488954799285 0.001596209851982166583 6.85682029172715257
0.002009509145224797066 8.56309971667089442 0.002009509145224797066 8.62818810488833243
0.002529822128153114136 10.77698968736565632 0.002529822128153114136 10.85609631013244147
0.003184857364431081805 13.56238588548652579 0.003184857364431081805 13.65764017962847987
0.004009497869034817086 17.06635804885791430 0.004009497869034817086 17.17964152359055419
0.005047658755856332391 21.47357479526340995 0.005047658755856332391 21.60602934021883925
0.006354625877790454069 27.01578235146903495 0.006354625877790454069 27.16696229760555070
0.008000000000009777068 33.98360031587002084 0.008000000000009777068 34.15005369853711414
0.010071403294361402914 42.74116097429912742 0.010071403294361402914 42.91410505851349200
0.012679145539692626699 53.74421592329414210 0.012679145539692626699 53.90578673402588095
0.015962098519750611558 67.56243560191924757 0.015962098519750611558 67.67970713756113810
0.020095091452091651263 84.90672443468972119 0.020095091452091651263 84.92225993511462434
0.025298221281360611101 106.66244972500541621 0.025298221281360611101 106.47949013798159967
0.031848573644296607199 133.92950751241468765 0.031848573644296607199 133.38891221817445398
0.040094978690191851456 168.07007681544209277 0.040094978690191851456 166.91465268507721476
0.050476587558435426217 210.76467240837231998 0.050476587558435426217 208.58434124766876039
0.063546258777947173257 264.07658591602682918 0.063546258777947173257 260.22465242747779257
0.080000000000012505552 330.52384587682064421 0.080000000000012505552 323.99005870554896092
0.100714032943542974863 413.15620601901690634 0.100714032943542974863 402.37589844777352255
0.126791455396883634421 515.63208950188050039 0.126791455396883634421 498.20196291230189445
0.159620985197506115583 642.28650374355606800 0.159620985197506115583 614.54618812435512609
0.200950914520774404082 798.17527524360195912 0.200950914520774404082 754.59961116966508143
0.252982212813464002465 989.07313908636854194 0.252982212813464002465 921.40389159017013299
0.318485736442809752589 1221.39303765976410432 0.318485736442809752589 1117.42277728518251934
0.400949786901833249431 1501.98173232256158371 0.400949786901833249431 1343.89238159597357480
0.504765875584169521062 1837.73399910509533584 0.504765875584169521062 1599.89989302619619593
0.635462587779443310865 2234.95834129409013258 0.635462587779443310865 1881.17266773496589849
0.800000000000011368684 2698.43050217291465742 0.800000000000011368684 2178.64889004367205416
1.007140329435344483500 3230.10478818642013721 1.007140329435344483500 2477.08699915027955285
1.267914553968907398485 3827.54453254735972223 1.267914553968907398485 2754.27630846783767993
1.596209851975117999245 4482.30852824816702196 1.596209851975117999245 2981.76682471631465887
2.009509145207687197399 5178.78226870849539409 2.009509145207687197399 3128.18297867210549157
2.529822128134725289783 5894.17424974049208686 2.529822128134725289783 3165.67592235838856141
3.184857364427983839050 6600.39288267255233222 3.184857364427983839050 3078.57028840124303315
4.009497869018204596614 7268.03716529207758867 4.009497869018204596614 2871.65742898606958988
5.009497869018190385759 7853.08373802900860028 5.009497869018190385759 2583.27952147738915301
6.009497869018190385759 8276.12671516257978510 6.009497869018190385759 2308.28816845780966105
7.009497869018204596614 8592.35223380610477761 7.009497869018204596614 2067.20142359519195452
8.009497869018190385759 8835.96096637831578846 8.009497869018190385759 1864.68017021564583047
9.009497869018204596614 9028.78008631950069685 9.009497869018204596614 1699.79384456152752136
10.009497869018190385759 9185.12112646954483353 10.009497869018190385759 1567.03532624161198328
11.009497869018190385759 9314.62217993409103656 11.009497869018190385759 1454.85864867692816915
12.009497869018204596614 9423.92253736400925845 12.009497869018204596614 1362.86784438786003193
13.009497869018190385759 9517.70122663957408804 13.009497869018190385759 1287.19623752779557435
14.009497869018204596614 9599.32388187892865972 14.009497869018204596614 1224.66331010426074499
15.009497869018190385759 9671.25792294316670450 15.009497869018190385759 1172.69984423589335165
16.009497869018190385759 9735.34461376209401351 16.009497869018190385759 1129.25420320900389015
17.009497869018204596614 9792.98092539314347960 17.009497869018204596614 1093.66424479599345432
18.009497869018190385759 9845.24342595957932645 18.009497869018190385759 1062.54082790954180382
19.009497869018204596614 9892.97608668677276000 19.009497869018204596614 1037.27526050778965327
20.009497869018190385759 9936.84422813537275943 20.009497869018190385759 1014.31735244078527103
21.009497869018190385759 9977.38261145956494147 21.009497869018190385759 994.51979095465890168
22.009497869018204596614 10015.02875706945815182 22.009497869018204596614 977.33175190369513530
23.009497869018190385759 10050.13692694539713557 23.009497869018190385759 962.78105251195506753
24.009497869018204596614 10083.00432156250826665 24.009497869018204596614 949.53369809224875553
25.009497869018204596614 10113.87873845887588686 25.009497869018204596614 937.83054151315104718
26.009497869018190385759 10142.96888320128891792 26.009497869018190385759 927.93701105153832032
27.009497869018204596614 10170.45387560660310555 27.009497869018204596614 918.58956979182096347
28.009497869018190385759 10196.48579284881816420 28.009497869018190385759 910.21301406957661584
29.009497869018190385759 10221.19737327175789687 29.009497869018190385759 902.88638138831470314
30.009497869018190385759 10244.70340784435938986 30.009497869018190385759 896.02500481347567529
31.009497869018218807469 10267.10409998068462301 31.009497869018218807469 889.78611539670930597
32.009497869018190385759 10288.48897000301985827 32.009497869018190385759 884.09627519807827412
33.009497869018190385759 10308.93498487764918536 33.009497869018190385759 879.09538750741535296
34.009497869018218807469 10328.51323136077553499 34.009497869018218807469 874.26690419518274666
35.009497869018190385759 10347.28491694248259591 35.009497869018190385759 869.92925042972490246
36.009497869018190385759 10365.30588621678907657 36.009497869018190385759 865.79079476443757812
37.009497869018190385759 10382.62716641233964765 37.009497869018190385759 861.94559185698778947
38.009497869018218807469 10399.29323116730483889 38.009497869018218807469 858.36557436822579348
39.009497869018190385759 10415.34562099911818223 39.009497869018190385759 855.08326780567426795
40.009497869018190385759 10430.82212610351416515 40.009497869018190385759 852.12887445436831513
41.009497869018218807469 10445.75634612848079996 41.009497869018218807469 849.09210336858177470
42.009497869018190385759 10460.17977924564002024 42.009497869018190385759 846.35643556896627615
43.009497869018190385759 10474.12147611967338889 43.009497869018190385759 843.66484043055243092
44.009497869018218807469 10487.60734426581984735 44.009497869018218807469 841.21841071787025612
46.009497869018190385759 10513.30767755562010279 46.009497869018190385759 836.67897959589311085
48.009497869018218807469 10537.45459298268724524 48.009497869018218807469 832.49529873491883336
50.009497869018190385759 10560.19750521342757565 50.009497869018190385759 828.74381857405774099
52.009497869018190385759 10581.66569565962527122 52.009497869018190385759 825.29726605678695250
54.009497869018218807469 10601.97230980104359332 54.009497869018218807469 822.07390294609854209
56.009497869018190385759 10621.21623214980718330 56.009497869018190385759 819.09406701781938409
58.009497869018218807469 10639.48507428058837831 58.009497869018218807469 816.42777149117398494
60.009497869018190385759 10656.85629653714022425 60.009497869018190385759 813.83445888919300160
62.009497869018190385759 10673.39893240368473926 62.009497869018190385759 811.41176733972065449
64.009497869018218807469 10689.17484484083979623 64.009497869018218807469 809.13967979217397897
66.009497869018190385759 10704.23929392863828980 66.009497869018190385759 807.02515138671299155
68.009497869018190385759 10718.64242996926441265 68.009497869018190385759 805.04779145982911359
70.009497869018190385759 10732.42924183150535100 70.009497869018190385759 803.13742940731151521
72.009497869018190385759 10745.64070429835373943 72.009497869018190385759 801.34640601882813371
74.009497869018218807469 10758.31412280335280229 74.009497869018218807469 799.63666779425182085
76.009497869018190385759 10770.48331024031722336 76.009497869018190385759 798.01033965748911214
78.009497869018190385759 10782.17934673646595911 78.009497869018190385759 796.46822797367451585
80.009497869018218807469 10793.43066734444073518 80.009497869018218807469 794.99085940346310508
82.009497869018190385759 10804.26328067093345453 82.009497869018190385759 793.57640295516887363
84.009497869018218807469 10814.70125330960763677 84.009497869018218807469 792.21076697726812199
86.009497869018190385759 10824.76675783264727215 86.009497869018190385759 790.91882134710454011
88.009497869018190385759 10834.48017772950333892 88.009497869018190385759 789.66489525110966952
91.009497869018218807469 10848.43121966284343216 91.009497869018218807469 787.88389058367863527
94.009497869018218807469 10861.69060977466506301 94.009497869018218807469 786.20016482224161791
97.009497869018218807469 10874.31036936595955922 97.009497869018218807469 784.61900823108476288
99.504748934509137825444 10884.35353317631415848 99.504748934509137825444 783.14095547139231712
nan nan nan nan

