Time Pressure difference Time.1 Pressure.1 difference.1
(hr) (psi) (hr) (psi)
0.000200000000020850166 0.22622759844148943 0.000200000000020850166 0.18031513863390897
0.000399999999999067768 0.45237473980187731 0.000399999999999067768 0.47220946295248317
0.000600000000019917934 0.67845403757553635 0.000600000000019917934 0.69099572923952968
0.000799999999998135536 0.90447087701000350 0.000799999999998135536 0.91379802440393809
0.001007140329434719206 1.13849517326933336 0.001007140329434719206 1.14776122082692500
0.001267914553977789183 1.43302894107043866 0.001267914553977789183 1.44448275167186035
0.001596209851982166583 1.80369533134215820 0.001596209851982166583 1.81779251398614572
0.002009509145224797066 2.27013949603750831 0.002009509145224797066 2.28739489720236477
0.002529822128153114136 2.85705769489615813 0.002529822128153114136 2.87802943114622245
0.003184857364431081805 3.59548631662020979 0.003184857364431081805 3.62073891701651718
0.004009497869034817086 4.52441460944381291 0.004009497869034817086 4.55444687564973716
0.005047658755856332391 5.69279955585930608 0.005047658755856332391 5.72791421105216791
0.006354625877790454069 7.16207875204637112 0.006354625877790454069 7.20215764614883991
0.008000000000009777068 9.00929754962636231 0.008000000000009777068 9.05342554191237170
0.010071403294361402914 11.33099004386877517 0.010071403294361402914 11.37683876794899618
0.012679145539692626699 14.24797927011306875 0.012679145539692626699 14.29081285736358531
0.015962098519750611558 17.91128897048931634 0.015962098519750611558 17.94237850040607185
0.020095091452091651263 22.50938503531735435 0.020095091452091651263 22.51350360852941535
0.025298221281360611101 28.27698472241858951 0.025298221281360611101 28.22848081630701245
0.031848573644296607199 35.50567840485066995 0.031848573644296607199 35.36236269331720905
0.040094978690191851456 44.55658956510745838 0.040094978690191851456 44.25027829467934026
0.050476587558435426217 55.87523479052365616 0.050476587558435426217 55.29721327423577293
0.063546258777947173257 70.00860757228001319 0.063546258777947173257 68.98743222248921825
0.080000000000012505552 87.62425543712984677 0.080000000000012505552 85.89210133324493768
0.100714032943542974863 109.53069009471012407 0.100714032943542974863 106.67275280486784084
0.126791455396883634421 136.69778591082990715 0.126791455396883634421 132.07693363756931149
0.159620985197506115583 170.27478461817472066 0.159620985197506115583 162.92062687117407904
0.200950914520774404082 211.60202228680284975 0.200950914520774404082 200.04979945238687833
0.252982212813464002465 262.21042283771168968 0.252982212813464002465 244.27081726367080705
0.318485736442809752589 323.80010355112659681 0.318485736442809752589 296.23683764285539155
0.400949786901833249431 398.18619024535746576 0.400949786901833249431 356.27556315214894767
0.504765875584169521062 487.19653777445029164 0.504765875584169521062 424.14500088023919488
0.635462587779443310865 592.50357585964184182 0.635462587779443310865 498.71244212856800004
0.800000000000011368684 715.37338849028526511 0.800000000000011368684 577.57553420261092469
1.007140329435344483500 856.32407640029850882 1.007140329435344483500 656.69362940436258214
1.267914553968907398485 1014.70966164998219483 1.267914553968907398485 730.17851452558659275
1.596209851975117999245 1188.29231937963118071 1.596209851975117999245 790.48789115286308515
2.009509145207687197399 1372.93253127554658022 2.009509145207687197399 829.30386958948611209
2.529822128134725289783 1562.58810519436042341 2.529822128134725289783 839.24351937766255105
3.184857364427983839050 1749.81175836933152823 3.184857364427983839050 816.15118756836079683
4.009497869018204596614 1926.80907305988785083 4.009497869018204596614 761.29709618344145383
5.009497869018190385759 2081.90913912659880225 5.009497869018190385759 684.84603298425918183
6.009497869018190385759 2194.06088355187284833 6.009497869018190385759 611.94384193033556585
7.009497869018204596614 2277.89454931311911423 7.009497869018204596614 548.03000703498264556
8.009497869018190385759 2342.47698134006031978 8.009497869018190385759 494.34016208445967777
9.009497869018204596614 2393.59472073967253891 9.009497869018204596614 450.62760791494690693
10.009497869018190385759 2435.04185808939246272 10.009497869018190385759 415.43236719075866858
11.009497869018190385759 2469.37352138603546337 11.009497869018190385759 385.69352089680745621
12.009497869018204596614 2498.34983446687192554 12.009497869018204596614 361.30609519834104049
13.009497869018190385759 2523.21124137033530133 13.009497869018190385759 341.24500644011732220
14.009497869018204596614 2544.84999597570049445 14.009497869018204596614 324.66707636292295547
15.009497869018190385759 2563.92022908434864803 15.009497869018190385759 310.89118677598736440
16.009497869018190385759 2580.91007304414188184 16.009497869018190385759 299.37343398913162673
17.009497869018204596614 2596.18987495802639387 17.009497869018204596614 289.93827932213469012
18.009497869018190385759 2610.04504080020024048 18.009497869018190385759 281.68723702865048608
19.009497869018204596614 2622.69931342963172938 19.009497869018204596614 274.98915288315674843
20.009497869018190385759 2634.32907412555732662 20.009497869018190385759 268.90284587124131122
21.009497869018190385759 2645.07609192690188138 21.009497869018190385759 263.65436953183939295
22.009497869018204596614 2655.05635664999272194 22.009497869018204596614 259.09769641111608962
23.009497869018190385759 2664.36378570092392692 23.009497869018190385759 255.24020105580092377
24.009497869018204596614 2673.07716906920313704 24.009497869018204596614 251.72823185291582604
25.009497869018204596614 2681.26219966940925588 25.009497869018204596614 248.62564063506536627
26.009497869018190385759 2688.97420685258293815 26.009497869018190385759 246.00279435284448937
27.009497869018204596614 2696.26067657407065781 27.009497869018204596614 243.52472025670107314
28.009497869018190385759 2703.16192558955026470 28.009497869018190385759 241.30403491903004465
29.009497869018190385759 2709.71314379134310002 29.009497869018190385759 239.36169175206785553
30.009497869018190385759 2715.94476309324181784 30.009497869018190385759 237.54269133456662644
31.009497869018218807469 2721.88334814302743325 31.009497869018218807469 235.88871675234398140
32.009497869018190385759 2727.55263142380272257 32.009497869018190385759 234.38029907785309547
33.009497869018190385759 2732.97301743345087743 33.009497869018190385759 233.05452768227775096
34.009497869018218807469 2738.16335178375356918 34.009497869018218807469 231.77446193088664472
35.009497869018190385759 2743.13986102178887450 35.009497869018190385759 230.62451863244169203
36.009497869018190385759 2747.91734995220940618 36.009497869018190385759 229.52738418706337598
37.009497869018190385759 2752.50934626136086081 37.009497869018190385759 228.50799316286614271
38.009497869018218807469 2756.92764023148856722 38.009497869018218807469 227.55890470580644092
39.009497869018190385759 2761.18324455337278778 39.009497869018190385759 226.68874156251791874
40.009497869018190385759 2765.28617768046342462 40.009497869018190385759 225.90551057659666867
41.009497869018218807469 2769.24534712178046902 41.009497869018218807469 225.10044065911719713
42.009497869018190385759 2773.06910326980005266 42.009497869018190385759 224.37519539450178740
43.009497869018190385759 2776.76514766525451705 43.009497869018190385759 223.66163411024390939
44.009497869018218807469 2780.34034857729375290 44.009497869018218807469 223.01306794859718252
46.009497869018190385759 2787.15369229544694463 46.009497869018190385759 221.80963201762466497
48.009497869018218807469 2793.55521373420151576 48.009497869018218807469 220.70050804668412070
50.009497869018190385759 2799.58452379927121001 50.009497869018190385759 219.70596359858060964
52.009497869018190385759 2805.27589592535878182 52.009497869018190385759 218.79225766807604714
54.009497869018218807469 2810.65932579520813306 54.009497869018218807469 217.93772085900465640
56.009497869018190385759 2815.76102840618614209 56.009497869018190385759 217.14774486242384910
58.009497869018218807469 2820.60423021863562099 58.009497869018218807469 216.44089068771862117
60.009497869018190385759 2825.20946652836482826 60.009497869018190385759 215.75338481272953572
62.009497869018190385759 2829.59503860994391289 62.009497869018190385759 215.11111180936063647
64.009497869018218807469 2833.77734678041770167 64.009497869018218807469 214.50876501312995970
66.009497869018190385759 2837.77104088556461647 66.009497869018190385759 213.94818828185765369
68.009497869018190385759 2841.58941613220304134 68.009497869018190385759 213.42397590358041271
70.009497869018190385759 2845.24439939392777887 70.009497869018190385759 212.91752514501825999
72.009497869018190385759 2848.74685338124027112 72.009497869018190385759 212.44271192701879158
74.009497869018218807469 2852.10666803363710642 74.009497869018218807469 211.98944799223829705
76.009497869018190385759 2855.33280739314477614 76.009497869018190385759 211.55829667333046018
78.009497869018190385759 2858.43351102565156907 78.009497869018190385759 211.14947174350825776
80.009497869018218807469 2861.41631726870173225 80.009497869018218807469 210.75781068006040186
82.009497869018190385759 2864.28812119151461957 82.009497869018190385759 210.38282807388492301
84.009497869018218807469 2867.05530302165016110 84.009497869018218807469 210.02078812652723627
86.009497869018190385759 2869.72374086791433001 86.009497869018190385759 209.67828402184449033
88.009497869018190385759 2872.29883854037507263 88.009497869018190385759 209.34585916988484655
91.009497869018218807469 2875.99736037845377723 91.009497869018218807469 208.87370198709609781
94.009497869018218807469 2879.51252033012542597 94.009497869018218807469 208.42733414390812641
97.009497869018218807469 2882.85810961748620684 97.009497869018218807469 208.00815812753901923
99.504748934509137825444 2885.52062477968547682 99.504748934509137825444 207.61631568052507646
nan nan nan nan

