Time Pressure difference Time.1 Pressure.1 difference.1
(hr) (psi) (hr) (psi)
0.000200000000020850166 0.50984381560526837 0.000200000000020850166 0.40637198523009632
0.000399999999999067768 1.01950630697996614 0.000399999999999067768 1.06420735584511816
0.000600000000019917934 1.52901590085957273 0.000600000000019917934 1.55728081626408699
0.000799999999998135536 2.03838473384975050 0.000799999999998135536 2.05940510646916941
0.001007140329434719206 2.56579978387537233 0.001007140329434719206 2.58668245723126855
0.001267914553977789183 3.22958360616242279 0.001267914553977789183 3.25539678961342061
0.001596209851982166583 4.06494572835567247 0.001596209851982166583 4.09671621718201262
0.002009509145224797066 5.11615996717276644 0.002009509145224797066 5.15504805876856498
0.002529822128153114136 6.43888370210053296 0.002529822128153114136 6.48614721063468558
0.003184857364431081805 8.10306291208892837 0.003184857364431081805 8.15997410342325402
0.004009497869034817086 10.19656674848918243 0.004009497869034817086 10.26424976019591639
0.005047658755856332391 12.82972841081527449 0.005047658755856332391 12.90886548299624614
0.006354625877790454069 16.14100836398685956 0.006354625877790454069 16.23133322459278816
0.008000000000009777068 20.30404190412117771 0.008000000000009777068 20.40349212203045681
0.010071403294361402914 25.53638565033661578 0.010071403294361402914 25.63971384100270257
0.012679145539692626699 32.11033563448275885 0.012679145539692626699 32.20686868222013999
0.015962098519750611558 40.36625051069834313 0.015962098519750611558 40.43631625275339303
0.020095091452091651263 50.72887142150565154 0.020095091452091651263 50.73815335304607288
0.025298221281360611101 63.72717512809777674 0.025298221281360611101 63.61786301616248807
0.031848573644296607199 80.01831199328479727 0.031848573644296607199 79.69532474633619756
0.040094978690191851456 100.41613751253996156 0.040094978690191851456 99.72581100970012358
0.050476587558435426217 125.92470193599635309 0.050476587558435426217 124.62202844524459522
0.063546258777947173257 157.77675162429281386 0.063546258777947173257 155.47535276612461530
0.080000000000012505552 197.47672273147276201 0.080000000000012505552 193.57300778411450892
0.100714032943542974863 246.84673907374008195 0.100714032943542974863 240.40587304920580891
0.126791455396883634421 308.07258368874533971 0.126791455396883634421 297.65867764643377313
0.159620985197506115583 383.74427562845994544 0.159620985197506115583 367.17038335305039709
0.200950914520774404082 476.88249875665496802 0.200950914520774404082 450.84752597173945787
0.252982212813464002465 590.93746029234296202 0.252982212813464002465 550.50739331849342761
0.318485736442809752589 729.74067454720795922 0.318485736442809752589 667.62199071717043353
0.400949786901833249431 897.38284786913277458 0.400949786901833249431 802.92985372157102120
0.504765875584169521062 1097.98337373433082576 0.504765875584169521062 955.88560860142138154
0.635462587779443310865 1335.31136765426640522 0.635462587779443310865 1123.93649641475053613
0.800000000000011368684 1612.22017332553286906 0.800000000000011368684 1301.66839141985497008
1.007140329435344483500 1929.87742218155494811 1.007140329435344483500 1479.97498097380230320
1.267914553968907398485 2286.82728893911462364 1.267914553968907398485 1645.58613751538450742
1.596209851975117999245 2678.02644036659512494 1.596209851975117999245 1781.50396057612169898
2.009509145207687197399 3094.14574144084554064 2.009509145207687197399 1868.98261786159901021
2.529822128134725289783 3521.56804589758439761 2.529822128134725289783 1891.38337271509954007
3.184857364427983839050 3943.50958779558914102 3.184857364427983839050 1839.34072786546016687
4.009497869018204596614 4342.40427127099701465 4.009497869018204596614 1715.71735279577046640
5.009497869018190385759 4691.94964075222378597 5.009497869018190385759 1543.42139051231947633
6.009497869018190385759 4944.70338829888896726 6.009497869018190385759 1379.12343787976351450
7.009497869018204596614 5133.63734826816926216 7.009497869018204596614 1235.08233203104555287
8.009497869018190385759 5279.18525574065097317 8.009497869018190385759 1114.08279175652114645
9.009497869018204596614 5394.38810225521865505 9.009497869018204596614 1015.56883695537669610
10.009497869018190385759 5487.79654047351959889 10.009497869018190385759 936.25015105858494735
11.009497869018190385759 5565.16900224132314179 11.009497869018190385759 869.22841290346684673
12.009497869018204596614 5630.47223723600109224 12.009497869018204596614 814.26704542861421032
13.009497869018190385759 5686.50180500005717477 13.009497869018190385759 769.05584171982320640
14.009497869018204596614 5735.26855710700147029 14.009497869018204596614 731.69455077379313934
15.009497869018190385759 5778.24669275259475398 15.009497869018190385759 700.64815255029498076
16.009497869018190385759 5816.53630432374666270 16.009497869018190385759 674.69086410050624636
17.009497869018204596614 5850.97203437231746648 17.009497869018204596614 653.42707803113432874
18.009497869018190385759 5882.19709562692241889 18.009497869018190385759 634.83189815648063359
19.009497869018204596614 5910.71573210428050515 19.009497869018204596614 619.73658351976132508
20.009497869018190385759 5936.92545014325969532 20.009497869018190385759 606.02001661423139467
21.009497869018190385759 5961.14575129114291485 21.009497869018190385759 594.19164898168219224
22.009497869018204596614 5983.63803906781413389 22.009497869018204596614 583.92238198534619187
23.009497869018190385759 6004.61397292156743788 23.009497869018190385759 575.22883546766900054
24.009497869018204596614 6024.25111999787350214 24.009497869018204596614 567.31399310969641192
25.009497869018204596614 6042.69753087260232860 25.009497869018204596614 560.32175628417314783
26.009497869018190385759 6060.07790000232944294 26.009497869018190385759 554.41070933196203896
27.009497869018204596614 6076.49924536729849933 27.009497869018204596614 548.82593204910938312
28.009497869018190385759 6092.05242789115527557 28.009497869018190385759 543.82122575501989559
29.009497869018190385759 6106.81675420622559614 29.009497869018190385759 539.44381266182938361
30.009497869018190385759 6120.86080800057789020 30.009497869018190385759 535.34437422091673398
31.009497869018218807469 6134.24445739586735726 31.009497869018218807469 531.61685062201058827
32.009497869018190385759 6147.02118773084930581 32.009497869018190385759 528.21736520119100078
33.009497869018190385759 6159.23698414229875198 33.009497869018190385759 525.22950540160388755
34.009497869018218807469 6170.93431854206210119 34.009497869018218807469 522.34465133688797778
35.009497869018190385759 6182.14976031748756213 35.009497869018190385759 519.75305118267192483
36.009497869018190385759 6192.91667470847187360 36.009497869018190385759 517.28046509805096775
37.009497869018190385759 6203.26554874343401025 37.009497869018190385759 514.98308753248886660
38.009497869018218807469 6213.22295390405179205 38.009497869018218807469 512.84414920830647588
39.009497869018190385759 6222.81370923241593118 39.009497869018190385759 510.88308300670405515
40.009497869018190385759 6232.06039308133858867 40.009497869018190385759 509.11793376269764622
41.009497869018218807469 6240.98308009430638776 41.009497869018218807469 507.30356663249568783
42.009497869018190385759 6249.60058935436427419 42.009497869018190385759 505.66909844422639253
43.009497869018190385759 6257.93027764265207225 43.009497869018190385759 504.06096216757174489
44.009497869018218807469 6265.98762381573851599 44.009497869018218807469 502.59930386944887459
46.009497869018190385759 6281.34269623937143479 46.009497869018190385759 499.88714862795563931
48.009497869018218807469 6295.76965448185910645 48.009497869018218807469 497.38754203168156209
50.009497869018190385759 6309.35776870938661887 50.009497869018190385759 495.14616061003641789
52.009497869018190385759 6322.18428015531208075 52.009497869018190385759 493.08696305342135702
54.009497869018218807469 6334.31678938405366353 54.009497869018218807469 491.16111355356565582
56.009497869018190385759 6345.81437651835403813 56.009497869018190385759 489.38076323774208731
58.009497869018218807469 6356.72938648538092821 58.009497869018218807469 487.78774261607173912
60.009497869018190385759 6367.10809919811617874 60.009497869018190385759 486.23832680221755709
62.009497869018190385759 6376.99175980843938305 62.009497869018190385759 484.79085124683115282
64.009497869018218807469 6386.41732932498416631 64.009497869018218807469 483.43335644503179083
66.009497869018190385759 6395.41782376048195147 66.009497869018190385759 482.16999785580418347
68.009497869018190385759 6404.02320620970658638 68.009497869018190385759 480.98859275328965168
70.009497869018190385759 6412.26035598704947915 70.009497869018190385759 479.84721659520664616
72.009497869018190385759 6420.15375412757384765 72.009497869018190385759 478.77714121787687418
74.009497869018218807469 6427.72568935521849198 74.009497869018218807469 477.75563095309587425
76.009497869018190385759 6434.99636372058012057 76.009497869018190385759 476.78395537041018315
78.009497869018190385759 6441.98434653942877048 78.009497869018190385759 475.86259624548000602
80.009497869018218807469 6448.70662678571352444 80.009497869018218807469 474.97991892234199440
82.009497869018190385759 6455.17874371469952166 82.009497869018190385759 474.13482944592448121
84.009497869018218807469 6461.41507629511670530 84.009497869018218807469 473.31890853515142226
86.009497869018190385759 6467.42887188246822916 86.009497869018190385759 472.54701509334802267
88.009497869018190385759 6473.23230891635921580 88.009497869018190385759 471.79783702624780517
91.009497869018218807469 6481.56758055879436142 91.009497869018218807469 470.73374749297755670
94.009497869018218807469 6489.48961383223195298 94.009497869018218807469 469.72777878755766778
97.009497869018218807469 6497.02948968940836494 97.009497869018218807469 468.78309166243172967
99.504748934509137825444 6503.02993746304127853 99.504748934509137825444 467.90000555941861649
nan nan nan nan

