Time Pressure difference Time.1 Pressure.1 difference.1
(hr) (psi) (hr) (psi)
0.000200000000020850166 0.87330506751310244 0.000200000000020850166 0.69606946899119271
0.000399999999999067768 1.74629954702930590 0.000399999999999067768 1.82286741213274750
0.000600000000019917934 2.61903213034673987 0.000600000000019917934 2.66744674890259592
0.000799999999998135536 3.49152360610479295 0.000799999999998135536 3.52752913832402593
0.001007140329434719206 4.39492622034117630 0.001007140329434719206 4.43069588922158530
0.001267914553977789183 5.53191319163220907 0.001267914553977789183 5.57612826932151950
0.001596209851982166583 6.96279447760759584 0.001596209851982166583 7.01721374884357729
0.002009509145224797066 8.76340614279185282 0.002009509145224797066 8.83001706640618700
0.002529822128153114136 11.02908301338590391 0.002529822128153114136 11.11004008346887417
0.003184857364431081805 13.87963467812948615 0.003184857364431081805 13.97711714289464346
0.004009497869034817086 17.46557110263236723 0.004009497869034817086 17.58150448320670733
0.005047658755856332391 21.97588063842746564 0.005047658755856332391 22.11143353531167932
0.006354625877790454069 27.64773047664959549 0.006354625877790454069 27.80244679579515577
0.008000000000009777068 34.77853833495471036 0.008000000000009777068 34.94888536399996326
0.010071403294361402914 43.74095421346402190 0.010071403294361402914 43.91794377333252442
0.012679145539692626699 55.00139056477470945 0.012679145539692626699 55.16674080967560911
0.015962098519750611558 69.14284345225654249 0.015962098519750611558 69.26285818171461983
0.020095091452091651263 86.89284664368831557 0.020095091452091651263 86.90874554763193771
0.025298221281360611101 109.15747778874823837 0.025298221281360611101 108.97023844530281167
0.031848573644296607199 137.06236148931327534 0.031848573644296607199 136.50912069111421943
0.040094978690191851456 172.00154060059861649 0.040094978690191851456 170.81908900519596273
0.050476587558435426217 215.69484018400675041 0.050476587558435426217 213.46350712480722223
0.063546258777947173257 270.25381599593390547 0.063546258777947173257 266.31177880005031966
0.080000000000012505552 338.25539782715560477 0.080000000000012505552 331.56877352907054046
0.100714032943542974863 422.82067867443248588 0.100714032943542974863 411.78820016585012809
0.126791455396883634421 527.69365884695366731 0.126791455396883634421 509.85580999796985679
0.159620985197506115583 657.31074944515978586 0.159620985197506115583 628.92153755416461536
0.200950914520774404082 816.84604191596690725 0.200950914520774404082 772.25106406252280067
0.252982212813464002465 1012.20935286616656867 0.252982212813464002465 942.95719899578818968
0.318485736442809752589 1249.96363503192242206 0.318485736442809752589 1143.56132178308143921
0.400949786901833249431 1537.11580793244615961 0.400949786901833249431 1375.32846069763400010
0.504765875584169521062 1880.72192890872338467 0.504765875584169521062 1637.32445192739373852
0.635462587779443310865 2287.23806857582349039 0.635462587779443310865 1925.17670674630994654
0.800000000000011368684 2761.55168351029260521 0.800000000000011368684 2229.61143717919685514
1.007140329435344483500 3305.66279492762259906 1.007140329435344483500 2535.03055468595812272
1.267914553968907398485 3917.07773798706375601 1.267914553968907398485 2818.70382445538916727
1.596209851975117999245 4587.15785054637035500 1.596209851975117999245 3051.51575628862565281
2.009509145207687197399 5299.92337440927894932 2.009509145207687197399 3201.35684951823668598
2.529822128134725289783 6032.04967078705340100 2.529822128134725289783 3239.72682112700567814
3.184857364427983839050 6754.78803782278737344 3.184857364427983839050 3150.58362848080423646
4.009497869018204596614 7438.04973056206654292 4.009497869018204596614 2938.83070217872591456
5.009497869018190385759 8036.78160324606142240 5.009497869018190385759 2643.70711262305894707
6.009497869018190385759 8469.72032253480210784 6.009497869018190385759 2362.28321333401572701
7.009497869018204596614 8793.34292933373217238 7.009497869018204596614 2115.55701245121963439
8.009497869018190385759 9042.65011179067369085 8.009497869018190385759 1908.29841981133336049
9.009497869018204596614 9239.97962050241403631 9.009497869018204596614 1739.55510408343479867
10.009497869018190385759 9399.97776100684495759 10.009497869018190385759 1603.69112334667897812
11.009497869018190385759 9532.50807887991686584 11.009497869018190385759 1488.89042993252883207
12.009497869018204596614 9644.36516981696695439 12.009497869018204596614 1394.74779396418421129
13.009497869018190385759 9740.33751264283819182 13.009497869018190385759 1317.30609103721758402
14.009497869018204596614 9823.86946975913815550 14.009497869018204596614 1253.31040507745979085
15.009497869018190385759 9897.48617845061016851 15.009497869018190385759 1200.13141953965714492
16.009497869018190385759 9963.07197314834411372 16.009497869018190385759 1155.66950620804504979
17.009497869018204596614 10022.05650259532376367 17.009497869018204596614 1119.24703414794635137
18.009497869018190385759 10075.54151779489075125 18.009497869018190385759 1087.39558411795201209
19.009497869018204596614 10124.39073198938785936 19.009497869018204596614 1061.53900929159749467
20.009497869018190385759 10169.28502879351071897 20.009497869018190385759 1038.04407413530657323
21.009497869018190385759 10210.77167839429057494 21.009497869018190385759 1017.78341179570350050
22.009497869018204596614 10249.29843559739856573 22.009497869018204596614 1000.19331335173490061
23.009497869018190385759 10285.22784921312450024 23.009497869018190385759 985.30224672276096953
24.009497869018204596614 10318.86407177449837036 24.009497869018204596614 971.74501266750587547
25.009497869018204596614 10350.46069725323468447 25.009497869018204596614 959.76809803977437241
26.009497869018190385759 10380.23131321769324131 26.009497869018190385759 949.64313996502460213
27.009497869018204596614 10408.35922942196157237 27.009497869018204596614 940.07704510858877711
28.009497869018190385759 10435.00008040083775995 28.009497869018190385759 931.50454656243221052
29.009497869018190385759 10460.28970948864116508 29.009497869018190385759 924.00653066055599538
30.009497869018190385759 10484.34559282317604811 30.009497869018190385759 916.98465404887861041
31.009497869018218807469 10507.27027775801252574 31.009497869018218807469 910.59982569838666677
32.009497869018190385759 10529.15537865806072659 32.009497869018190385759 904.77688982259462591
33.009497869018190385759 10550.07966288648276532 33.009497869018190385759 899.65902230291044361
34.009497869018218807469 10570.11588004757868475 34.009497869018218807469 894.71759201261397720
35.009497869018190385759 10589.32666938558213587 35.009497869018190385759 890.27847266199921705
36.009497869018190385759 10607.76918180080792808 36.009497869018190385759 886.04321101623725099
37.009497869018190385759 10625.49563814128305239 37.009497869018190385759 882.10806184194655089
38.009497869018218807469 10642.55155236420068832 38.009497869018218807469 878.44430125403221155
39.009497869018190385759 10658.97943669500273245 39.009497869018190385759 875.08521559060227446
40.009497869018190385759 10674.81796531061445421 40.009497869018190385759 872.06171362289160243
41.009497869018218807469 10690.10152381569787394 41.009497869018218807469 868.95390695615094501
42.009497869018190385759 10704.86234718121158949 42.009497869018190385759 866.15424692730459810
43.009497869018190385759 10719.13016561955009820 43.009497869018190385759 863.39969049910337162
44.009497869018218807469 10732.93149266969885502 44.009497869018218807469 860.89603436039351436
46.009497869018190385759 10759.23300334639679932 46.009497869018190385759 856.25041771509529553
48.009497869018218807469 10783.94475890041030652 48.009497869018218807469 851.96887297433215736
50.009497869018190385759 10807.21966907806927338 50.009497869018190385759 848.12963889157947506
52.009497869018190385759 10829.19003941774462874 52.009497869018190385759 844.60246526279354384
54.009497869018218807469 10849.97166207709051378 54.009497869018218807469 841.30370184542243805
56.009497869018190385759 10869.66573465623514494 56.009497869018190385759 838.25416215273924081
58.009497869018218807469 10888.36191812340985052 58.009497869018218807469 835.52549714009023774
60.009497869018190385759 10906.13948476023142575 60.009497869018190385759 832.87152225502200054
62.009497869018190385759 10923.06908286926773144 62.009497869018190385759 830.39215955819361170
64.009497869018218807469 10939.21402249793391093 64.009497869018218807469 828.06692376392072674
66.009497869018190385759 10954.63085635971765441 66.009497869018190385759 825.90293270570043660
68.009497869018190385759 10969.37090786328371905 68.009497869018190385759 823.87931874543915001
70.009497869018190385759 10983.48021824861825735 70.009497869018190385759 821.92426986128373301
72.009497869018190385759 10997.00072077317054209 72.009497869018190385759 820.09135118885933480
74.009497869018218807469 11009.97059351220195822 74.009497869018218807469 818.34161908768464855
76.009497869018190385759 11022.42444030441947689 76.009497869018190385759 816.67724818748888538
78.009497869018190385759 11034.39406829755171202 78.009497869018190385759 815.09906371574891182
80.009497869018218807469 11045.90857769167996594 80.009497869018218807469 813.58713681640961113
82.009497869018190385759 11056.99458548194888863 82.009497869018190385759 812.13959366757046610
84.009497869018218807469 11067.67672122328076512 84.009497869018218807469 810.74201298843229324
86.009497869018190385759 11077.97767614452095586 86.009497869018190385759 809.41984640785551619
88.009497869018190385759 11087.91831054188696726 88.009497869018190385759 808.13658870727601879
91.009497869018218807469 11102.19569263741323084 91.009497869018218807469 806.31392311195179445
94.009497869018218807469 11115.76524392144165176 94.009497869018218807469 804.59081195258647767
97.009497869018218807469 11128.68020256750060071 97.009497869018218807469 802.97266924233815644
99.504748934509137825444 11138.95829418628636631 99.504748934509137825444 801.46004214908566610
nan nan nan nan

