Time Pressure difference Time.1 Pressure.1 difference.1
(hr) (psi) (hr) (psi)
0.000200000000020850166 0.84669005593175084 0.000200000000020850166 0.67485592326955635
0.000399999999999067768 1.69307898940555557 0.000399999999999067768 1.76731335766774933
0.000600000000019917934 2.53921400827902932 0.000600000000019917934 2.58615313369794553
0.000799999999998135536 3.38511526763302761 0.000799999999998135536 3.42002348839415049
0.001007140329434719206 4.26098561172125478 0.001007140329434719206 4.29566515735959431
0.001267914553977789183 5.36332155150627443 0.001267914553977789183 5.40618912206600744
0.001596209851982166583 6.75059502686145940 0.001596209851982166583 6.80335580602167767
0.002009509145224797066 8.49633090796391066 0.002009509145224797066 8.56091178438238032
0.002529822128153114136 10.69295857869223809 0.002529822128153114136 10.77144838568696450
0.003184857364431081805 13.45663628793887412 0.003184857364431081805 13.55114785853975867
0.004009497869034817086 16.93328703093309429 0.004009497869034817086 17.04568720371850077
0.005047658755856332391 21.30613951420872354 0.005047658755856332391 21.43756127518789256
0.006354625877790454069 26.80513297640884574 0.006354625877790454069 26.95513413154235138
0.008000000000009777068 33.71862097617513143 0.008000000000009777068 33.88377647671615733
0.010071403294361402914 42.40789656124416496 0.010071403294361402914 42.57949215357381689
0.012679145539692626699 53.32515770946729106 0.012679145539692626699 53.48546870880930015
0.015962098519750611558 67.03563298514015401 0.015962098519750611558 67.15199012284331559
0.020095091452091651263 84.24468369835685166 0.020095091452091651263 84.26009806427553883
0.025298221281360611101 105.83077370375781356 0.025298221281360611101 105.64924070220786234
0.031848573644296607199 132.88522285344848228 0.031848573644296607199 132.34884272719455112
0.040094978690191851456 166.75958888705659433 0.040094978690191851456 165.61317391170427982
0.050476587558435426217 209.12128314982751931 0.050476587558435426217 206.95795262195593978
0.063546258777947173257 262.01750922272447042 0.063546258777947173257 258.19561030328685547
0.080000000000012505552 327.94666189337561946 0.080000000000012505552 321.46382043104171089
0.100714032943542974863 409.93471513387834193 0.100714032943542974863 399.23846454174804421
0.126791455396883634421 511.61156638685605458 0.126791455396883634421 494.31734721707937297
0.159620985197506115583 637.27842184302164696 0.159620985197506115583 609.75440498108525844
0.200950914520774404082 791.95168635281368097 0.200950914520774404082 748.71579353871265994
0.252982212813464002465 981.36106782643582847 0.252982212813464002465 914.21945578829740953
0.318485736442809752589 1211.86950520237814999 0.318485736442809752589 1108.70992911921598534
0.400949786901833249431 1490.27037378593331596 0.400949786901833249431 1333.41368856208691795
0.504765875584169521062 1823.40468917055272868 0.504765875584169521062 1587.42504005913042420
0.635462587779443310865 2217.53176553351249822 0.635462587779443310865 1866.50465473118424597
0.800000000000011368684 2677.39010839378852324 0.800000000000011368684 2161.66137433183075700
1.007140329435344483500 3204.91878593935234676 1.007140329435344483500 2457.77248063838578673
1.267914553968907398485 3797.70013073412474114 1.267914553968907398485 2732.80046980532051748
1.596209851975117999245 4447.35875414876591094 1.596209851975117999245 2958.51718085887705456
2.009509145207687197399 5138.40190014156723919 2.009509145207687197399 3103.79168839006206326
2.529822128134725289783 5848.21577605830498214 2.529822128134725289783 3140.99228943551634075
3.184857364427983839050 6548.92783095580671215 3.184857364427983839050 3054.56584170805581380
4.009497869018204596614 7211.36631020208005793 4.009497869018204596614 2849.26633792185066341
5.009497869018190385759 7791.85111628999038658 5.009497869018190385759 2563.13699109549952482
6.009497869018190385759 8211.59551270517113153 6.009497869018190385759 2290.28982016574127556
7.009497869018204596614 8525.35533529689382704 7.009497869018204596614 2051.08289397651606123
8.009497869018190385759 8767.06458457419648767 8.009497869018190385759 1850.14075368374983555
9.009497869018204596614 8958.38024159186352335 9.009497869018204596614 1686.54009138755873209
10.009497869018190385759 9113.50224829044600483 10.009497869018190385759 1554.81672720658957587
11.009497869018190385759 9241.99354695214788080 11.009497869018190385759 1443.51472159172794818
12.009497869018204596614 9350.44165987968881382 12.009497869018204596614 1352.24119452908530548
13.009497869018190385759 9443.48913130515029479 13.009497869018190385759 1277.15961969132149534
14.009497869018204596614 9524.47535258552670712 14.009497869018204596614 1215.11427844652757813
15.009497869018190385759 9595.84850444068797515 15.009497869018190385759 1163.55598580130572373
16.009497869018190385759 9659.43549396667913243 16.009497869018190385759 1120.44910220932365519
17.009497869018204596614 9716.62239965908520389 17.009497869018204596614 1085.13664834534210968
18.009497869018190385759 9768.47739534780703252 18.009497869018190385759 1054.25590917340514352
19.009497869018204596614 9815.83787158590166655 19.009497869018204596614 1029.18734424652052439
20.009497869018190385759 9859.36396124932798557 20.009497869018190385759 1006.40844520927817030
21.009497869018190385759 9899.58625581465639698 21.009497869018190385759 986.76525067431066418
22.009497869018204596614 9936.93886422681134718 22.009497869018204596614 969.71123142101532721
23.009497869018190385759 9971.77328618948740768 23.009497869018190385759 955.27398777501969107
24.009497869018204596614 10004.38440482517944474 24.009497869018204596614 942.12992656716289730
25.009497869018204596614 10035.01808552742113534 25.009497869018204596614 930.51802267094331000
26.009497869018190385759 10063.88140652915353712 26.009497869018190385759 920.70163474704293094
27.009497869018204596614 10091.15209100148422294 27.009497869018204596614 911.42707801956510139
28.009497869018190385759 10116.98103033147890528 28.009497869018190385759 903.11583657195797059
29.009497869018190385759 10141.49992786612892814 29.009497869018190385759 895.84633163090097696
30.009497869018190385759 10164.82267951808898943 30.009497869018190385759 889.03845506834124990
31.009497869018218807469 10187.04870738824320142 31.009497869018218807469 882.84821196281689026
32.009497869018190385759 10208.26683378467350849 32.009497869018190385759 877.20273698990604316
33.009497869018190385759 10228.55342554137132538 33.009497869018190385759 872.24084257558365607
34.009497869018218807469 10247.97901513184115174 34.009497869018218807469 867.45000825603904104
35.009497869018190385759 10266.60433279478456825 35.009497869018190385759 863.14617635230013093
36.009497869018190385759 10284.48478768878158007 36.009497869018190385759 859.03998934717094471
37.009497869018190385759 10301.67100916935851274 37.009497869018190385759 855.22476852866816444
38.009497869018218807469 10318.20712410167288908 38.009497869018218807469 851.67266540629020710
39.009497869018190385759 10334.13434910048999882 39.009497869018190385759 848.41595187736493244
40.009497869018190385759 10349.49017970114618947 40.009497869018190385759 845.48459473152729515
41.009497869018218807469 10364.30795356607632129 41.009497869018218807469 842.47150217272542250
42.009497869018190385759 10378.61892326711858914 42.009497869018190385759 839.75716511618679760
43.009497869018190385759 10392.45191295304903178 43.009497869018190385759 837.08655707436878401
44.009497869018218807469 10405.83262813119472412 44.009497869018218807469 834.65920283702917004
46.009497869018190385759 10431.33256895869635628 46.009497869018190385759 830.15516688949230684
48.009497869018218807469 10455.29120434344622481 48.009497869018218807469 826.00410732178113449
50.009497869018190385759 10477.85678392521367641 50.009497869018190385759 822.28187846821708717
52.009497869018190385759 10499.15758107358487905 52.009497869018190385759 818.86219965478460381
54.009497869018218807469 10519.30585904235886119 54.009497869018218807469 815.66396997965716764
56.009497869018190385759 10538.39973131432816444 56.009497869018190385759 812.70736863951287887
58.009497869018218807469 10556.52612633298122091 58.009497869018218807469 810.06186294153508243
60.009497869018190385759 10573.76190046277588408 60.009497869018190385759 807.48877110058333528
62.009497869018190385759 10590.17554891515828785 62.009497869018190385759 805.08496993356300209
64.009497869018218807469 10605.82845228847327235 64.009497869018218807469 802.83059846825847217
66.009497869018190385759 10620.77543978494577459 66.009497869018190385759 800.73255761371729022
68.009497869018190385759 10635.06627067125918984 68.009497869018190385759 798.77061569795910145
70.009497869018190385759 10648.74558302580226155 70.009497869018190385759 796.87514925598748050
72.009497869018190385759 10661.85403214008147188 72.009497869018190385759 795.09809096215121826
74.009497869018218807469 10674.42863256706732500 74.009497869018218807469 793.40168402977428741
76.009497869018190385759 10686.50293355228313885 76.009497869018190385759 791.78803681415593019
78.009497869018190385759 10698.10777288277131447 78.009497869018190385759 790.25794939298316422
80.009497869018218807469 10709.27136389536099159 80.009497869018218807469 788.79210026581438342
82.009497869018190385759 10720.01951240059315751 82.009497869018190385759 787.38867271770163825
84.009497869018218807469 10730.37609733838326065 84.009497869018218807469 786.03368497354676947
86.009497869018190385759 10740.36311839535483159 86.009497869018190385759 784.75181299352084352
88.009497869018190385759 10750.00080012537364382 88.009497869018190385759 783.50766409905418186
91.009497869018218807469 10763.84306200465471193 91.009497869018218807469 781.74054640758754431
94.009497869018218807469 10776.99906505907347309 94.009497869018218807469 780.06994911212677835
97.009497869018218807469 10789.52042496544527239 97.009497869018218807469 778.50112122733355591
99.504748934509137825444 10799.48527950632160355 99.504748934509137825444 777.03459324549453413
nan nan nan nan

