Time Pressure difference Time.1 Pressure.1 difference.1
(hr) (psi) (hr) (psi)
0.000200000000020850166 0.12558958589950334 0.000200000000020850166 0.10010141887397152
0.000399999999999067768 0.25113450628707162 0.000399999999999067768 0.26214569450670938
0.000600000000019917934 0.37664176350700729 0.000600000000019917934 0.38360424674694477
0.000799999999998135536 0.50211434716364167 0.000799999999998135536 0.50729228560659800
0.001007140329434719206 0.63203224692525484 0.001007140329434719206 0.63717626597377086
0.001267914553977789183 0.79554180184425094 0.001267914553977789183 0.80190035111195190
0.001596209851982166583 1.00131615820833031 0.001596209851982166583 1.00914216769083809
0.002009509145224797066 1.26026126434435204 0.002009509145224797066 1.26984054954984216
0.002529822128153114136 1.58608717621073492 0.002529822128153114136 1.59772957390838100
0.003184857364431081805 1.99602365371195445 0.003184857364431081805 2.01004256054961061
0.004009497869034817086 2.51171546333094042 0.004009497869034817086 2.52838778758496474
0.005047658755856332391 3.16034092990718829 0.005047658755856332391 3.17983472745910811
0.006354625877790454069 3.97600695426103723 0.006354625877790454069 3.99825663444292223
0.008000000000009777068 5.00148503674110501 0.008000000000009777068 5.02598256187047099
0.010071403294361402914 6.29036579641244487 0.010071403294361402914 6.31581858073639157
0.012679145539692626699 7.90972378598188808 0.012679145539692626699 7.93350272596287365
0.015962098519750611558 9.94339939170546394 0.015962098519750611558 9.96065865279896023
0.020095091452091651263 12.49601889828279511 0.020095091452091651263 12.49830531208802142
0.025298221281360611101 15.69788490104855505 0.025298221281360611101 15.67095810022926017
0.031848573644296607199 19.71087293798695583 0.031848573644296607199 19.63131164224594727
0.040094978690191851456 24.73545964827656363 0.040094978690191851456 24.56541184741389827
0.050476587558435426217 31.01897225503335420 0.050476587558435426217 30.69808531032942156
0.063546258777947173257 38.86507258608192217 0.063546258777947173257 38.29817009410247408
0.080000000000012505552 48.64434768752428084 0.080000000000012505552 47.68274743132347737
0.100714032943542974863 60.80564045698981346 0.100714032943542974863 59.21906497623177756
0.126791455396883634421 75.88737379608572553 0.126791455396883634421 73.32212124732708958
0.159620985197506115583 94.52754587258965557 0.159620985197506115583 90.44490682921795610
0.200950914520774404082 117.47024031362953167 0.200950914520774404082 111.05705778422947105
0.252982212813464002465 145.56534503122966839 0.252982212813464002465 135.60622576034668896
0.318485736442809752589 179.75667513316219015 0.318485736442809752589 164.45500913261457754
0.400949786901833249431 221.05189237885650755 0.400949786901833249431 197.78533101461212595
0.504765875584169521062 270.46572501449259107 0.504765875584169521062 235.46284975336806156
0.635462587779443310865 328.92661748090415585 0.635462587779443310865 276.85874544637408690
0.800000000000011368684 397.13743258100402045 0.800000000000011368684 320.63935906100829243
1.007140329435344483500 475.38579241340096360 1.007140329435344483500 364.56153691198062461
1.267914553968907398485 563.31308422480628906 1.267914553968907398485 405.35645475501314650
1.596209851975117999245 659.67698612619233245 1.596209851975117999245 438.83702780912619801
2.009509145207687197399 762.17945670076301212 2.009509145207687197399 460.38560407357499571
2.529822128134725289783 867.46619075128103304 2.529822128134725289783 465.90357141921703032
3.184857364427983839050 971.40285115356289225 3.184857364427983839050 453.08393133390615048
4.009497869018204596614 1069.66238982368759025 4.009497869018204596614 422.63184383713110037
5.009497869018190385759 1155.76573532395741495 5.009497869018190385759 380.19026095817332589
6.009497869018190385759 1218.02644638357651274 6.009497869018190385759 339.71882401279657415
7.009497869018204596614 1264.56645936132713359 7.009497869018204596614 304.23724655250873639
8.009497869018190385759 1300.41920655275430363 8.009497869018190385759 274.43148703953460199
9.009497869018204596614 1328.79706923415642450 9.009497869018204596614 250.16459115866535967
10.009497869018190385759 1351.80632563050812678 10.009497869018190385759 230.62605678604620607
11.009497869018190385759 1370.86544753415932973 11.009497869018190385759 214.11662373315414243
12.009497869018204596614 1386.95156251653543222 12.009497869018204596614 200.57801608437316077
13.009497869018190385759 1400.75329943720817027 13.009497869018190385759 189.44116166344747398
14.009497869018204596614 1412.76599041298072734 14.009497869018204596614 180.23797253971088139
15.009497869018190385759 1423.35277423432580690 15.009497869018190385759 172.59032795284591089
16.009497869018190385759 1432.78463613847588931 16.009497869018190385759 166.19628136896648130
17.009497869018204596614 1441.26717323037519236 17.009497869018204596614 160.95838300603799098
18.009497869018190385759 1448.95882779716998812 18.009497869018190385759 156.37784114458168006
19.009497869018204596614 1455.98381002895007441 19.009497869018204596614 152.65941943145833193
20.009497869018190385759 1462.44003747411443328 20.009497869018190385759 149.28062399469646948
21.009497869018190385759 1468.40621279765514373 21.009497869018190385759 146.36694779157261337
22.009497869018204596614 1473.94672740495911967 22.009497869018204596614 143.83732411058284129
23.009497869018190385759 1479.11371926779224850 23.009497869018190385759 141.69584690965422169
24.009497869018204596614 1483.95092841709447384 24.009497869018204596614 139.74618753599369825
25.009497869018204596614 1488.49482408117933119 25.009497869018204596614 138.02379314667234667
26.009497869018190385759 1492.77612218654439857 26.009497869018190385759 136.56772774735117082
27.009497869018204596614 1496.82118442163459804 27.009497869018204596614 135.19203220133036325
28.009497869018190385759 1500.65239251478715232 28.009497869018190385759 133.95922526754978321
29.009497869018190385759 1504.28928203122359264 29.009497869018190385759 132.88093917118470699
30.009497869018190385759 1507.74874715838063821 30.009497869018190385759 131.87112643941014767
31.009497869018218807469 1511.04553518234251897 31.009497869018218807469 130.95292731472036962
32.009497869018190385759 1514.19282112130213136 32.009497869018190385759 130.11553367924932445
33.009497869018190385759 1517.20193247224665356 33.009497869018190385759 129.37953558832330714
34.009497869018218807469 1520.08333132112784369 34.009497869018218807469 128.66891085133781303
35.009497869018190385759 1522.84602578783142235 35.009497869018190385759 128.03052321139225000
36.009497869018190385759 1525.49823471611603054 36.009497869018190385759 127.42145225090649774
37.009497869018190385759 1528.04746796127005837 37.009497869018190385759 126.85554032203231145
38.009497869018218807469 1530.50027086380418950 38.009497869018218807469 126.32865665653226017
39.009497869018190385759 1532.86275708661469253 39.009497869018190385759 125.84558814683897765
40.009497869018190385759 1535.14048834466916560 40.009497869018190385759 125.41077976862536048
41.009497869018218807469 1537.33840961540022363 41.009497869018218807469 124.96384757178934422
42.009497869018190385759 1539.46115659463134762 42.009497869018190385759 124.56122979621237334
43.009497869018190385759 1541.51300477004951972 43.009497869018190385759 124.16509834796630685
44.009497869018218807469 1543.49776704107102887 44.009497869018218807469 123.80504875087564187
46.009497869018190385759 1547.28017476695777077 46.009497869018190385759 123.13696483331368370
48.009497869018218807469 1550.83396056567812593 48.009497869018218807469 122.52123792297538785
50.009497869018190385759 1554.18111431503666608 50.009497869018190385759 121.96911949774143125
52.009497869018190385759 1557.34066281150421673 52.009497869018190385759 121.46187833779221421
54.009497869018218807469 1560.32925807013407393 54.009497869018218807469 120.98748474157980581
56.009497869018190385759 1563.16145326961077444 56.009497869018190385759 120.54893189053677816
58.009497869018218807469 1565.85014251108077588 58.009497869018218807469 120.15652387443202542
60.009497869018190385759 1568.40672590361418770 60.009497869018190385759 119.77485701000793483
62.009497869018190385759 1570.84136334596132656 62.009497869018190385759 119.41830104122593070
64.009497869018218807469 1573.16315942589335464 64.009497869018218807469 119.08390998890669721
66.009497869018190385759 1575.38024696220691112 66.009497869018190385759 118.77270746529598000
68.009497869018190385759 1577.50000674986245031 68.009497869018190385759 118.48169250529647911
70.009497869018190385759 1579.52905995765831904 70.009497869018190385759 118.20053785624175191
72.009497869018190385759 1581.47343698737950035 72.009497869018190385759 117.93694669477881121
74.009497869018218807469 1583.33862820984995778 74.009497869018218807469 117.68531855451465162
76.009497869018190385759 1585.12960998663538703 76.009497869018190385759 117.44596616791505994
78.009497869018190385759 1586.85095648850528960 78.009497869018190385759 117.21900821055054109
80.009497869018218807469 1588.50685260137470323 80.009497869018218807469 117.00157872312176721
82.009497869018190385759 1590.10112610264195609 82.009497869018190385759 116.79340823219345680
84.009497869018218807469 1591.63731895687192264 84.009497869018218807469 116.59242282024122517
86.009497869018190385759 1593.11869437887889944 86.009497869018190385759 116.40228267389160521
88.009497869018190385759 1594.54825227792866826 88.009497869018190385759 116.21773799504636315
91.009497869018218807469 1596.60147579833255804 91.009497869018218807469 115.95562132371878761
94.009497869018218807469 1598.55290650679762621 94.009497869018218807469 115.70782152841958634
97.009497869018218807469 1600.41020055970739122 97.009497869018218807469 115.47511719580290901
99.504748934509137825444 1601.88828802107536831 99.504748934509137825444 115.25758701382088134
nan nan nan nan

