Time Pressure difference Time.1 Pressure.1 difference.1
(hr) (psi) (hr) (psi)
0.000200000000020850166 0.44247456753997194 0.000200000000020850166 0.35267519762220428
0.000399999999999067768 0.88479177049484825 0.000399999999999067768 0.92358615548059197
0.000600000000019917934 1.32697627937568141 0.000600000000019917934 1.35150635277731546
0.000799999999998135536 1.76903862709309490 0.000799999999998135536 1.78728143008417306
0.001007140329434719206 2.22676261830619593 0.001007140329434719206 2.24488591720560304
0.001267914553977789183 2.80283601709365238 0.001267914553977789183 2.82523832312290368
0.001596209851982166583 3.52781586865451535 0.001596209851982166583 3.55538829941407908
0.002009509145224797066 4.44012577901453831 0.002009509145224797066 4.47387531364580138
0.002529822128153114136 5.58806872678219158 0.002529822128153114136 5.62908697562422855
0.003184857364431081805 7.03234823691893940 0.003184857364431081805 7.08173935239995256
0.004009497869034817086 8.84922269200039935 0.004009497869034817086 8.90796227149139774
0.005047658755856332391 11.13444619013658432 0.005047658755856332391 11.20312632455791757
0.006354625877790454069 14.00818344150246197 0.006354625877790454069 14.08657304320287729
0.008000000000009777068 17.62112608971038341 0.008000000000009777068 17.70743525109331884
0.010071403294361402914 22.16208346815510666 0.010071403294361402914 22.25175817848847970
0.012679145539692626699 27.86737121948585383 0.012679145539692626699 27.95114867690230653
0.015962098519750611558 35.03237401580998522 0.015962098519750611558 35.09318147873540283
0.020095091452091651263 44.02570896613541152 0.020095091452091651263 44.03376441080018111
0.025298221281360611101 55.30645541296577505 0.025298221281360611101 55.21158747895341889
0.031848573644296607199 69.44492982125206026 0.031848573644296607199 69.16462115016453538
0.040094978690191851456 87.14744723763664069 0.040094978690191851456 86.54833842929929233
0.050476587558435426217 109.28538569323009710 0.050476587558435426217 108.15484360990232915
0.063546258777947173257 136.92860010460648823 0.063546258777947173257 134.93130125869217295
0.080000000000012505552 171.38273489909218483 0.080000000000012505552 167.99484525472905716
0.100714032943542974863 214.22914386171245837 0.100714032943542974863 208.63935475069737890
0.126791455396883634421 267.36478714912317400 0.126791455396883634421 258.32694373230469864
0.159620985197506115583 333.03744638554763924 0.159620985197506115583 318.65357902744341345
0.200950914520774404082 413.86866123742322543 0.200950914520774404082 391.27387245834489704
0.252982212813464002465 512.85273878552436599 0.252982212813464002465 477.76498082453264260
0.318485736442809752589 633.31490841617403476 0.318485736442809752589 579.40440303676132316
0.400949786901833249431 778.80534268577264356 0.400949786901833249431 696.83308675346779637
0.504765875584169521062 952.89911064708644517 0.504765875584169521062 829.57772230987961848
0.635462587779443310865 1158.86728807841700473 0.635462587779443310865 975.42286475146363500
0.800000000000011368684 1399.18618631188155632 0.800000000000011368684 1129.66979483745990365
1.007140329435344483500 1674.86914942999555933 1.007140329435344483500 1284.41548104088542459
1.267914553968907398485 1984.65272058011237277 1.267914553968907398485 1428.14327105739744184
1.596209851975117999245 2324.15997761016069489 1.596209851975117999245 1546.10131651957044596
2.009509145207687197399 2685.29450970070138283 2.009509145207687197399 1622.02080375590662698
2.529822128134725289783 3056.23849986544018975 2.529822128134725289783 1641.46158937101631636
3.184857364427983839050 3422.42593916354599060 3.184857364427983839050 1596.29570509694076463
4.009497869018204596614 3768.61186348478076980 4.009497869018204596614 1489.00755577055451795
5.009497869018190385759 4071.96934564467073869 5.009497869018190385759 1339.47827039568323926
6.009497869018190385759 4291.32496341763362580 6.009497869018190385759 1196.89016142256809871
7.009497869018204596614 4455.29375086242453108 7.009497869018204596614 1071.88221964195145119
8.009497869018190385759 4581.60938997394168837 8.009497869018190385759 966.87119937107559053
9.009497869018204596614 4681.58967438788931759 9.009497869018204596614 881.37458606894028890
10.009497869018190385759 4762.65539891013486340 10.009497869018190385759 812.53683582898395343
11.009497869018190385759 4829.80409329915801209 11.009497869018190385759 754.37115116581458096
12.009497869018204596614 4886.47835270726409362 12.009497869018204596614 706.67221560851999129
13.009497869018190385759 4935.10433973903764127 13.009497869018190385759 667.43508612552352588
14.009497869018204596614 4977.42719801129624102 14.009497869018204596614 635.01060523924627432
15.009497869018190385759 5014.72633041497556405 15.009497869018190385759 608.06658590009294585
16.009497869018190385759 5047.95646639516053256 16.009497869018190385759 585.53921647874278733
17.009497869018204596614 5077.84196131496355520 17.009497869018204596614 567.08516396829281803
18.009497869018190385759 5104.94103568274385907 18.009497869018190385759 550.94709595309575434
19.009497869018204596614 5129.69130420795590908 19.009497869018204596614 537.84643137440957616
20.009497869018190385759 5152.43774792204567348 20.009497869018190385759 525.94233089522197133
21.009497869018190385759 5173.45765038644003653 21.009497869018190385759 515.67692864315642964
22.009497869018204596614 5192.97787403601523692 22.009497869018204596614 506.76461209821229659
23.009497869018190385759 5211.18211026798326202 23.009497869018190385759 499.21980500619889654
24.009497869018204596614 5228.22446303241213172 24.009497869018204596614 492.35080641820297842
25.009497869018204596614 5244.23341994163911295 25.009497869018204596614 486.28250300681912677
26.009497869018190385759 5259.31719869696462411 26.009497869018190385759 481.15252424894578098
27.009497869018204596614 5273.56867624046117271 27.009497869018204596614 476.30570285501829630
28.009497869018190385759 5287.06670740309164103 28.009497869018190385759 471.96230359163229195
29.009497869018190385759 5299.88011947424547543 29.009497869018190385759 468.16330886801500810
30.009497869018190385759 5312.06843369707621605 30.009497869018190385759 464.60555805143178532
31.009497869018218807469 5323.68360739739273413 31.009497869018218807469 461.37057835384928239
32.009497869018190385759 5334.77205852008410147 32.009497869018190385759 458.42029084344801504
33.009497869018190385759 5345.37369586248496489 33.009497869018190385759 455.82723796680795658
34.009497869018218807469 5355.52537922410647298 34.009497869018218807469 453.32357995305773102
35.009497869018190385759 5365.25884582202888851 35.009497869018190385759 451.07442614874628362
36.009497869018190385759 5374.60305211240938661 36.009497869018190385759 448.92856024822685868
37.009497869018190385759 5383.58445665825001925 37.009497869018190385759 446.93475133325290471
38.009497869018218807469 5392.22611986452830024 38.009497869018218807469 445.07844596870967280
39.009497869018190385759 5400.54958125880148145 39.009497869018190385759 443.37650923257177737
40.009497869018190385759 5408.57443575737761421 40.009497869018190385759 441.84460156893175053
41.009497869018218807469 5416.31810539995331055 41.009497869018218807469 440.26997952444980911
42.009497869018190385759 5423.79692257181432069 42.009497869018190385759 438.85148510983441383
43.009497869018190385759 5431.02595058057158894 43.009497869018190385759 437.45584318621234843
44.009497869018218807469 5438.01862295264800196 44.009497869018218807469 436.18732407593273592
46.009497869018190385759 5451.34472169550735998 46.009497869018190385759 433.83354497564823760
48.009497869018218807469 5463.86534450954059139 48.009497869018218807469 431.66422897366163625
50.009497869018190385759 5475.65796566622157115 50.009497869018190385759 429.71901703840029541
52.009497869018190385759 5486.78961997165697539 52.009497869018190385759 427.93191573314874177
54.009497869018218807469 5497.31897545239189640 54.009497869018218807469 426.26054226834736482
56.009497869018190385759 5507.29730555915830337 56.009497869018190385759 424.71544215738788353
58.009497869018218807469 5516.77003851586050587 58.009497869018218807469 423.33291855097905909
60.009497869018190385759 5525.77733894518314628 60.009497869018190385759 421.98823794254451514
62.009497869018190385759 5534.35500198709632969 62.009497869018190385759 420.73202750948479434
64.009497869018218807469 5542.53510473228652700 64.009497869018218807469 419.55390804038654551
66.009497869018190385759 5550.34630055558955064 66.009497869018190385759 418.45748590422158486
68.009497869018190385759 5557.81459331739642948 68.009497869018190385759 417.43218816435580720
70.009497869018190385759 5564.96331057929910457 70.009497869018190385759 416.44163006305041108
72.009497869018190385759 5571.81369852507214091 72.009497869018190385759 415.51295126902203947
74.009497869018218807469 5578.38510071284872538 74.009497869018218807469 414.62642033776023709
76.009497869018190385759 5584.69504975423842552 76.009497869018190385759 413.78313908166097690
78.009497869018190385759 5590.75966127076026169 78.009497869018190385759 412.98352561597943122
80.009497869018218807469 5596.59367936378384911 80.009497869018218807469 412.21748265364755071
82.009497869018190385759 5602.21058997752061259 82.009497869018190385759 411.48406079156899295
84.009497869018218807469 5607.62287208646375802 84.009497869018218807469 410.77595324747238692
86.009497869018190385759 5612.84202257989090867 86.009497869018190385759 410.10605551331349261
88.009497869018190385759 5617.87861067455651209 88.009497869018190385759 409.45587161168651846
91.009497869018218807469 5625.11248426962265512 91.009497869018218807469 408.53238771005555918
94.009497869018218807469 5631.98772358686346706 94.009497869018218807469 407.65934472264382293
97.009497869018218807469 5638.53130263420098345 97.009497869018218807469 406.83948574945134169
99.504748934509137825444 5643.73886905438484973 99.504748934509137825444 406.07308802220342159
nan nan nan nan

