Time Pressure difference Time.1 Pressure.1 difference.1
(hr) (psi) (hr) (psi)
0.000200000000020850166 0.81757988701464746 0.000200000000020850166 0.65165360763651659
0.000399999999999067768 1.63486900450457862 0.000399999999999067768 1.70655111059665776
0.000600000000019917934 2.45191293726747128 0.000600000000019917934 2.49723824206785894
0.000799999999998135536 3.26873114742953463 0.000799999999998135536 3.30243918378335000
0.001007140329434719206 4.11448807104321546 0.001007140329434719206 4.14797529438554147
0.001267914553977789183 5.17892444511853434 0.001267914553977789183 5.22031817975528956
0.001596209851982166583 6.51850187760787314 0.001596209851982166583 6.56944868106022462
0.002009509145224797066 8.20421736987084849 0.002009509145224797066 8.26657788216884093
0.002529822128153114136 10.32532247824604177 0.002529822128153114136 10.40111371623800096
0.003184857364431081805 12.99398179866789071 0.003184857364431081805 13.08524395377660454
0.004009497869034817086 16.35110132751201562 0.004009497869034817086 16.45963705427828216
0.005047658755856332391 20.57361015959447670 0.005047658755856332391 20.70051349067750479
0.006354625877790454069 25.88354196052052458 0.006354625877790454069 26.02838590501584548
0.008000000000009777068 32.55933636500997608 0.008000000000009777068 32.71881363124948905
0.010071403294361402914 40.94986475412869709 0.010071403294361402914 41.11556069446272943
0.012679145539692626699 51.49177802397480264 0.012679145539692626699 51.64657734848677961
0.015962098519750611558 64.73087153673159833 0.015962098519750611558 64.84322818345282258
0.020095091452091651263 81.34825547690057590 0.020095091452091651263 81.36313987935446335
0.025298221281360611101 102.19219111079954132 0.025298221281360611101 102.01689942069775441
0.031848573644296607199 128.31647747047136932 0.031848573644296607199 127.79853870415740857
0.040094978690191851456 161.02620420036996052 0.040094978690191851456 159.91920427819775341
0.050476587558435426217 201.93145514369396665 0.050476587558435426217 199.84250238446239223
0.063546258777947173257 253.00904868952665083 0.063546258777947173257 249.31855100995190355
0.080000000000012505552 316.67148196580376407 0.080000000000012505552 310.41152798007271940
0.100714032943542974863 395.84069251139726475 0.100714032943542974863 385.51219120288635622
0.126791455396883634421 494.02177775862423914 0.126791455396883634421 477.32215355048032279
0.159620985197506115583 615.36806352818291543 0.159620985197506115583 588.79035372927978642
0.200950914520774404082 764.72348495561470827 0.200950914520774404082 722.97409140329523325
0.252982212813464002465 947.62075606423024965 0.252982212813464002465 882.78754915510444334
0.318485736442809752589 1170.20405070131391767 0.318485736442809752589 1070.59121839311342228
0.400949786901833249431 1439.03318018818526980 0.400949786901833249431 1287.56940653883248160
0.504765875584169521062 1760.71395820692873713 0.504765875584169521062 1532.84755832821724653
0.635462587779443310865 2141.29049658098529108 0.635462587779443310865 1802.33209783964093731
0.800000000000011368684 2585.33838561011225465 0.800000000000011368684 2087.34099309252405874
1.007140329435344483500 3094.73002610843150251 1.007140329435344483500 2373.27146214885442532
1.267914553968907398485 3667.13087280122272205 1.267914553968907398485 2638.84367565680759071
1.596209851975117999245 4294.45349246388741449 1.596209851975117999245 2856.79998898258963891
2.009509145207687197399 4961.73778766125815309 2.009509145207687197399 2997.07979340612064334
2.529822128134725289783 5647.14745369873708114 2.529822128134725289783 3033.00139539794918164
3.184857364427983839050 6323.76822969504701177 3.184857364427983839050 2949.54638742536235441
4.009497869018204596614 6963.43131918334529473 4.009497869018204596614 2751.30531451589331482
5.009497869018190385759 7523.95839618178888486 5.009497869018190385759 2475.01342067473069619
6.009497869018190385759 7929.27150195401009114 6.009497869018190385759 2211.54704638794055427
7.009497869018204596614 8232.24390431910433108 7.009497869018204596614 1980.56432689480834597
8.009497869018190385759 8465.64291418117318244 8.009497869018190385759 1786.53080635670562515
9.009497869018204596614 8650.38092090844838822 9.009497869018204596614 1628.55492125144428428
10.009497869018190385759 8800.16965625688499131 10.009497869018190385759 1501.36035642836691295
11.009497869018190385759 8924.24327765615089447 11.009497869018190385759 1393.88504059397678247
12.009497869018204596614 9028.96282088579027914 12.009497869018204596614 1305.74960139694576355
13.009497869018190385759 9118.81121421705756802 13.009497869018190385759 1233.24941665674759861
14.009497869018204596614 9197.01303692688816227 14.009497869018204596614 1173.33726494394568363
15.009497869018190385759 9265.93229849233284767 15.009497869018190385759 1123.55160514998374310
16.009497869018190385759 9327.33309486173493497 16.009497869018190385759 1081.92678533572211563
17.009497869018204596614 9382.55384957257410861 17.009497869018204596614 1047.82841387374401165
18.009497869018190385759 9432.62601142131279630 18.009497869018190385759 1018.00938970280651574
19.009497869018204596614 9478.35818051958813157 19.009497869018204596614 993.80271060346706236
20.009497869018190385759 9520.38779362287823460 20.009497869018190385759 971.80697607143451933
21.009497869018190385759 9559.22719986817901372 21.009497869018190385759 952.83913694778721037
22.009497869018204596614 9595.29558304023157689 22.009497869018204596614 936.37145430929081158
23.009497869018190385759 9628.93235788238234818 23.009497869018190385759 922.43057955092763223
24.009497869018204596614 9660.42226909936289303 24.009497869018204596614 909.73842614491275071
25.009497869018204596614 9690.00272895231319126 25.009497869018204596614 898.52575273628406194
26.009497869018190385759 9717.87369608856351988 26.009497869018190385759 889.04686341487547452
27.009497869018204596614 9744.20678335408592829 27.009497869018204596614 880.09117651594544895
28.009497869018190385759 9769.14769431811691902 28.009497869018190385759 872.06568501987703712
29.009497869018190385759 9792.82360421650992066 29.009497869018190385759 865.04611394221581122
30.009497869018190385759 9815.34449309064984845 30.009497869018190385759 858.47229993337862197
31.009497869018218807469 9836.80636479630811664 31.009497869018218807469 852.49488443953725891
32.009497869018190385759 9857.29498782940390811 32.009497869018190385759 847.04350732915293065
33.009497869018190385759 9876.88410344515432371 33.009497869018190385759 842.25220849881998220
34.009497869018218807469 9895.64181913025640824 34.009497869018218807469 837.62608852228515843
35.009497869018190385759 9913.62677714859637490 35.009497869018190385759 833.47022726356681233
36.009497869018190385759 9930.89248162875628623 36.009497869018190385759 829.50521564662972196
37.009497869018190385759 9947.48782123131422850 37.009497869018190385759 825.82116646726990439
38.009497869018218807469 9963.45540568953219918 38.009497869018218807469 822.39118869782248566
39.009497869018190385759 9978.83503454399033217 39.009497869018190385759 819.24644469101144750
40.009497869018190385759 9993.66291419079243497 40.009497869018190385759 816.41587094409749170
41.009497869018218807469 10007.97123610555354389 41.009497869018218807469 813.50637194085368264
42.009497869018190385759 10021.79017836107777839 42.009497869018190385759 810.88535688527667844
43.009497869018190385759 10035.14757409906269459 43.009497869018190385759 808.30656739106530040
44.009497869018218807469 10048.06824504220458039 44.009497869018218807469 805.96266835834933318
46.009497869018190385759 10072.69146884714973567 46.009497869018190385759 801.61348629898918716
48.009497869018218807469 10095.82637904676448670 48.009497869018218807469 797.60514488930334664
50.009497869018190385759 10117.61612828927900409 50.009497869018190385759 794.01089050516441148
52.009497869018190385759 10138.18457975965975493 52.009497869018190385759 790.70878414602486828
54.009497869018218807469 10157.64013697312293516 54.009497869018218807469 787.62051325147638181
56.009497869018190385759 10176.07754015912178147 56.009497869018190385759 784.76556323442162011
58.009497869018218807469 10193.58072906220149889 58.009497869018218807469 782.21101303686543815
60.009497869018190385759 10210.22391763743689808 60.009497869018190385759 779.72638702541587463
62.009497869018190385759 10226.07324615284960601 62.009497869018190385759 777.40523128162328703
64.009497869018218807469 10241.18798487187632418 64.009497869018218807469 775.22836767612773201
66.009497869018190385759 10255.62107790628760995 66.009497869018190385759 773.20245985686051426
68.009497869018190385759 10269.42057374248179258 68.009497869018190385759 771.30797173977771308
70.009497869018190385759 10282.62957575084692508 70.009497869018190385759 769.47767359394470077
72.009497869018190385759 10295.28734144764348457 72.009497869018190385759 767.76171258918930107
74.009497869018218807469 10307.42961278332950315 74.009497869018218807469 766.12363006018483702
76.009497869018190385759 10319.08878554213697498 76.009497869018190385759 764.56546187457286123
78.009497869018190385759 10330.29463727285110508 78.009497869018190385759 763.08798060245817396
80.009497869018218807469 10341.07441130563893239 80.009497869018218807469 761.67252903860060087
82.009497869018190385759 10351.45302621786140662 82.009497869018190385759 760.31735292878261134
84.009497869018218807469 10361.45353996427365928 84.009497869018218807469 759.00895120726579535
86.009497869018190385759 10371.09719585720449686 86.009497869018190385759 757.77115144659239832
88.009497869018190385759 10380.40352310731032048 88.009497869018190385759 756.56977780881175022
91.009497869018218807469 10393.76987225007360394 91.009497869018218807469 754.86341563718917769
94.009497869018218807469 10406.47355692835662921 94.009497869018218807469 753.25025538037380102
97.009497869018218807469 10418.56441821319458541 97.009497869018218807469 751.73536558592229539
99.504748934509137825444 10428.18666970011327066 99.504748934509137825444 750.31925850719164828
nan nan nan nan

