Time Pressure difference Time.1 Pressure.1 difference.1
(hr) (psi) (hr) (psi)
0.000200000000020850166 0.15636319304044122 0.000200000000020850166 0.12462958111461357
0.000399999999999067768 0.31267077603953286 0.000399999999999067768 0.32638006998186336
0.000600000000019917934 0.46893146714779715 0.000600000000019917934 0.47759998932732201
0.000799999999998135536 0.62514898852162004 0.000799999999998135536 0.63159569333801602
0.001007140329434719206 0.78690107564203915 0.001007140329434719206 0.79330554968919809
0.001267914553977789183 0.99047588573986201 0.001267914553977789183 0.99839249012613895
0.001596209851982166583 1.24667177313355038 0.001596209851982166583 1.25641541407865964
0.002009509145224797066 1.56906700461416015 0.002009509145224797066 1.58099353188986980
0.002529822128153114136 1.97473105382528602 0.002529822128153114136 1.98922622446871267
0.003184857364431081805 2.48511554236985077 0.003184857364431081805 2.50256954558494549
0.004009497869034817086 3.12716892123322365 0.004009497869034817086 3.14792651699320070
0.005047658755856332391 3.93472910478510851 0.005047658755856332391 3.95899952822723344
0.006354625877790454069 4.95026031391440391 0.006354625877790454069 4.97796190248522752
0.008000000000009777068 6.22701448282998538 0.008000000000009777068 6.25751471279237492
0.010071403294361402914 7.83171370679165335 0.010071403294361402914 7.86340326608239426
0.012679145539692626699 9.84786802493109015 0.012679145539692626699 9.87747359258953672
0.015962098519750611558 12.37986149430878946 0.015962098519750611558 12.40134984586890354
0.020095091452091651263 15.55795730382228825 0.020095091452091651263 15.56080396471886118
0.025298221281360611101 19.54438649931873329 0.025298221281360611101 19.51086174068278467
0.031848573644296607199 24.54068948570561304 0.031848573644296607199 24.44163303802806908
0.040094978690191851456 30.79646631705956494 0.040094978690191851456 30.58475117426365841
0.050476587558435426217 38.61964757580312124 0.050476587558435426217 38.22013270425119202
0.063546258777947173257 48.38830229260530302 0.063546258777947173257 47.68248991848519580
0.080000000000012505552 60.56382361095739242 0.080000000000012505552 59.36659945091930268
0.100714032943542974863 75.70503580075552463 0.100714032943542974863 73.72969679159983514
0.126791455396883634421 94.48229320307360979 0.126791455396883634421 91.28846883773174170
0.159620985197506115583 117.68992466256193552 0.159620985197506115583 112.60690386684090925
0.200950914520774404082 146.25433893352550285 0.200950914520774404082 138.26971432738503154
0.252982212813464002465 181.23367460841839716 0.252982212813464002465 168.83424134400777916
0.318485736442809752589 223.80301274857279736 0.318485736442809752589 204.75193190020888778
0.400949786901833249431 275.21692561076173433 0.400949786901833249431 246.24928629633828336
0.504765875584169521062 336.73878346175234810 0.504765875584169521062 293.15904472604762532
0.635462587779443310865 409.52453037357599896 0.635462587779443310865 344.69830558886314975
0.800000000000011368684 494.44925380946199311 0.800000000000011368684 399.20661922827525814
1.007140329435344483500 591.87105280608864177 1.007140329435344483500 453.89118502948588230
1.267914553968907398485 701.34344261101705342 1.267914553968907398485 504.68220856915547756
1.596209851975117999245 821.31969133592156140 1.596209851975117999245 546.36663064977301474
2.009509145207687197399 948.93866132280425063 2.009509145207687197399 573.19532162802715902
2.529822128134725289783 1080.02413153139627866 2.529822128134725289783 580.06537368750207406
3.184857364427983839050 1209.42871534350865659 3.184857364427983839050 564.10449728989647156
4.009497869018204596614 1331.76509461492241826 4.009497869018204596614 526.19064000914329426
5.009497869018190385759 1438.96661086691369746 5.009497869018190385759 473.34946397441439103
6.009497869018190385759 1516.48325774908835228 6.009497869018190385759 422.96118486361427813
7.009497869018204596614 1574.42711496642050406 7.009497869018204596614 378.78544603888508391
8.009497869018190385759 1619.06497239680629718 8.009497869018190385759 341.67628849955303849
9.009497869018204596614 1654.39635109947948877 9.009497869018204596614 311.46319958827217533
10.009497869018190385759 1683.04363720884475697 10.009497869018190385759 287.13707732302435716
11.009497869018190385759 1706.77287507564210500 11.009497869018190385759 266.58228650220513600
12.009497869018204596614 1726.80062088151430544 12.009497869018204596614 249.72627168120632746
13.009497869018190385759 1743.98424035890820960 13.009497869018190385759 235.86051915713989047
14.009497869018204596614 1758.94043839496930559 14.009497869018204596614 224.40224395672615287
15.009497869018190385759 1772.12133480829970722 15.009497869018190385759 214.88067321281479849
16.009497869018190385759 1783.86431519227471654 16.009497869018190385759 206.91987349248805117
17.009497869018204596614 1794.42535475040085657 17.009497869018204596614 200.39851659029895359
18.009497869018190385759 1804.00171937660911681 18.009497869018190385759 194.69559029921430238
19.009497869018204596614 1812.74805487048092800 19.009497869018204596614 190.06603213982893408
20.009497869018190385759 1820.78627182207628721 20.009497869018190385759 185.85931994041678195
21.009497869018190385759 1828.21435765535875362 21.009497869018190385759 182.23169658818309813
22.009497869018204596614 1835.11248180220104587 22.009497869018204596614 179.08223134297728052
23.009497869018190385759 1841.54555776387383048 23.009497869018190385759 176.41602131798006781
24.009497869018204596614 1847.56804332724345841 24.009497869018204596614 173.98863083951533781
25.009497869018204596614 1853.22534388915073578 25.009497869018204596614 171.84419279188341534
26.009497869018190385759 1858.55570179516780627 26.009497869018190385759 170.03134315564250301
27.009497869018204596614 1863.59193822031329546 27.009497869018204596614 168.31855664801398120
28.009497869018190385759 1868.36191915748349857 28.009497869018190385759 166.78367119403549168
29.009497869018190385759 1872.88996703225211604 29.009497869018190385759 165.44116929922336112
30.009497869018190385759 1877.19711566738760666 30.009497869018190385759 164.18391901065635352
31.009497869018218807469 1881.30172592238682228 31.009497869018218807469 163.04073069647304806
32.009497869018190385759 1885.22020113115763706 32.009497869018190385759 161.99814789204552312
33.009497869018190385759 1888.96664440253221073 33.009497869018190385759 161.08180589804490523
34.009497869018218807469 1892.55408137994731987 34.009497869018218807469 160.19705456987753678
35.009497869018190385759 1895.99372747094230363 35.009497869018190385759 159.40224081948176149
36.009497869018190385759 1899.29581540814456275 36.009497869018190385759 158.64392730576437884
37.009497869018190385759 1902.46969521005826209 37.009497869018190385759 157.93934821551042091
38.009497869018218807469 1905.52351604235195737 38.009497869018218807469 157.28336060548386399
39.009497869018190385759 1908.46488961777208715 39.009497869018190385759 156.68192431526975383
40.009497869018190385759 1911.30074045561445928 40.009497869018190385759 156.14057348676536208
41.009497869018218807469 1914.03722521652503019 41.009497869018218807469 155.58412810262512949
42.009497869018190385759 1916.68011549530274351 42.009497869018190385759 155.08285564031740478
43.009497869018190385759 1919.23473441569058195 43.009497869018190385759 154.58965887031564534
44.009497869018218807469 1921.70582916371768079 44.009497869018218807469 154.14138519976569341
46.009497869018190385759 1926.41505202773555538 46.009497869018190385759 153.30959860041704701
48.009497869018218807469 1930.83963302216875491 48.009497869018218807469 152.54299820873757199
50.009497869018190385759 1935.00695027302572271 50.009497869018190385759 151.85559248725422776
52.009497869018190385759 1938.94069277193921153 52.009497869018190385759 151.22406044705257955
54.009497869018218807469 1942.66159282904072825 54.009497869018218807469 150.63342471137087841
56.009497869018190385759 1946.18776963368759425 56.009497869018190385759 150.08741189020474849
58.009497869018218807469 1949.53527676876274199 58.009497869018218807469 149.59885091651139533
60.009497869018190385759 1952.71830774754607774 60.009497869018190385759 149.12366303232775522
62.009497869018190385759 1955.74951198040253075 62.009497869018190385759 148.67973904470514412
64.009497869018218807469 1958.64022498058284327 64.009497869018218807469 148.26341111201628564
66.009497869018190385759 1961.40057237678752244 66.009497869018190385759 147.87595366540159603
68.009497869018190385759 1964.03974350314001640 68.009497869018190385759 147.51363040394528525
70.009497869018190385759 1966.56598193403806363 70.009497869018190385759 147.16358355611555453
72.009497869018190385759 1968.98679571938669142 72.009497869018190385759 146.83540383191004253
74.009497869018218807469 1971.30902055266096795 74.009497869018218807469 146.52211846522354222
76.009497869018190385759 1973.53885216879120890 76.009497869018190385759 146.22411681833133912
78.009497869018190385759 1975.68198556184756853 78.009497869018190385759 145.94154664624838347
80.009497869018218807469 1977.74363105336715307 80.009497869018218807469 145.67083973474763070
82.009497869018190385759 1979.72855435295832649 82.009497869018190385759 145.41166058047929255
84.009497869018218807469 1981.64116532378784541 84.009497869018218807469 145.16142708745266532
86.009497869018190385759 1983.48552677635257169 86.009497869018190385759 144.92469630921604562
88.009497869018190385759 1985.26537369702373326 88.009497869018190385759 144.69493207330276618
91.009497869018218807469 1987.82170496746061872 91.009497869018218807469 144.36858813813995539
94.009497869018218807469 1990.25130081641032120 94.009497869018218807469 144.06006918770120251
97.009497869018218807469 1992.56369341208596779 97.009497869018218807469 143.77034458815197127
99.504748934509137825444 1994.40396124478252204 99.504748934509137825444 143.49951230859818452
nan nan nan nan

