Time Pressure difference Time.1 Pressure.1 difference.1
(hr) (psi) (hr) (psi)
0.000200000000020850166 0.05572518049845512 0.000200000000020850166 0.04441586135467611
0.000399999999999067768 0.11143054252472713 0.000399999999999067768 0.11631630153608960
0.000600000000019917934 0.16711919307926815 0.000600000000019917934 0.17020850683473709
0.000799999999998135536 0.22279245867525818 0.000799999999998135536 0.22508995454067593
0.001007140329434719206 0.28043814929796079 0.001007140329434719206 0.28272059483604400
0.001267914553977789183 0.35298874651367429 0.001267914553977789183 0.35581008956623034
0.001596209851982166583 0.44429259999972276 0.001596209851982166583 0.44776506778335207
0.002009509145224797066 0.55918877292100388 0.002009509145224797066 0.56343918423734718
0.002529822128153114136 0.70376053513986248 0.002529822128153114136 0.70892636723087099
0.003184857364431081805 0.88565287946159577 0.003184857364431081805 0.89187318911803914
0.004009497869034817086 1.11446977512035117 0.004009497869034817086 1.12186742892842783
0.005047658755856332391 1.40227047883299072 0.005047658755856332391 1.41092004463417364
0.006354625877790454069 1.76418851612906957 0.006354625877790454069 1.77406089077930984
0.008000000000009777068 2.21920196994472896 0.008000000000009777068 2.23007173275047421
0.010071403294361402914 2.79108945933532349 0.010071403294361402914 2.80238307886978921
0.012679145539692626699 3.50961254079990992 0.012679145539692626699 3.52016346118882462
0.015962098519750611558 4.41197191552494150 0.015962098519750611558 4.41962999826179015
0.020095091452091651263 5.54459116678772990 0.020095091452091651263 5.54560566827746637
0.025298221281360611101 6.96528667794869705 0.025298221281360611101 6.95333902460503595
0.031848573644296607199 8.74588401884189359 0.031848573644296607199 8.71058198695681263
0.040094978690191851456 10.97533640022867552 0.040094978690191851456 10.89988472699821997
0.050476587558435426217 13.76338504031281396 0.050476587558435426217 13.62100474034484066
0.063546258777947173257 17.24476730640720845 0.063546258777947173257 16.99322779009844808
0.080000000000012505552 21.58391586135183360 0.080000000000012505552 21.15724554899783527
0.100714032943542974863 26.97998616303521757 0.100714032943542974863 26.27600896296376831
0.126791455396883634421 33.67188108832942817 0.126791455396883634421 32.53365644748950558
0.159620985197506115583 41.94268591697686333 0.159620985197506115583 40.13118382488478630
0.200950914520774404082 52.12255696035217056 0.200950914520774404082 49.27697265922764558
0.252982212813464002465 64.58859680193633324 0.252982212813464002465 60.16964984068361844
0.318485736442809752589 79.75958433060839070 0.318485736442809752589 72.97010338996805956
0.400949786901833249431 98.08262774426083297 0.400949786901833249431 87.75905415880139060
0.504765875584169521062 120.00797070179473280 0.504765875584169521062 104.47689359917656304
0.635462587779443310865 145.94757199483825616 0.635462587779443310865 122.84460890666930766
0.800000000000011368684 176.21329790018060635 0.800000000000011368684 142.27044408667254061
1.007140329435344483500 210.93276881919118182 1.007140329435344483500 161.75909253710398161
1.267914553968907398485 249.94686518584123291 1.267914553968907398485 179.86014879858200288
1.596209851975117999245 292.70435808248265630 1.596209851975117999245 194.71576730603612759
2.009509145207687197399 338.18558674802062569 2.009509145207687197399 204.27705611211604264
2.529822128134725289783 384.90221708831671776 2.529822128134725289783 206.72542572905655334
3.184857364427983839050 431.01980812773973639 3.184857364427983839050 201.03724105544179679
4.009497869018204596614 474.61841137872238505 4.009497869018204596614 187.52538766283299765
5.009497869018190385759 512.82320706427253754 5.009497869018190385759 168.69369194832853509
6.009497869018190385759 540.44882058079213039 6.009497869018190385759 150.73616694607528643
7.009497869018204596614 561.09902501462863711 7.009497869018204596614 134.99268555641117473
8.009497869018190385759 577.00719760950016735 8.009497869018190385759 121.76761345462794850
9.009497869018204596614 589.59869959396337435 9.009497869018204596614 111.00018283199059965
10.009497869018190385759 599.80810474996064841 10.009497869018190385759 102.33076691831189464
11.009497869018190385759 608.26480122376608506 11.009497869018190385759 95.00538933855183643
12.009497869018204596614 615.40234893117792581 12.009497869018204596614 88.99819256723841931
13.009497869018190385759 621.52629842578107855 13.009497869018190385759 84.05667438047008488
14.009497869018204596614 626.85643283224976585 14.009497869018204596614 79.97314013351409301
15.009497869018190385759 631.55387995827709346 15.009497869018190385759 76.57981438967335919
16.009497869018190385759 635.73887828660861032 16.009497869018190385759 73.74272087232287731
17.009497869018204596614 639.50265302274920032 17.009497869018204596614 71.41862027420228287
18.009497869018190385759 642.91550637357875075 18.009497869018190385759 69.38619441514552477
19.009497869018204596614 646.03255146979904566 19.009497869018204596614 67.73629868813051758
20.009497869018190385759 648.89723517063350755 20.009497869018190385759 66.23709806387194021
21.009497869018190385759 651.54447852611190228 21.009497869018190385759 64.94427484791633276
22.009497869018204596614 654.00285255716732991 22.009497869018204596614 63.82185904244403218
23.009497869018190385759 656.29549133074237943 23.009497869018190385759 62.87166717183331599
24.009497869018204596614 658.44180267513456783 24.009497869018204596614 62.00658652259323134
25.009497869018204596614 660.45796830092058372 25.009497869018204596614 61.24234530349036731
26.009497869018190385759 662.35761712912892563 26.009497869018190385759 60.59627655014919156
27.009497869018204596614 664.15244606787769044 27.009497869018204596614 59.98586859264328552
28.009497869018190385759 665.85238608272015881 28.009497869018190385759 59.43886154255519472
29.009497869018190385759 667.46610527213226760 29.009497869018190385759 58.96041671834024100
30.009497869018190385759 669.00109973252654072 30.009497869018190385759 58.51235411549986765
31.009497869018218807469 670.46391296170168062 31.009497869018218807469 58.10494125884943628
32.009497869018190385759 671.86039082865727323 32.009497869018190385759 57.73338249344175921
33.009497869018190385759 673.19555944132798686 33.009497869018190385759 57.40681380409047563
34.009497869018218807469 674.47406091732170808 34.009497869018218807469 57.09150349032869798
35.009497869018190385759 675.69989223698473779 35.009497869018190385759 56.80824539843232657
36.009497869018190385759 676.87670017205152817 36.009497869018190385759 56.53799536960751482
37.009497869018190385759 678.00781690996757334 37.009497869018190385759 56.28689537467659676
38.009497869018218807469 679.09614667466803439 38.009497869018218807469 56.05311255620967614
39.009497869018190385759 680.14440215101456033 39.009497869018190385759 55.83877089959081275
40.009497869018190385759 681.15505111981997288 40.009497869018190385759 55.64584267879403967
41.009497869018218807469 682.13028771014444374 41.009497869018218807469 55.44753501529724815
42.009497869018190385759 683.07216882013449322 42.009497869018190385759 55.26889004202801203
43.009497869018190385759 683.98259152048558462 43.009497869018190385759 55.09312310803802148
44.009497869018218807469 684.86324762749518413 44.009497869018218807469 54.93336600204415987
46.009497869018190385759 686.54153449924615416 46.009497869018190385759 54.63693141610607995
48.009497869018218807469 688.11837985364525139 48.009497869018218807469 54.36372808502881782
50.009497869018190385759 689.60354078879106510 50.009497869018190385759 54.11874838641507068
52.009497869018190385759 691.00545965808464643 52.009497869018190385759 53.89368111676873241
54.009497869018218807469 692.33152510396666912 54.009497869018218807469 53.68318859394600651
56.009497869018190385759 693.58819449711199923 56.009497869018190385759 53.48859891831764202
58.009497869018218807469 694.78118906120801057 58.009497869018218807469 53.31448410322480669
60.009497869018190385759 695.91556712279577823 60.009497869018190385759 53.14513522960616854
62.009497869018190385759 696.99583671641994442 62.009497869018190385759 52.98692827657045257
64.009497869018218807469 698.02603762605872362 64.009497869018218807469 52.83855608779303736
66.009497869018190385759 699.00977845342947603 66.009497869018190385759 52.70047284883993655
68.009497869018190385759 699.95033412079999380 68.009497869018190385759 52.57134700566135166
70.009497869018190385759 700.85064249776883116 70.009497869018190385759 52.44659626733905355
72.009497869018190385759 701.71337932552603434 72.009497869018190385759 52.32963859967006925
74.009497869018218807469 702.54098072887381932 74.009497869018218807469 52.21798902749987548
76.009497869018190385759 703.33565476228193347 76.009497869018190385759 52.11178631291596020
78.009497869018190385759 704.09943102470106169 78.009497869018190385759 52.01108311329064549
80.009497869018218807469 704.83416638604046511 80.009497869018218807469 51.91460777780899605
82.009497869018190385759 705.54155926408623145 82.009497869018190385759 51.82224073878783344
84.009497869018218807469 706.22318125900949326 84.009497869018218807469 51.73306178116664000
86.009497869018190385759 706.88048028731702743 86.009497869018190385759 51.64869496126316051
88.009497869018190385759 707.51478743457766996 88.009497869018190385759 51.56681089846428279
91.009497869018218807469 708.42582038733962690 91.009497869018218807469 51.45050747476263808
94.009497869018218807469 709.29168699308240775 94.009497869018218807469 51.34055657221266245
97.009497869018218807469 710.11578435430726586 97.009497869018218807469 51.23730365641586815
99.504748934509137825444 710.77162448617252721 99.504748934509137825444 51.14078364189403914
nan nan nan nan

