Time Pressure difference Time.1 Pressure.1 difference.1
(hr) (psi) (hr) (psi)
0.000200000000020850166 0.31272638608088243 0.000200000000020850166 0.24925916222922714
0.000399999999999067768 0.62534155207906572 0.000399999999999067768 0.65276013996372673
0.000600000000019917934 0.93786293429559431 0.000600000000019917934 0.95519997865464401
0.000799999999998135536 1.25029797704324008 0.000799999999998135536 1.26319138667603204
0.001007140329434719206 1.57380215128407830 0.001007140329434719206 1.58661109937839617
0.001267914553977789183 1.98095177147972401 0.001267914553977789183 1.99678498025227791
0.001596209851982166583 2.49334354626710075 0.001596209851982166583 2.51283082815731929
0.002009509145224797066 3.13813400922832031 0.002009509145224797066 3.16198706377973959
0.002529822128153114136 3.94946210765057204 0.002529822128153114136 3.97845244893742533
0.003184857364431081805 4.97023108473970154 0.003184857364431081805 5.00513909116989097
0.004009497869034817086 6.25433784246644731 0.004009497869034817086 6.29585303398640139
0.005047658755856332391 7.86945820957021702 0.005047658755856332391 7.91799905645446689
0.006354625877790454069 9.90052062782880782 0.006354625877790454069 9.95592380497045504
0.008000000000009777068 12.45402896565997075 0.008000000000009777068 12.51502942558474984
0.010071403294361402914 15.66342741358330670 0.010071403294361402914 15.72680653216478852
0.012679145539692626699 19.69573604986218029 0.012679145539692626699 19.75494718517907344
0.015962098519750611558 24.75972298861757892 0.015962098519750611558 24.80269969173780709
0.020095091452091651263 31.11591460764457651 0.020095091452091651263 31.12160792943772236
0.025298221281360611101 39.08877299863746657 0.025298221281360611101 39.02172348136556934
0.031848573644296607199 49.08137897141122608 0.031848573644296607199 48.88326607605613816
0.040094978690191851456 61.59293263411912989 0.040094978690191851456 61.16950234852731683
0.050476587558435426217 77.23929515160624248 0.050476587558435426217 76.44026540850238405
0.063546258777947173257 96.77660458521060605 0.063546258777947173257 95.36497983697039160
0.080000000000012505552 121.12764722191478484 0.080000000000012505552 118.73319890183860537
0.100714032943542974863 151.41007160151104927 0.100714032943542974863 147.45939358319967027
0.126791455396883634421 188.96458640614721958 0.126791455396883634421 182.57693767546348340
0.159620985197506115583 235.37984932512387104 0.159620985197506115583 225.21380773368181849
0.200950914520774404082 292.50867786705100571 0.200950914520774404082 276.53942865477006308
0.252982212813464002465 362.46734921683679431 0.252982212813464002465 337.66848268801555832
0.318485736442809752589 447.60602549714559473 0.318485736442809752589 409.50386380041777556
0.400949786901833249431 550.43385122152346867 0.400949786901833249431 492.49857259267656673
0.504765875584169521062 673.47756692350469621 0.504765875584169521062 586.31808945209525064
0.635462587779443310865 819.04906074715199793 0.635462587779443310865 689.39661117772629950
0.800000000000011368684 988.89850761892398623 0.800000000000011368684 798.41323845655051628
1.007140329435344483500 1183.74210561217728355 1.007140329435344483500 907.78237005897176459
1.267914553968907398485 1402.68688522203410685 1.267914553968907398485 1009.36441713831095512
1.596209851975117999245 1642.63938267184312281 1.596209851975117999245 1092.73326129954602948
2.009509145207687197399 1897.87732264560850126 2.009509145207687197399 1146.39064325605431804
2.529822128134725289783 2160.04826306279255732 2.529822128134725289783 1160.13074737500414813
3.184857364427983839050 2418.85743068701731318 3.184857364427983839050 1128.20899457979294311
4.009497869018204596614 2663.53018922984483652 4.009497869018204596614 1052.38128001828658853
5.009497869018190385759 2877.93322173382739493 5.009497869018190385759 946.69892794882878206
6.009497869018190385759 3032.96651549817670457 6.009497869018190385759 845.92236972722855626
7.009497869018204596614 3148.85422993284100812 7.009497869018204596614 757.57089207777016782
8.009497869018190385759 3238.12994479361259437 8.009497869018190385759 683.35257699910607698
9.009497869018204596614 3308.79270219895897753 9.009497869018204596614 622.92639917654435067
10.009497869018190385759 3366.08727441768951394 10.009497869018190385759 574.27415464604871431
11.009497869018190385759 3413.54575015128421001 11.009497869018190385759 533.16457300441027201
12.009497869018204596614 3453.60124176302861088 12.009497869018204596614 499.45254336241265491
13.009497869018190385759 3487.96848071781641920 13.009497869018190385759 471.72103831427978093
14.009497869018204596614 3517.88087678993861118 14.009497869018204596614 448.80448791345230575
15.009497869018190385759 3544.24266961659941444 15.009497869018190385759 429.76134642562959698
16.009497869018190385759 3567.72863038454943307 16.009497869018190385759 413.83974698497610234
17.009497869018204596614 3588.85070950080171315 17.009497869018204596614 400.79703318059790718
18.009497869018190385759 3608.00343875321823361 18.009497869018190385759 389.39118059842860475
19.009497869018204596614 3625.49610974096185601 19.009497869018204596614 380.13206427965786816
20.009497869018190385759 3641.57254364415257442 20.009497869018190385759 371.71863988083356389
21.009497869018190385759 3656.42871531071750724 21.009497869018190385759 364.46339317636619626
22.009497869018204596614 3670.22496360440209173 22.009497869018204596614 358.16446268595456104
23.009497869018190385759 3683.09111552774766096 23.009497869018190385759 352.83204263596013561
24.009497869018204596614 3695.13608665448691681 24.009497869018204596614 347.97726167903067562
25.009497869018204596614 3706.45068777830147155 25.009497869018204596614 343.68838558376683068
26.009497869018190385759 3717.11140359033561253 26.009497869018190385759 340.06268631128500601
27.009497869018204596614 3727.18387644062659092 27.009497869018204596614 336.63711329602796241
28.009497869018190385759 3736.72383831496699713 28.009497869018190385759 333.56734238807098336
29.009497869018190385759 3745.77993406450423208 29.009497869018190385759 330.88233859844672224
30.009497869018190385759 3754.39423133477521333 30.009497869018190385759 328.36783802131270704
31.009497869018218807469 3762.60345184477364455 31.009497869018218807469 326.08146139294609611
32.009497869018190385759 3770.44040226231527413 32.009497869018190385759 323.99629578409104624
33.009497869018190385759 3777.93328880506442147 33.009497869018190385759 322.16361179608981047
34.009497869018218807469 3785.10816275989463975 34.009497869018218807469 320.39410913975507356
35.009497869018190385759 3791.98745494188460725 35.009497869018190385759 318.80448163896352298
36.009497869018190385759 3798.59163081628912551 36.009497869018190385759 317.28785461152875769
37.009497869018190385759 3804.93939042011652418 37.009497869018190385759 315.87869643102084183
38.009497869018218807469 3811.04703208470391473 38.009497869018218807469 314.56672121096772798
39.009497869018190385759 3816.92977923554417430 39.009497869018190385759 313.36384863053950767
40.009497869018190385759 3822.60148091122891856 40.009497869018190385759 312.28114697353072415
41.009497869018218807469 3828.07445043305006038 41.009497869018218807469 311.16825620525025897
42.009497869018190385759 3833.36023099060548702 42.009497869018190385759 310.16571128063480955
43.009497869018190385759 3838.46946883138116391 43.009497869018190385759 309.17931774063129069
44.009497869018218807469 3843.41165832743536157 44.009497869018218807469 308.28277039953138683
46.009497869018190385759 3852.83010405547111077 46.009497869018190385759 306.61919720083409402
48.009497869018218807469 3861.67926604433750981 48.009497869018218807469 305.08599641747514397
50.009497869018190385759 3870.01390054605144542 50.009497869018190385759 303.71118497450845553
52.009497869018190385759 3877.88138554387842305 52.009497869018190385759 302.44812089410515910
54.009497869018218807469 3885.32318565808145649 54.009497869018218807469 301.26684942274175683
56.009497869018190385759 3892.37553926737518850 56.009497869018190385759 300.17482378040949698
58.009497869018218807469 3899.07055353752548399 58.009497869018218807469 299.19770183302279065
60.009497869018190385759 3905.43661549509215547 60.009497869018190385759 298.24732606465551044
62.009497869018190385759 3911.49902396080506151 62.009497869018190385759 297.35947808941028825
64.009497869018218807469 3917.28044996116568655 64.009497869018218807469 296.52682222403257128
66.009497869018190385759 3922.80114475357504489 66.009497869018190385759 295.75190733080319205
68.009497869018190385759 3928.07948700628003280 68.009497869018190385759 295.02726080789057050
70.009497869018190385759 3933.13196386807612726 70.009497869018190385759 294.32716711223110906
72.009497869018190385759 3937.97359143877338283 72.009497869018190385759 293.67080766382008505
74.009497869018218807469 3942.61804110532193590 74.009497869018218807469 293.04423693044708443
76.009497869018190385759 3947.07770433758241779 76.009497869018190385759 292.44823363666267824
78.009497869018190385759 3951.36397112369513707 78.009497869018190385759 291.88309329249676694
80.009497869018218807469 3955.48726210673430614 80.009497869018218807469 291.34167946949526140
82.009497869018190385759 3959.45710870591665298 82.009497869018190385759 290.82332116095858510
84.009497869018218807469 3963.28233064757569082 84.009497869018218807469 290.32285417490533064
86.009497869018190385759 3966.97105355270514337 86.009497869018190385759 289.84939261843209124
88.009497869018190385759 3970.53074739404746651 88.009497869018190385759 289.38986414660553237
91.009497869018218807469 3975.64340993492123744 91.009497869018218807469 288.73717627627991078
94.009497869018218807469 3980.50260163282064241 94.009497869018218807469 288.12013837540240502
97.009497869018218807469 3985.12738682417193559 97.009497869018218807469 287.54068917630394253
99.504748934509137825444 3988.80792248956504409 99.504748934509137825444 286.99902461719636904
nan nan nan nan

