Time Pressure difference Time.1 Pressure.1 difference.1
(hr) (psi) (hr) (psi)
0.000200000000020850166 0.71694187447266133 0.000200000000020850166 0.57143988787657918
0.000399999999999067768 1.43362877098977282 0.000399999999999067768 1.49648734215088397
0.000600000000019917934 2.15010066319894255 0.000600000000019917934 2.18984675957527442
0.000799999999998135536 2.86637461758317258 0.000799999999998135536 2.89593344498600969
0.001007140329434719206 3.60802514469913715 0.001007140329434719206 3.63739033953238700
0.001267914553977789183 4.54143730589234718 0.001267914553977789183 4.57773577919538077
0.001596209851982166583 5.71612270447404569 0.001596209851982166583 5.76079833476491743
0.002009509145224797066 7.19433913817769177 0.002009509145224797066 7.24902353451631765
0.002529822128153114136 9.05435195956061811 0.002529822128153114136 9.12081385900015995
0.003184857364431081805 11.39451913575963538 0.003184857364431081805 11.47454759730969798
0.004009497869034817086 14.33840218139914491 0.004009497869034817086 14.43357796621350708
0.005047658755856332391 18.04115153364235979 0.005047658755856332391 18.15243400708444099
0.006354625877790454069 22.69747016273519336 0.006354625877790454069 22.82448489330992913
0.008000000000009777068 28.55152385212472055 0.008000000000009777068 28.69137065120759189
0.010071403294361402914 35.90924050667236855 0.010071403294361402914 36.05454050725013104
0.012679145539692626699 45.15352253984362108 0.012679145539692626699 45.28926721708607062
0.015962098519750611558 56.76298195794775125 0.015962098519750611558 56.86150833584571984
0.020095091452091651263 71.33488933986602376 0.020095091452091651263 71.34794158291308008
0.025298221281360611101 89.61309128942950508 0.025298221281360611101 89.45937670462001279
0.031848573644296607199 112.52167200360766230 0.031848573644296607199 112.06748765308614679
0.040094978690191851456 141.20507428353906221 0.040094978690191851456 140.23433783093233274
0.050476587558435426217 177.07519260820365048 0.050476587558435426217 175.24337442055602310
0.063546258777947173257 221.86551370332855981 0.063546258777947173257 218.62928888156514518
0.080000000000012505552 277.69157421619820525 0.080000000000012505552 272.20217407815124488
0.100714032943542974863 347.11564287367696124 0.100714032943542974863 338.05850337425027874
0.126791455396883634421 433.21136564388007173 0.126791455396883634421 418.56734116023807246
0.159620985197506115583 539.62082478259787877 0.159620985197506115583 516.31463368732363506
0.200950914520774404082 670.59170298244134756 0.200950914520774404082 633.98134973513776913
0.252982212813464002465 830.97567825774819994 0.252982212813464002465 774.12295765178032525
0.318485736442809752589 1026.16062228334953943 0.318485736442809752589 938.80938988287266511
0.400949786901833249431 1261.89888232168414106 0.400949786901833249431 1129.07917440129563147
0.504765875584169521062 1543.98314544697109341 0.504765875584169521062 1344.16540720134617004
0.635462587779443310865 1877.71353820224726405 0.635462587779443310865 1580.47840115744679679
0.800000000000011368684 2267.10242970083072578 0.800000000000011368684 1830.40481795092159700
1.007140329435344483500 2713.79174212153384360 1.007140329435344483500 2081.13936965647235411
1.267914553968907398485 3215.73429537604670259 1.267914553968907398485 2314.02161588623403077
1.596209851975117999245 3765.83815921044879360 1.596209851975117999245 2505.14912563885309282
2.009509145207687197399 4350.98471308647458500 2.009509145207687197399 2628.16152789020952696
2.529822128134725289783 4952.02553925565734971 2.529822128134725289783 2659.66144743950417251
3.184857364427983839050 5545.35932247927848948 3.184857364427983839050 2586.47913119090799228
4.009497869018204596614 6106.28463594714412466 4.009497869018204596614 2412.64006216958296136
5.009497869018190385759 6597.81499237914704281 5.009497869018190385759 2170.35764864864495394
6.009497869018190385759 6953.23706478571421030 6.009497869018190385759 1939.32202847040161942
7.009497869018204596614 7218.91581436731212307 7.009497869018204596614 1736.77156641233477785
8.009497869018190385759 7423.58513939386739366 8.009497869018190385759 1566.62213131178032199
9.009497869018204596614 7585.58326940293318330 9.009497869018204596614 1428.09190449516268018
10.009497869018190385759 7716.93412379799974588 10.009497869018190385759 1316.55404602365456412
11.009497869018190385759 7825.73520380427362397 11.009497869018190385759 1222.30814343032375291
12.009497869018204596614 7917.56454893545287632 12.009497869018204596614 1145.02152228297791225
13.009497869018190385759 7996.35327228392907273 13.009497869018190385759 1081.44557188007775039
14.009497869018204596614 8064.92903136416771304 14.009497869018204596614 1028.90816112073366639
15.009497869018190385759 8125.36484364231182553 15.009497869018190385759 985.25074632684220433
16.009497869018190385759 8179.20765795606803295 16.009497869018190385759 948.74963271555691335
17.009497869018204596614 8227.63114784492245235 17.009497869018204596614 918.84851755764736936
18.009497869018190385759 8271.53979841828186181 18.009497869018190385759 892.69999381873776656
19.009497869018204596614 8311.64267711890715873 19.009497869018204596614 871.47297715176887323
20.009497869018190385759 8348.49875697143397701 20.009497869018190385759 852.18475419488981970
21.009497869018190385759 8382.55732073893159395 21.009497869018190385759 835.55171520752037395
22.009497869018204596614 8414.18595379519683775 22.009497869018204596614 821.11108200875764851
23.009497869018190385759 8443.68229144925135188 23.009497869018190385759 808.88622540478093015
24.009497869018204596614 8471.29602844725377508 24.009497869018204596614 797.75638182799059450
25.009497869018204596614 8497.23535336408349394 25.009497869018204596614 787.92390524789107076
26.009497869018190385759 8521.67561142252452555 26.009497869018190385759 779.61179680938221281
27.009497869018204596614 8544.76729120164964115 27.009497869018204596614 771.75848846057476749
28.009497869018190385759 8566.63816124335608038 28.009497869018190385759 764.72087536839660515
29.009497869018190385759 8587.39974245638950379 29.009497869018190385759 758.56536136133263426
30.009497869018190385759 8607.14847715578798670 30.009497869018190385759 752.80073503822211478
31.009497869018218807469 8625.96855183562547609 31.009497869018218807469 747.55909500191364714
32.009497869018190385759 8643.93517752690422640 32.009497869018190385759 742.77874193054913121
33.009497869018190385759 8661.11301848395123670 33.009497869018190385759 738.57721640486545311
34.009497869018218807469 8677.56179866762977326 34.009497869018218807469 734.52053744273644043
35.009497869018190385759 8693.33294191463937750 35.009497869018190385759 730.87623184251731345
36.009497869018190385759 8708.47336639266177372 36.009497869018190385759 727.39928371047290057
37.009497869018190385759 8723.02594293122456293 37.009497869018190385759 724.16871362643621524
38.009497869018218807469 8737.02803632184804883 38.009497869018218807469 721.16094064854826229
39.009497869018190385759 8750.51454707723132742 39.009497869018190385759 718.40329127533254905
40.009497869018190385759 8763.51722485499885806 40.009497869018190385759 715.92114013612626877
41.009497869018218807469 8776.06429859917261638 41.009497869018218807469 713.36977885352587236
42.009497869018190385759 8788.18223168590884598 42.009497869018190385759 711.07139128698725017
43.009497869018190385759 8799.89543120385860675 43.009497869018190385759 708.81003162878766943
44.009497869018218807469 8811.22566350598208373 44.009497869018218807469 706.75464916062787779
46.009497869018190385759 8832.81795131865874282 46.009497869018190385759 702.94081911467822010
48.009497869018218807469 8853.10512587824268849 48.009497869018218807469 699.42587476559458537
50.009497869018190385759 8872.21271880504355067 50.009497869018190385759 696.27404640432530414
52.009497869018190385759 8890.24934664580541721 52.009497869018190385759 693.37840481574096430
54.009497869018218807469 8907.31006924804933078 54.009497869018218807469 690.67027713405150280
56.009497869018190385759 8923.47796502254641382 56.009497869018190385759 688.16675026253437863
58.009497869018218807469 8938.82664135464619903 58.009497869018218807469 685.92664622357892767
60.009497869018190385759 8953.42117701268580277 60.009497869018190385759 683.74785922269427374
62.009497869018190385759 8967.31957088886520069 62.009497869018190385759 681.71242051348849600
64.009497869018218807469 8980.57379751735243190 64.009497869018218807469 679.80351265190449794
66.009497869018190385759 8993.23028398292990460 66.009497869018190385759 678.02697904029889742
68.009497869018190385759 9005.33116436014279316 68.009497869018190385759 676.36568834149386475
70.009497869018190385759 9016.91423631457837473 70.009497869018190385759 674.76068630516817848
72.009497869018190385759 9028.01392505378316855 72.009497869018190385759 673.25594735694926385
74.009497869018218807469 9038.66157295954144502 74.009497869018218807469 671.81950062246119160
76.009497869018190385759 9048.88558813562667638 76.009497869018190385759 670.45313136915751784
78.009497869018190385759 9058.71208273570664460 78.009497869018190385759 669.15751706950049993
80.009497869018218807469 9068.16494663831144862 80.009497869018218807469 667.91629708166203727
82.009497869018190385759 9077.26603112898919790 82.009497869018190385759 666.72793308709117355
84.009497869018218807469 9086.03555589949428395 84.009497869018218807469 665.58058590097982687
86.009497869018190385759 9094.49214936816861155 86.009497869018190385759 664.49515009863944215
88.009497869018190385759 9102.65293684486459824 88.009497869018190385759 663.44165663397325261
91.009497869018218807469 9114.37398766995283950 91.009497869018218807469 661.94533497381189591
94.009497869018218807469 9125.51394310503019369 94.009497869018218807469 660.53074276488530359
97.009497869018218807469 9136.11650915541576978 97.009497869018218807469 659.20232465418621359
99.504748934509137825444 9144.55433294150316215 99.504748934509137825444 657.96052984048753842
nan nan nan nan

