Time Pressure difference Time.1 Pressure.1 difference.1
(hr) (psi) (hr) (psi)
0.000200000000020850166 0.06820096717721373 0.000200000000020850166 0.05435971091169314
0.000399999999999067768 0.13637767891086006 0.000399999999999067768 0.14235726456655742
0.000600000000019917934 0.20453393779850729 0.000600000000019917934 0.20831488896191705
0.000799999999998135536 0.27267136733389807 0.000799999999998135536 0.27548322794530483
0.001007140329434719206 0.34322280958854895 0.001007140329434719206 0.34601625039635242
0.001267914553977789183 0.43201607782270579 0.001267914553977789183 0.43546906484225206
0.001596209851982166583 0.54376109253697413 0.001596209851982166583 0.54801097848111746
0.002009509145224797066 0.68438028924660177 0.002009509145224797066 0.68958228518600706
0.002529822128153114136 0.86131886390251822 0.002529822128153114136 0.86764122556614065
0.003184857364431081805 1.08393337486344565 0.003184857364431081805 1.09154629115939117
0.004009497869034817086 1.36397793372938492 0.004009497869034817086 1.37303177868852377
0.005047658755856332391 1.71621163081052597 0.005047658755856332391 1.72679766656719758
0.006354625877790454069 2.15915609436692080 0.006354625877790454069 2.17123870214781212
0.008000000000009777068 2.71603823187265281 0.008000000000009777068 2.72934152366475935
0.010071403294361402914 3.41596023381338121 0.010071403294361402914 3.42978227563168270
0.012679145539692626699 4.29534669172526318 0.012679145539692626699 4.30825975846990428
0.015962098519750611558 5.39972682198574905 0.015962098519750611558 5.40909940085771268
0.020095091452091651263 6.78591754741184960 0.020095091452091651263 6.78715917610078012
0.025298221281360611101 8.52467921778795734 0.025298221281360611101 8.51005671668078989
0.031848573644296607199 10.70391775440351090 0.031848573644296607199 10.66071228254415715
0.040094978690191851456 13.43250126595151173 0.040094978690191851456 13.34015742707244634
0.050476587558435426217 16.84473990008433830 0.050476587558435426217 16.67048341355637575
0.063546258777947173257 21.10553610634912047 0.063546258777947173257 20.79768177295631304
0.080000000000012505552 26.41613583031120172 0.080000000000012505552 25.89394231369884380
0.100714032943542974863 33.02028157266996544 0.100714032943542974863 32.15869753676162901
0.126791455396883634421 41.21036192900019302 0.126791455396883634421 39.81731087603193231
0.159620985197506115583 51.33283948047914436 0.159620985197506115583 49.11577721851570999
0.200950914520774404082 63.79178613058027025 0.200950914520774404082 60.30913071726368457
0.252982212813464002465 79.04873041431015679 0.252982212813464002465 73.64046696919487545
0.318485736442809752589 97.61620768820726823 0.318485736442809752589 89.30669370115494132
0.400949786901833249431 120.04142500043863606 0.400949786901833249431 107.40660359733902851
0.504765875584169521062 146.87542682906220648 0.504765875584169521062 127.86724291242504137
0.635462587779443310865 178.62240154592143426 0.635462587779443310865 150.34713328875946559
0.800000000000011368684 215.66403623604190898 0.800000000000011368684 174.12203604637537069
1.007140329435344483500 258.15652303244291943 1.007140329435344483500 197.97381474690340042
1.267914553968907398485 305.90511858565639614 1.267914553968907398485 220.12734629080185300
1.596209851975117999245 358.23518451885939839 1.596209851975117999245 238.30884953873078302
2.009509145207687197399 413.89877781101034770 2.009509145207687197399 250.01072539094801073
2.529822128134725289783 471.07435524241748226 2.529822128134725289783 253.00723745944236498
3.184857364427983839050 527.51678009663680768 3.184857364427983839050 246.04557860516760570
4.009497869018204596614 580.87626467246616357 4.009497869018204596614 229.50868340824337110
5.009497869018190385759 627.63437282493055136 5.009497869018190385759 206.46093641437227006
6.009497869018190385759 661.44482518843221897 6.009497869018190385759 184.48306999370407766
7.009497869018204596614 686.71820971939621359 7.009497869018204596614 165.21492859142858833
8.009497869018190385759 706.18791349222408371 8.009497869018190385759 149.02901945193272581
9.009497869018204596614 721.59840845828364309 9.009497869018204596614 135.85097003318253428
10.009497869018190385759 734.09350133577265751 10.009497869018190385759 125.24064010897873800
11.009497869018190385759 744.44348806490779680 11.009497869018190385759 116.27525262330225075
12.009497869018204596614 753.17899421427762263 12.009497869018204596614 108.92316105244104563
13.009497869018190385759 760.67397717782171185 13.009497869018190385759 102.87533282385889777
14.009497869018204596614 767.19742525738024597 14.009497869018204596614 97.87757449176352509
15.009497869018190385759 772.94653965042869004 15.009497869018190385759 93.72454895452561630
16.009497869018190385759 778.06847790301344503 16.009497869018190385759 90.25228524672351682
17.009497869018204596614 782.67488877411108206 17.009497869018204596614 87.40786361917295721
18.009497869018190385759 786.85181377064861863 18.009497869018190385759 84.92041704540197600
19.009497869018204596614 790.66670478393314170 19.009497869018204596614 82.90114167801048950
20.009497869018190385759 794.17273558196950489 20.009497869018190385759 81.06629912294775409
21.009497869018190385759 797.41264536031610533 21.009497869018190385759 79.48403787356922123
22.009497869018204596614 800.42140163713020229 22.009497869018204596614 78.11033494746881445
23.009497869018190385759 803.22731774807266447 23.009497869018190385759 76.94741355358705448
24.009497869018204596614 805.85414655762747316 24.009497869018204596614 75.88865813212903788
25.009497869018204596614 808.32169254739551434 25.009497869018204596614 74.95331813263001663
26.009497869018190385759 810.64663588938174144 26.009497869018190385759 74.16260712107811059
27.009497869018204596614 812.84329220247718695 27.009497869018204596614 73.41554066562312642
28.009497869018190385759 814.92381580273217878 28.009497869018190385759 72.74606935058994850
29.009497869018190385759 816.89881540768442392 29.009497869018190385759 72.16051001349103444
30.009497869018190385759 818.77746534428615632 30.009497869018190385759 71.61213488762670920
31.009497869018218807469 820.56777407253036927 31.009497869018218807469 71.11351019739782942
32.009497869018190385759 822.27689623805804331 32.009497869018190385759 70.65876663376454303
33.009497869018190385759 823.91098319684920170 33.009497869018190385759 70.25908555127492150
34.009497869018218807469 825.47571634657265349 34.009497869018218807469 69.87318337622318154
35.009497869018190385759 826.97598751392160921 35.009497869018190385759 69.52650929360375187
36.009497869018190385759 828.41625991206308299 36.009497869018190385759 69.19575552698233878
37.009497869018190385759 829.80061174055731499 37.009497869018190385759 68.88843911527582975
38.009497869018218807469 831.13259742272805397 38.009497869018218807469 68.60231685983870875
39.009497869018190385759 832.41553696094320003 39.009497869018190385759 68.33998826517083103
40.009497869018190385759 833.65245062425742617 40.009497869018190385759 68.10386715912105160
41.009497869018218807469 834.84602376465443285 41.009497869018218807469 67.86116225752799380
42.009497869018190385759 835.99877377986615556 42.009497869018190385759 67.64252214098951299
43.009497869018190385759 837.11302245790761845 43.009497869018190385759 67.42740440088235232
44.009497869018218807469 838.19084037991945024 44.009497869018218807469 67.23188077862121759
46.009497869018190385759 840.24486311848045261 46.009497869018190385759 66.86908024060743116
48.009497869018218807469 842.17473355222250575 48.009497869018218807469 66.53471198466213821
50.009497869018190385759 843.99239320419201249 50.009497869018190385759 66.23488608486621843
52.009497869018190385759 845.70817450690958594 52.009497869018190385759 65.95943062052292305
54.009497869018218807469 847.33112027649656284 54.009497869018218807469 65.70181290602346280
56.009497869018190385759 848.86913356362970262 56.009497869018190385759 65.46365837764248852
58.009497869018218807469 850.32921646297097595 58.009497869018218807469 65.25056263379752863
60.009497869018190385759 851.71755976222755180 60.009497869018190385759 65.04329983324934972
62.009497869018190385759 853.03968075740954191 62.009497869018190385759 64.84967341311607925
64.009497869018218807469 854.30052366174345480 64.009497869018218807469 64.66808357013476893
66.009497869018190385759 855.50450497285407891 66.009497869018190385759 64.49908617320708970
68.009497869018190385759 856.65563280456115081 68.009497869018190385759 64.34105155916762442
70.009497869018190385759 857.75750275846337445 70.009497869018190385759 64.18837155107168257
72.009497869018190385759 858.81338962228562650 72.009497869018190385759 64.04522933093947756
74.009497869018218807469 859.82627492190522389 74.009497869018218807469 63.90858358589536437
76.009497869018190385759 860.79886105234515981 76.009497869018190385759 63.77860414416579715
78.009497869018190385759 861.73363200038033938 78.009497869018190385759 63.65535545208705770
80.009497869018218807469 862.63286035306441590 80.009497869018218807469 63.53728116090056233
82.009497869018190385759 863.49862477097121882 82.009497869018190385759 63.42423493403884294
84.009497869018218807469 864.33284870505633535 84.009497869018218807469 63.31509053814423993
86.009497869018190385759 865.13730423223876187 86.009497869018190385759 63.21183562423252056
88.009497869018190385759 865.91362044231891559 88.009497869018190385759 63.11161930856822266
91.009497869018218807469 867.02861599644563739 91.009497869018218807469 62.96927780493338389
94.009497869018218807469 868.08833333481720729 94.009497869018218807469 62.83471102867818558
97.009497869018218807469 869.09693010527155366 97.009497869018218807469 62.70834178844926754
99.504748934509137825444 869.89960011740515711 99.504748934509137825444 62.59021281545240356
nan nan nan nan

