Time Pressure difference Time.1 Pressure.1 difference.1
(hr) (psi) (hr) (psi)
0.000200000000020850166 0.35181718434099274 0.000200000000020850166 0.28041655750788053
0.000399999999999067768 0.70350924608894883 0.000399999999999067768 0.73435515745919244
0.000600000000019917934 1.05509580108254375 0.000600000000019917934 1.07459997598647461
0.000799999999998135536 1.40658522417364495 0.000799999999998135536 1.42109031001053610
0.001007140329434719206 1.77052742019458820 0.001007140329434719206 1.78493748680069597
0.001267914553977789183 2.22857074291468971 0.001267914553977789183 2.24638310278381237
0.001596209851982166583 2.80501148955048851 0.001596209851982166583 2.82693468167698381
0.002009509145224797066 3.53040076038186035 0.002009509145224797066 3.55723544675220671
0.002529822128153114136 4.44314487110689349 0.002529822128153114136 4.47575900505460300
0.003184857364431081805 5.59150997033216424 0.003184857364431081805 5.63078147756612779
0.004009497869034817086 7.03613007277475422 0.004009497869034817086 7.08283466323470190
0.005047658755856332391 8.85314048576649526 0.005047658755856332391 8.90774893851127558
0.006354625877790454069 11.13808570630740924 0.006354625877790454069 11.20041428059176347
0.008000000000009777068 14.01078258636746554 0.008000000000009777068 14.07940810378284269
0.010071403294361402914 17.62135584028122182 0.010071403294361402914 17.69265734868538686
0.012679145539692626699 22.15770305609495594 0.012679145539692626699 22.22431558332645807
0.015962098519750611558 27.85468836219477851 0.015962098519750611558 27.90303715320503386
0.020095091452091651263 35.00540393360014235 0.020095091452091651263 35.01180892061744032
0.025298221281360611101 43.97486962346714989 0.025298221281360611101 43.89943891653627617
0.031848573644296607199 55.21655134283763289 0.031848573644296607199 54.99367433556315632
0.040094978690191851456 69.29204921338401846 0.040094978690191851456 68.81569014209323143
0.050476587558435426217 86.89420704555701036 0.050476587558435426217 85.99529858456519094
0.063546258777947173257 108.87368015836193536 0.063546258777947173257 107.28560231659170654
0.080000000000012505552 136.26860312465410630 0.080000000000012505552 133.57484876456842926
0.100714032943542974863 170.33633055169994464 0.100714032943542974863 165.89181778109960419
0.126791455396883634421 212.58515970691561847 0.126791455396883634421 205.39905488489640106
0.159620985197506115583 264.80233049076440466 0.159620985197506115583 253.36553370039203514
0.200950914520774404082 329.07226260043239563 0.200950914520774404082 311.10685723661634938
0.252982212813464002465 407.77576786894132965 0.252982212813464002465 379.87704302401749601
0.318485736442809752589 503.55677868428875854 0.318485736442809752589 460.69184677546996909
0.400949786901833249431 619.23808262421403015 0.400949786901833249431 554.06089416676104520
0.504765875584169521062 757.66226278894282586 0.504765875584169521062 659.60785063360719960
0.635462587779443310865 921.43019334054599767 0.635462587779443310865 775.57118757494208694
0.800000000000011368684 1112.51082107128922871 0.800000000000011368684 898.21489326361927397
1.007140329435344483500 1331.70986881369958610 1.007140329435344483500 1021.25516631634309306
1.267914553968907398485 1578.02274587478859758 1.267914553968907398485 1135.53496928059985294
1.596209851975117999245 1847.96930550582351316 1.596209851975117999245 1229.32491896198939685
2.009509145207687197399 2135.11198797630959234 2.009509145207687197399 1289.68947366306110780
2.529822128134725289783 2430.05429594564157014 2.529822128134725289783 1305.14709079687941085
3.184857364427983839050 2721.21460952289407942 3.184857364427983839050 1269.23511890226677679
4.009497869018204596614 2996.47146288357544108 4.009497869018204596614 1183.92894002057255420
5.009497869018190385759 3237.67487445055621720 5.009497869018190385759 1065.03629394243239403
6.009497869018190385759 3412.08732993544890633 6.009497869018190385759 951.66266594313208316
7.009497869018204596614 3542.46100867444647520 7.009497869018204596614 852.26725358749138195
8.009497869018190385759 3642.89618789281439604 8.009497869018190385759 768.77164912399427976
9.009497869018204596614 3722.39178997382896341 9.009497869018204596614 700.79219907361220976
10.009497869018190385759 3786.84818371990058949 10.009497869018190385759 646.05842397680487466
11.009497869018190385759 3840.23896892019502047 11.009497869018190385759 599.81014462996165548
12.009497869018204596614 3885.30139698340735777 12.009497869018204596614 561.88411128271411599
13.009497869018190385759 3923.96454080754301685 13.009497869018190385759 530.68616810356479618
14.009497869018204596614 3957.61598638868099442 14.009497869018204596614 504.90504890263383686
15.009497869018190385759 3987.27300331867490968 15.009497869018190385759 483.48151472883330371
16.009497869018190385759 4013.69470918261777115 16.009497869018190385759 465.56971535809810803
17.009497869018204596614 4037.45704818840158623 17.009497869018204596614 450.89666232817262426
18.009497869018190385759 4059.00386859737000123 18.009497869018190385759 438.06507817323216614
19.009497869018204596614 4078.68312345858203116 19.009497869018204596614 427.64857231461508036
20.009497869018190385759 4096.76911159967130516 20.009497869018190385759 418.18346986593775227
21.009497869018190385759 4113.48230472455725248 21.009497869018190385759 410.02131732341200632
22.009497869018204596614 4129.00308405495252373 22.009497869018204596614 402.93502052169890248
23.009497869018190385759 4143.47750496871685755 23.009497869018190385759 396.93604796545514546
24.009497869018204596614 4157.02809748629806563 24.009497869018204596614 391.47441938890955271
25.009497869018204596614 4169.75702375058881444 25.009497869018204596614 386.64943378173768451
26.009497869018190385759 4181.75032903912779148 26.009497869018190385759 382.57052210019560334
27.009497869018204596614 4193.08186099570502847 27.009497869018204596614 378.71675245803146481
28.009497869018190385759 4203.81431810433787177 28.009497869018190385759 375.26326018657977102
29.009497869018190385759 4214.00242582256669266 29.009497869018190385759 372.24263092325259095
30.009497869018190385759 4223.69351025162268343 30.009497869018190385759 369.41381777397680253
31.009497869018218807469 4232.92888332536949747 31.009497869018218807469 366.84164406706435102
32.009497869018190385759 4241.74545254510485393 32.009497869018190385759 364.49583275710244834
33.009497869018190385759 4250.17494990569684887 33.009497869018190385759 362.43406327060108651
34.009497869018218807469 4258.24668310488141287 34.009497869018218807469 360.44337278222445775
35.009497869018190385759 4265.98588680962075159 35.009497869018190385759 358.65504184383394204
36.009497869018190385759 4273.41558466832520935 36.009497869018190385759 356.94883643796981687
37.009497869018190385759 4280.55681422263114655 37.009497869018190385759 355.36353348489848258
38.009497869018218807469 4287.42791109529207461 38.009497869018218807469 353.88756136233871530
39.009497869018190385759 4294.04600163998748030 39.009497869018190385759 352.53432970935693902
40.009497869018190385759 4300.42666602513236285 40.009497869018190385759 351.31629034522205757
41.009497869018218807469 4306.58375673718092003 41.009497869018218807469 350.06428823090652713
42.009497869018190385759 4312.53025986443026341 42.009497869018190385759 348.93642519071414654
43.009497869018190385759 4318.27815243530403677 43.009497869018190385759 347.82673245821018781
44.009497869018218807469 4323.83811561836500914 44.009497869018218807469 346.81811669947279597
46.009497869018190385759 4334.43386706240471540 46.009497869018190385759 344.94659685093836288
48.009497869018218807469 4344.38917429987941432 48.009497869018218807469 343.22174596965953697
50.009497869018190385759 4353.76563811430787609 50.009497869018190385759 341.67508309632205510
52.009497869018190385759 4362.61655873686322593 52.009497869018190385759 340.25413600586824714
54.009497869018218807469 4370.98858386534175224 54.009497869018218807469 338.92520560058449064
56.009497869018190385759 4378.92248167579691653 56.009497869018190385759 337.69667675296068410
58.009497869018218807469 4386.45437272971594211 58.009497869018218807469 336.59741456215067501
60.009497869018190385759 4393.61619243197947071 60.009497869018190385759 335.52824182273747056
62.009497869018190385759 4400.43640195590523945 62.009497869018190385759 334.52941285058659560
64.009497869018218807469 4406.94050620631060156 64.009497869018218807469 333.59267500203662848
66.009497869018190385759 4413.15128784777243709 66.009497869018190385759 332.72089574715363369
68.009497869018190385759 4419.08942288206526428 68.009497869018190385759 331.90566840887686340
70.009497869018190385759 4424.77345935158518841 70.009497869018190385759 331.11806300125999769
72.009497869018190385759 4430.22029036861931672 72.009497869018190385759 330.37965862179760279
74.009497869018218807469 4435.44529624348706420 74.009497869018218807469 329.67476654675294867
76.009497869018190385759 4440.46241737978016317 76.009497869018190385759 329.00426284124552012
78.009497869018190385759 4445.28446751415685867 78.009497869018190385759 328.36847995405878464
80.009497869018218807469 4449.92316987007598073 80.009497869018218807469 327.75938940318212644
82.009497869018190385759 4454.38924729415703041 82.009497869018190385759 327.17623630607840823
84.009497869018218807469 4458.69262197852276586 84.009497869018218807469 326.61321094676850407
86.009497869018190385759 4462.84243524679277471 86.009497869018190385759 326.08056669573608133
88.009497869018190385759 4466.84709081830351352 88.009497869018190385759 325.56359716493119549
91.009497869018218807469 4472.59883617678679002 91.009497869018218807469 324.82932331081491384
94.009497869018218807469 4478.06542683692350693 94.009497869018218807469 324.13515567232769854
97.009497869018218807469 4483.26831017719359807 97.009497869018218807469 323.48327532334195666
99.504748934509137825444 4487.40891280076084513 99.504748934509137825444 322.87390269434592938
nan nan nan nan

