Time Pressure difference Time.1 Pressure.1 difference.1
(hr) (psi) (hr) (psi)
0.000200000000020850166 0.06404237161762752 0.000200000000020850166 0.05104509439268747
0.000399999999999067768 0.12806196678214907 0.000399999999999067768 0.13367694355640150
0.000600000000019917934 0.19206235622542756 0.000600000000019917934 0.19561276158619040
0.000799999999998135536 0.25604506444768477 0.000799999999998135536 0.25868547014376186
0.001007140329434719206 0.32229458949168627 0.001007140329434719206 0.32491769854291624
0.001267914553977789183 0.40567363405302864 0.001267914553977789183 0.40891607308357814
0.001596209851982166583 0.51060492835789040 0.001596209851982166583 0.51459567491519564
0.002009509145224797066 0.64264978380473581 0.002009509145224797066 0.64753458486978710
0.002529822128153114136 0.80879942098163304 0.002529822128153114136 0.81473627278771743
0.003184857364431081805 1.01783987639616247 0.003184857364431081805 1.02498859047894064
0.004009497869034817086 1.28080854752637352 0.004009497869034817086 1.28931032876849172
0.005047658755856332391 1.61156458015134763 0.005047658755856332391 1.62150512592285634
0.006354625877790454069 2.02750023495430343 0.006354625877790454069 2.03884609835831121
0.008000000000009777068 2.55042614456334471 0.008000000000009777068 2.56291826002666445
0.010071403294361402914 3.20766997565402834 0.010071403294361402914 3.22064921004438487
0.012679145539692626699 4.03343530808347861 0.012679145539692626699 4.04556099270954483
0.015962098519750611558 5.07047518649881290 0.015962098519750611558 5.07927626665907184
0.020095091452091651263 6.37214208720380970 0.020095091452091651263 6.37330800682634191
0.025298221281360611101 8.00488170450820391 0.025298221281360611101 7.99115081932220495
0.031848573644296607199 10.05123984254963965 0.031848573644296607199 10.01066885068170897
0.040094978690191851456 12.61344631071056632 0.040094978690191851456 12.52673319371437088
0.050476587558435426217 15.81762161349383078 0.050476587558435426217 15.65399052248586287
0.063546258777947173257 19.81861317303514980 0.063546258777947173257 19.52953044533702709
0.080000000000012505552 24.80539584065807901 0.080000000000012505552 24.31504339213184096
0.100714032943542974863 31.00684976945838045 0.100714032943542974863 30.19780134549567663
0.126791455396883634421 38.69753498210993570 0.126791455396883634421 37.38942606651778533
0.159620985197506115583 48.20278829264504594 0.159620985197506115583 46.12091275397207113
0.200950914520774404082 59.90204307383756799 0.200950914520774404082 56.63174469791834298
0.252982212813464002465 74.22868587685221087 0.252982212813464002465 69.15019459302446592
0.318485736442809752589 91.66399990234097572 0.318485736442809752589 83.86116359742598547
0.400949786901833249431 112.72182591504603977 0.400949786901833249431 100.85742045115982535
0.504765875584169521062 137.91960811997304859 0.504765875584169521062 120.07045980800887719
0.635462587779443310865 167.73079169556038437 0.635462587779443310865 141.17962516139607487
0.800000000000011368684 202.51379012408813196 0.800000000000011368684 163.50483872647441785
1.007140329435344483500 242.41527162802569251 1.007140329435344483500 185.90224067697027976
1.267914553968907398485 287.25236745238470348 1.267914553968907398485 206.70494712672856963
1.596209851975117999245 336.39157570673381770 1.596209851975117999245 223.77782212783256455
2.009509145207687197399 388.66104745668047826 2.009509145207687197399 234.76616896467069751
2.529822128134725289783 442.35030919105059866 2.529822128134725289783 237.57996688264711338
3.184857364427983839050 495.35112277367107936 3.184857364427983839050 231.04279942192567887
4.009497869018204596614 545.45698024121827530 4.009497869018204596614 215.51425149310657048
5.009497869018190385759 589.36398423804450886 5.009497869018190385759 193.87185492569102507
6.009497869018190385759 621.11282365255215154 6.009497869018190385759 173.23410231116116620
7.009497869018204596614 644.84514815114039266 7.009497869018204596614 155.14084757975612661
8.009497869018190385759 663.12767486464952071 8.009497869018190385759 139.94188411949778583
9.009497869018204596614 677.59850550351029597 9.009497869018204596614 127.56737429945187046
10.009497869018190385759 689.33170247383532114 10.009497869018190385759 117.60401571208979021
11.009497869018190385759 699.05059245119389288 11.009497869018190385759 109.18529819505211265
12.009497869018204596614 707.25344578657768579 12.009497869018204596614 102.28150489070684159
13.009497869018190385759 714.29141759380809162 13.009497869018190385759 96.60244667606262681
14.009497869018204596614 720.41709444900334347 14.009497869018204596614 91.90942970568038106
15.009497869018190385759 725.81565308637811995 15.009497869018190385759 88.00963743290817831
16.009497869018190385759 730.62527803087857592 16.009497869018190385759 84.74909712192329891
17.009497869018204596614 734.95081019032375025 17.009497869018204596614 82.07811583751606577
18.009497869018190385759 738.87304463829195811 18.009497869018190385759 79.74234283531649226
19.009497869018204596614 742.45532034588836723 19.009497869018204596614 77.84619401471717026
20.009497869018190385759 745.74756877819083911 20.009497869018190385759 76.12323210325580192
21.009497869018190385759 748.78992308224803764 21.009497869018190385759 74.63745019835158701
22.009497869018204596614 751.61521861047583570 22.009497869018204596614 73.34750964579389176
23.009497869018190385759 754.25004227562919823 23.009497869018190385759 72.25549809300247261
24.009497869018204596614 756.71669859679650472 24.009497869018204596614 71.26130092895043333
25.009497869018204596614 759.03378446523720413 25.009497869018204596614 70.38299385625012405
26.009497869018190385759 761.21696296929746950 26.009497869018190385759 69.64049693076846381
27.009497869018204596614 763.27967682427720320 27.009497869018204596614 68.93898330796316998
28.009497869018190385759 765.23333922939480090 28.009497869018190385759 68.31033341457836627
29.009497869018190385759 767.08791202916700058 29.009497869018190385759 67.76047891510744137
30.009497869018190385759 768.85201014036624656 30.009497869018190385759 67.24554129691776438
31.009497869018218807469 770.53315370225413972 31.009497869018218807469 66.77732055121502697
32.009497869018190385759 772.13806110159111995 32.009497869018190385759 66.35030525365694132
33.009497869018190385759 773.67250861167542553 33.009497869018190385759 65.97499496888009674
34.009497869018218807469 775.14183120348900502 34.009497869018218807469 65.61262341425835132
35.009497869018190385759 776.55062242160931874 35.009497869018190385759 65.28708799521326966
36.009497869018190385759 777.90307333205919349 36.009497869018190385759 64.97650214119072132
37.009497869018190385759 779.20301346369410567 37.009497869018190385759 64.68792453507607831
38.009497869018218807469 780.45378050670797165 38.009497869018218807469 64.41924875862903832
39.009497869018190385759 781.65849202430035803 39.009497869018190385759 64.17291580997749634
40.009497869018190385759 782.81998412277823718 40.009497869018190385759 63.95119233234538569
41.009497869018218807469 783.94077841315117894 41.009497869018218807469 63.72328651011773104
42.009497869018190385759 785.02323879328889689 42.009497869018190385759 63.51797810800233890
43.009497869018190385759 786.06954547876694051 43.009497869018190385759 63.31597730326757301
44.009497869018218807469 787.08164279577795241 44.009497869018218807469 63.13237585309553168
46.009497869018190385759 789.01042024540231523 46.009497869018190385759 62.79169729910697839
48.009497869018218807469 790.82261565269675430 48.009497869018218807469 62.47771735145102667
50.009497869018190385759 792.52944239905843915 50.009497869018190385759 62.19617351871583111
52.009497869018190385759 794.14060289063456821 52.009497869018190385759 61.93751411927151906
54.009497869018218807469 795.66458855231996949 54.009497869018218807469 61.69560480199763930
56.009497869018190385759 797.10882054145724851 56.009497869018190385759 61.47197189120087302
58.009497869018218807469 798.47987399571672995 58.009497869018218807469 61.27186979027328562
60.009497869018190385759 799.78356221575029394 60.009497869018190385759 61.07724496536828696
62.009497869018190385759 801.02506607707971398 62.009497869018190385759 60.89542503426753228
64.009497869018218807469 802.20902831651517317 64.009497869018218807469 60.72490774268752034
66.009497869018190385759 803.33959613304591585 66.009497869018190385759 60.56621506508470532
68.009497869018190385759 804.42053324330743180 68.009497869018190385759 60.41781670799886683
70.009497869018190385759 805.45521600489860248 70.009497869018190385759 60.27444645649413957
72.009497869018190385759 806.44671952336580034 72.009497869018190385759 60.14003242051634857
74.009497869018218807469 807.39784352422816482 74.009497869018218807469 60.01171873309687044
76.009497869018190385759 808.31112562232408436 76.009497869018190385759 59.88966486708251580
78.009497869018190385759 809.18889834182061804 78.009497869018190385759 59.77393133915491319
80.009497869018218807469 810.03329569738980354 80.009497869018218807469 59.66305669987004023
82.009497869018190385759 810.84626960200955637 82.009497869018190385759 59.55690353562183503
84.009497869018218807469 811.62962622304075921 84.009497869018218807469 59.45441428581837329
86.009497869018190385759 812.38502958393155495 86.009497869018190385759 59.35745540324273861
88.009497869018190385759 813.11400943973842459 88.009497869018190385759 59.26334983853357841
91.009497869018218807469 814.16101746007689144 91.009497869018218807469 59.12968769487646625
94.009497869018218807469 815.15611788757223621 94.009497869018218807469 59.00332620985634691
97.009497869018218807469 816.10321485495012439 97.009497869018218807469 58.88466241110479871
99.504748934509137825444 816.85694157366094714 99.504748934509137825444 58.77373642426628209
nan nan nan nan

