Time Pressure difference Time.1 Pressure.1 difference.1
(hr) (psi) (hr) (psi)
0.000200000000020850166 0.38924454437726858 0.000200000000020850166 0.31024810617893162
0.000399999999999067768 0.77835065524734781 0.000399999999999067768 0.81247804655059597
0.000600000000019917934 1.16734003524026120 0.000600000000019917934 1.18891912236801423
0.000799999999998135536 1.55622195014956488 0.000799999999998135536 1.57227013022442286
0.001007140329434719206 1.95888140106635289 0.001007140329434719206 1.97482445348162061
0.001267914553977789183 2.46565273684178443 0.001267914553977789183 2.48536002861187733
0.001596209851982166583 3.10341696716224291 0.001596209851982166583 3.12767241377028027
0.002009509145224797066 3.90597530935865445 0.002009509145224797066 3.93566474959818624
0.002529822128153114136 4.91581985739486083 0.002529822128153114136 4.95190358006041276
0.003184857364431081805 6.18635145653771357 0.003184857364431081805 6.22980078369018386
0.004009497869034817086 7.78465454860185524 0.004009497869034817086 7.83632771251498994
0.005047658755856332391 9.79496394169910012 0.005047658755856332391 9.85538180431034760
0.006354625877790454069 12.32298844102096247 0.006354625877790454069 12.39194771469726852
0.008000000000009777068 15.50129137215123976 0.008000000000009777068 15.57721747652569810
0.010071403294361402914 19.49596816371539276 0.010071403294361402914 19.57485493897106821
0.012679145539692626699 24.51490550887101705 0.012679145539692626699 24.58860447516969927
0.015962098519750611558 30.81795308157719759 0.015962098519750611558 30.87144536099279790
0.020095091452091651263 38.72938307547250503 0.020095091452091651263 38.73646944408737625
0.025298221281360611101 48.65304724298492545 0.025298221281360611101 48.56959199276353445
0.031848573644296607199 61.09065254952248125 0.031848573644296607199 60.84406522232519166
0.040094978690191851456 76.66354381055252531 0.040094978690191851456 76.13650824231591230
0.050476587558435426217 96.13827162487159228 0.050476587558435426217 95.14373460419977846
0.063546258777947173257 120.45598655818767497 0.063546258777947173257 118.69896426516528720
0.080000000000012505552 150.76526303153224262 0.080000000000012505552 147.78493905867145486
0.100714032943542974863 188.45721678060419890 0.100714032943542974863 183.53988350249321115
0.126791455396883634421 235.20060222892794854 0.126791455396883634421 227.25001817052367414
0.159620985197506115583 292.97279118127119091 0.159620985197506115583 280.31931388128481331
0.200950914520774404082 364.07995011111665917 0.200950914520774404082 344.20333141072444505
0.252982212813464002465 451.15616870606282873 0.252982212813464002465 420.28949440955125283
0.318485736442809752589 557.12664875708549062 0.318485736442809752589 509.70161770903064280
0.400949786901833249431 685.11447439274729732 0.400949786901833249431 613.00354248237385946
0.504765875584169521062 838.26463117074524689 0.504765875584169521062 729.77889857335264878
0.635462587779443310865 1019.45468199379570251 0.635462587779443310865 858.07876072121246125
0.800000000000011368684 1230.86303607887316502 0.800000000000011368684 993.76966914272759368
1.007140329435344483500 1473.38113145345459998 1.007140329435344483500 1129.89933294574143474
1.267914553968907398485 1745.89750607423411566 1.267914553968907398485 1256.33656175725923276
1.596209851975117999245 2044.56178481495362576 1.596209851975117999245 1360.10416566007324946
2.009509145207687197399 2362.25156116527841732 2.009509145207687197399 1426.89048149955692679
2.529822128134725289783 2688.57071040794380679 2.529822128134725289783 1443.99252598803695946
3.184857364427983839050 3010.70552542958512277 3.184857364427983839050 1404.26013155144437405
4.009497869018204596614 3315.24502276480734508 4.009497869018204596614 1309.87882725680356089
5.009497869018190385759 3582.10837173253003130 5.009497869018190385759 1178.33802734056348527
6.009497869018190385759 3775.07534375836939944 6.009497869018190385759 1052.90337508601851368
7.009497869018204596614 3919.31856278874920463 7.009497869018204596614 942.93398269254362276
8.009497869018190385759 4030.43833554098637251 8.009497869018190385759 850.55586711590865434
9.009497869018204596614 4118.39091656678920117 9.009497869018204596614 775.34456067718804206
10.009497869018190385759 4189.70437347733604838 10.009497869018190385759 714.78804354880537630
11.009497869018190385759 4248.77502944362004200 11.009497869018190385759 663.61973448421281319
12.009497869018204596614 4298.63133283270599350 12.009497869018204596614 621.65901673832217966
13.009497869018190385759 4341.40757706366457569 13.009497869018190385759 587.14214343373123484
14.009497869018204596614 4378.63896366407243477 14.009497869018204596614 558.61835197738207626
15.009497869018190385759 4411.45098239512935834 15.009497869018190385759 534.91571842338998977
16.009497869018190385759 4440.68350803183238895 16.009497869018190385759 515.09840848130011182
17.009497869018204596614 4466.97375544248734514 17.009497869018204596614 498.86439236308461886
18.009497869018190385759 4490.81279078858005960 18.009497869018190385759 484.66774606400150560
19.009497869018204596614 4512.58558340098443296 19.009497869018204596614 473.14310128425495350
20.009497869018190385759 4532.59561283367929718 20.009497869018190385759 462.67107304316522232
21.009497869018190385759 4551.08680522716986161 21.009497869018190385759 453.64060640037070016
22.009497869018204596614 4568.25873129484079982 22.009497869018204596614 445.80044823677326349
23.009497869018190385759 4584.27298422070725792 23.009497869018190385759 439.16328711071633961
24.009497869018204596614 4599.26512913377609948 24.009497869018204596614 433.12063421751696524
25.009497869018204596614 4613.34819649001292419 25.009497869018204596614 427.78235226915666090
26.009497869018190385759 4626.61738531988612522 26.009497869018190385759 423.26951381298238175
27.009497869018204596614 4639.15439939950374537 27.009497869018204596614 419.00576867697094485
28.009497869018190385759 4651.02860726437302219 28.009497869018190385759 415.18488361068403947
29.009497869018190385759 4662.30055622922282055 29.009497869018190385759 411.84291080870491442
30.009497869018190385759 4673.02260708690118918 30.009497869018190385759 408.71316009035729166
31.009497869018218807469 4683.24046665785590449 31.009497869018218807469 405.86735088270955885
32.009497869018190385759 4692.99496877330693678 32.009497869018190385759 403.27198517807073586
33.009497869018190385759 4702.32122117226117552 33.009497869018190385759 400.99087851215432465
34.009497869018218807469 4711.25164939263413544 34.009497869018218807469 398.78841243990791554
35.009497869018190385759 4719.81417264043102477 35.009497869018190385759 396.80983352934822506
36.009497869018190385759 4728.03426388835941907 36.009497869018190385759 394.92211691009435981
37.009497869018190385759 4735.93519871440003044 37.009497869018190385759 393.16816470669618866
38.009497869018218807469 4743.53726333947270177 38.009497869018218807469 391.53517427322577760
39.009497869018190385759 4750.85940606977328571 39.009497869018190385759 390.03798180609697965
40.009497869018190385759 4757.91886453844472271 40.009497869018190385759 388.69036378620313599
41.009497869018218807469 4764.73096490071111475 41.009497869018218807469 387.30516995759876409
42.009497869018190385759 4771.31007474362559151 42.009497869018190385759 386.05732148759864231
43.009497869018190385759 4777.66944524757036561 43.009497869018190385759 384.82957633674317321
44.009497869018218807469 4783.82089387563701166 44.009497869018218807469 383.71366102920399044
46.009497869018190385759 4795.54385292010738340 46.009497869018190385759 381.64304332444243073
48.009497869018218807469 4806.55823539561151847 48.009497869018218807469 379.73469766855947682
50.009497869018190385759 4816.93219536051128671 50.009497869018190385759 378.02349619167546280
52.009497869018190385759 4826.72470328333838552 52.009497869018190385759 376.45138451713086170
54.009497869018218807469 4835.98736938293131971 54.009497869018218807469 374.98107853681682400
56.009497869018190385759 4844.76529887534979935 56.009497869018190385759 373.62185513093521649
58.009497869018218807469 4853.09845493500506564 58.009497869018218807469 372.40565015386880532
60.009497869018190385759 4861.02217035027479142 60.009497869018190385759 371.22273563366695726
62.009497869018190385759 4868.56793407887380454 62.009497869018190385759 370.11764826022346142
64.009497869018218807469 4875.76396431336524984 64.009497869018218807469 369.08125744906180898
66.009497869018190385759 4882.63546740604488150 66.009497869018190385759 368.11673572025506473
68.009497869018190385759 4889.20531893334828055 68.009497869018190385759 367.21478206939571010
70.009497869018190385759 4895.49404013366984145 70.009497869018190385759 366.34338885245790607
72.009497869018190385759 4901.52032125889854797 72.009497869018190385759 365.52643081560586324
74.009497869018218807469 4907.30117882258127793 74.009497869018218807469 364.74655022193940113
76.009497869018190385759 4912.85203624996938743 76.009497869018190385759 364.00471633499500967
78.009497869018190385759 4918.18707044119491911 78.009497869018190385759 363.30129697044804971
80.009497869018218807469 4923.31925177114862890 80.009497869018218807469 362.62740955245686791
82.009497869018190385759 4928.26044381481096934 82.009497869018190385759 361.98221889183139410
84.009497869018218807469 4933.02162431666329212 84.009497869018218807469 361.35929721770128253
86.009497869018190385759 4937.61290708155775064 86.009497869018190385759 360.76998868464420411
88.009497869018190385759 4942.04358984152713674 88.009497869018190385759 360.19802239524301513
91.009497869018218807469 4948.40722300410379830 91.009497869018218807469 359.38563430132711574
94.009497869018218807469 4954.45536586212710972 94.009497869018218807469 358.61761904172425375
97.009497869018218807469 4960.21174743008668884 97.009497869018218807469 357.89638971944219747
99.504748934509137825444 4964.79283969445896219 99.504748934509137825444 357.22219021502104397
nan nan nan nan

