Time Pressure difference Time.1 Pressure.1 difference.1
(hr) (psi) (hr) (psi)
0.000200000000020850166 0.78763799898562681 0.000200000000020850166 0.62778836869967580
0.000399999999999067768 1.57499587717785960 0.000399999999999067768 1.64405279932353499
0.000600000000019917934 2.36211754994129741 0.000600000000019917934 2.40578292496262724
0.000799999999998135536 3.14902176664879851 0.000799999999998135536 3.18149532761224041
0.001007140329434719206 3.96380488634580352 0.001007140329434719206 3.99606572104080104
0.001267914553977789183 4.98925884997685820 0.001267914553977789183 5.02913663909283759
0.001596209851982166583 6.27977749551846998 0.001596209851982166583 6.32885849538558798
0.002009509145224797066 7.90375773068941356 0.002009509145224797066 7.96383443989205730
0.002529822128153114136 9.94718248921566861 0.002529822128153114136 10.02019805623335635
0.003184857364431081805 12.51810860970345196 0.003184857364431081805 12.60602850887736004
0.004009497869034817086 15.75228174685033622 0.004009497869034817086 15.85684261485404711
0.005047658755856332391 19.82015139484839139 0.005047658755856332391 19.94240719803824646
0.006354625877790454069 24.93561977274968200 0.006354625877790454069 25.07515915773144144
0.008000000000009777068 31.36692933638295600 0.008000000000009777068 31.52056613305521182
0.010071403294361402914 39.45017489538135891 0.010071403294361402914 39.60980262223419146
0.012679145539692626699 49.60601606175395517 0.012679145539692626699 49.75514623501219091
0.015962098519750611558 62.36025976122566306 0.015962098519750611558 62.46850161722260708
0.020095091452091651263 78.36907216340269144 0.020095091452091651263 78.38341146057851461
0.025298221281360611101 98.44964901518531519 0.025298221281360611101 98.28077695971595062
0.031848573644296607199 123.61719650512348778 0.031848573644296607199 123.11822599474776041
0.040094978690191851456 155.12900852263516072 0.040094978690191851456 154.06254979801960303
0.050476587558435426217 194.53620348024227837 0.050476587558435426217 192.52375356875469947
0.063546258777947173257 243.74320356966609324 0.063546258777947173257 240.18786145109302765
0.080000000000012505552 305.07415404030132322 0.080000000000012505552 299.04345574479032166
0.100714032943542974863 381.34398352827389544 0.100714032943542974863 371.39373862577144791
0.126791455396883634421 475.92942374101443193 0.126791455396883634421 459.84138292197849296
0.159620985197506115583 592.83169497577739548 0.159620985197506115583 567.22732958456560937
0.200950914520774404082 736.71733494706734291 0.200950914520774404082 696.49691206400871124
0.252982212813464002465 912.91643539453298217 0.252982212813464002465 850.45758804667752884
0.318485736442809752589 1127.34815464307666844 0.318485736442809752589 1031.38340164626492879
0.400949786901833249431 1386.33206677335851964 0.400949786901833249431 1240.41528788634218472
0.504765875584169521062 1696.23206350148666388 0.504765875584169521062 1476.71071997642093265
0.635462587779443310865 2062.87090565838525436 0.635462587779443310865 1736.32603932262441049
0.800000000000011368684 2490.65661360404510560 0.800000000000011368684 2010.89717238923776677
1.007140329435344483500 2981.39301599662712761 1.007140329435344483500 2286.35612884533566103
1.267914553968907398485 3532.83106464166621663 1.267914553968907398485 2542.20240167547945020
1.596209851975117999245 4137.17950901658332441 1.596209851975117999245 2752.17659162412246587
2.009509145207687197399 4780.02612911008236551 2.009509145207687197399 2887.31898713692407910
2.529822128134725289783 5440.33432212889420043 2.529822128134725289783 2921.92504724502350655
3.184857364427983839050 6092.17549696969581419 3.184857364427983839050 2841.52637730602054944
4.009497869018204596614 6708.41247127835958963 4.009497869018204596614 2650.54540472690860042
5.009497869018190385759 7248.41159835620965168 5.009497869018190385759 2384.37203395622555036
6.009497869018190385759 7638.88109089567478804 6.009497869018190385759 2130.55447907363122795
7.009497869018204596614 7930.75786102766141994 7.009497869018204596614 1908.03094361076682617
8.009497869018190385759 8155.60919606263632886 8.009497869018190385759 1721.10343196317398906
9.009497869018204596614 8333.58161963408019801 9.009497869018204596614 1568.91303196858348201
10.009497869018190385759 8477.88470445093480521 10.009497869018190385759 1446.37666077076664806
11.009497869018190385759 8597.41442923741124105 11.009497869018190385759 1342.83736871057590179
12.009497869018204596614 8698.29887220635100675 12.009497869018204596614 1257.92967703245949451
13.009497869018190385759 8784.85678521216141235 13.009497869018190385759 1188.08463639261435674
14.009497869018204596614 8860.19465510657391860 14.009497869018204596614 1130.36662248414700116
15.009497869018190385759 8926.58991523117038014 15.009497869018190385759 1082.40424219433839426
16.009497869018190385759 8985.74205578236251313 16.009497869018190385759 1042.30383083716060355
17.009497869018204596614 9038.94048376930732047 17.009497869018204596614 1009.45422984581432502
18.009497869018190385759 9087.17887366834293061 18.009497869018190385759 980.72725539019097596
19.009497869018204596614 9131.23621256566730153 19.009497869018204596614 957.40708742775530027
20.009497869018190385759 9171.72659263567220478 20.009497869018190385759 936.21689352965267972
21.009497869018190385759 9209.14359946608965402 21.009497869018190385759 917.94370568622025530
22.009497869018204596614 9243.89106524832095602 22.009497869018204596614 902.07911213723139099
23.009497869018190385759 9276.29597448079039168 23.009497869018190385759 888.64878823471872238
24.009497869018204596614 9306.63264378138046595 24.009497869018204596614 876.42145428202684343
25.009497869018204596614 9335.12979076077499485 25.009497869018204596614 865.61941794634890357
26.009497869018190385759 9361.98005106395612529 26.009497869018190385759 856.48767004464605179
27.009497869018204596614 9387.34875263104731857 27.009497869018204596614 847.85996354079384218
28.009497869018190385759 9411.37626299008843489 28.009497869018190385759 840.12838628059364510
29.009497869018190385759 9434.18509989118319936 29.009497869018190385759 833.36589003385392971
30.009497869018190385759 9455.88121562242668006 30.009497869018190385759 827.03282608027427614
31.009497869018218807469 9476.55709813031899102 31.009497869018218807469 821.27431898702116086
32.009497869018190385759 9496.29537484684078663 32.009497869018190385759 816.02258539237823243
33.009497869018190385759 9515.16708643190577277 33.009497869018190385759 811.40675630557734621
34.009497869018218807469 9533.23784610005350260 34.009497869018218807469 806.95005679613836946
35.009497869018190385759 9550.56414848394706496 35.009497869018190385759 802.94639391515545412
36.009497869018190385759 9567.19753825272891845 36.009497869018190385759 799.12659126893015582
37.009497869018190385759 9583.18511363789912139 37.009497869018190385759 795.57746148983187595
38.009497869018218807469 9598.56792389418842504 38.009497869018218807469 792.27309836911285856
39.009497869018190385759 9613.38431100016168784 39.009497869018190385759 789.24352301361932405
40.009497869018190385759 9627.66915538014291087 40.009497869018190385759 786.51661219131278813
41.009497869018218807469 9641.45346957472975191 41.009497869018218807469 783.71366655949998403
42.009497869018190385759 9654.76632645772042451 42.009497869018190385759 781.18863984776908183
43.009497869018190385759 9667.63453984925035911 43.009497869018190385759 778.70429228823888934
44.009497869018218807469 9680.08202243638515938 44.009497869018218807469 776.44623289456444581
46.009497869018190385759 9703.80348016098650987 46.009497869018190385759 772.25632912018591014
48.009497869018218807469 9726.09113017017989478 48.009497869018218807469 768.39478353018341750
50.009497869018190385759 9747.08288249231554801 50.009497869018190385759 764.93216002888163985
52.009497869018190385759 9766.89806412248071865 52.009497869018190385759 761.75098533701486758
54.009497869018218807469 9785.64110855905164499 54.009497869018218807469 758.77581490249053786
56.009497869018190385759 9803.40328639947983902 56.009497869018190385759 756.02542053204194872
58.009497869018218807469 9820.26546329797020007 58.009497869018218807469 753.56442456349100212
60.009497869018190385759 9836.29913530279918632 60.009497869018190385759 751.17079197667226254
62.009497869018190385759 9851.56802045447329874 62.009497869018190385759 748.93464295391368069
64.009497869018218807469 9866.12921838623333315 64.009497869018218807469 746.83750171850761035
66.009497869018190385759 9880.03373425966856303 66.009497869018190385759 744.88578787837946038
68.009497869018190385759 9893.32785690145465196 68.009497869018190385759 743.06068081136277215
70.009497869018190385759 9906.05311112518211303 70.009497869018190385759 741.29741291298637407
72.009497869018190385759 9918.24731673542009958 72.009497869018190385759 739.64429483414266997
74.009497869018218807469 9929.94490672005122178 74.009497869018218807469 738.06620312003553863
76.009497869018190385759 9941.17709044598450419 76.009497869018190385759 736.56509907957331507
78.009497869018190385759 9951.97255493122247572 78.009497869018190385759 735.14172698934680739
80.009497869018218807469 9962.35754578478190524 80.009497869018218807469 733.77811291918089864
82.009497869018190385759 9972.35606900133825548 82.009497869018190385759 732.47256686018022265
84.009497869018218807469 9981.99033809375941928 84.009497869018218807469 731.21208219051948163
86.009497869018190385759 9991.28081838939215231 86.009497869018190385759 730.01961385546587735
88.009497869018190385759 10000.24632388873214950 88.009497869018190385759 728.86223762456222630
91.009497869018218807469 10013.12316278821890592 91.009497869018218807469 727.21836684477943891
94.009497869018218807469 10025.36160570819447457 94.009497869018218807469 725.66428468485651138
97.009497869018218807469 10037.00966841087938519 97.009497869018218807469 724.20487406904214822
99.504748934509137825444 10046.27952818515404942 99.504748934509137825444 722.84062849065151113
nan nan nan nan

