Time Pressure difference Time.1 Pressure.1 difference.1
(hr) (psi) (hr) (psi)
0.000200000000020850166 0.64291887351202692 0.000200000000020850166 0.51243971383827802
0.000399999999999067768 1.28560909509871757 0.000399999999999067768 1.34197762817010835
0.000600000000019917934 1.92810651119812348 0.000600000000019917934 1.96374889228733984
0.000799999999998135536 2.57042642620857587 0.000799999999998135536 2.59693335611854481
0.001007140329434719206 3.23550282697498037 0.001007140329434719206 3.26183611654122441
0.001267914553977789183 4.07254180679209288 0.001267914553977789183 4.10509252589098583
0.001596209851982166583 5.12594298208635379 0.001596209851982166583 5.16600593129150987
0.002009509145224797066 6.45153614131247721 0.002009509145224797066 6.50057446888760282
0.002529822128153114136 8.11950587556886205 0.002529822128153114136 8.17910569954422861
0.003184857364431081805 10.21805486304199206 0.003184857364431081805 10.28982052519767443
0.004009497869034817086 12.85798710698554359 0.004009497869034817086 12.94333615763693679
0.005047658755856332391 16.17843403190898499 0.005047658755856332391 16.27822678361516751
0.006354625877790454069 20.35399586519060833 0.006354625877790454069 20.46789654585681362
0.008000000000009777068 25.60362869801903329 0.008000000000009777068 25.72903655844950066
0.010071403294361402914 32.20167391143589697 0.010071403294361402914 32.33197193979623307
0.012679145539692626699 40.49149991101986501 0.012679145539692626699 40.61322918655166347
0.015962098519750611558 50.90230284628029267 0.015962098519750611558 50.99065654710990714
0.020095091452091651263 63.96968614816291421 0.020095091452091651263 63.98139076982808149
0.025298221281360611101 80.36069555304989365 0.025298221281360611101 80.22285173163720629
0.031848573644296607199 100.90400517260871993 0.031848573644296607199 100.49671456593455332
0.040094978690191851456 126.62589608025022869 0.040094978690191851456 125.75538647715856655
0.050476587558435426217 158.79248710689262225 0.050476587558435426217 157.14980095950090799
0.063546258777947173257 198.95828549033987542 0.063546258777947173257 196.05619524994182257
0.080000000000012505552 249.02040240037266017 0.080000000000012505552 244.09777327425857152
0.100714032943542974863 311.27655677651074484 0.100714032943542974863 303.15455116971628513
0.126791455396883634421 388.48304598923351705 0.126791455396883634421 375.35099155088636280
0.159620985197506115583 483.90591363915098100 0.159620985197506115583 463.00604621844689746
0.200950914520774404082 601.35427657242144051 0.200950914520774404082 568.52387859079055943
0.252982212813464002465 745.17888549099689044 0.252982212813464002465 694.19610935594687362
0.318485736442809752589 920.21132369492954695 0.318485736442809752589 841.87895403649713444
0.400949786901833249431 1131.61001860169608335 0.400949786901833249431 1012.50371439930574979
0.504765875584169521062 1384.56957242518387829 0.504765875584169521062 1205.38266794273863525
0.635462587779443310865 1683.84288286582045657 0.635462587779443310865 1417.29675649037881158
0.800000000000011368684 2033.02804890805373361 0.800000000000011368684 1641.41870565668500603
1.007140329435344483500 2433.59746712290689175 1.007140329435344483500 1866.26535121166261888
1.267914553968907398485 2883.71532520381015274 1.267914553968907398485 2075.10291076572957536
1.596209851975117999245 3377.02192235461370728 1.596209851975117999245 2246.49683772486469024
2.009509145207687197399 3901.75311277940227228 2.009509145207687197399 2356.80842350247348804
2.529822128134725289783 4440.73751954132603714 2.529822128134725289783 2385.05603117254850076
3.184857364427983839050 4972.81062213049062848 3.184857364427983839050 2319.42966172920205281
4.009497869018204596614 5475.82137307093125855 4.009497869018204596614 2163.53917408014831381
5.009497869018190385759 5916.60207553257623658 5.009497869018190385759 1946.27199815011886130
6.009497869018190385759 6235.32743744705021527 6.009497869018190385759 1739.09040372113736339
7.009497869018204596614 6473.57531845235735091 7.009497869018204596614 1557.45292440456478289
8.009497869018190385759 6657.11289182303971756 8.009497869018190385759 1404.87112239443877115
9.009497869018204596614 6802.38499680796667235 9.009497869018204596614 1280.64390043475714265
10.009497869018190385759 6920.17410405551527219 10.009497869018190385759 1180.62213175903116280
11.009497869018190385759 7017.74166188016806700 11.009497869018190385759 1096.10695460747115249
12.009497869018204596614 7100.08978692239634256 12.009497869018204596614 1026.80004260410896677
13.009497869018190385759 7170.74371168848938396 13.009497869018190385759 969.78819844930399086
14.009497869018204596614 7232.23914297506053117 14.009497869018204596614 922.67518392845374819
15.009497869018190385759 7286.43506280221117777 15.009497869018190385759 883.52532124205231412
16.009497869018190385759 7334.71870023206520273 16.009497869018190385759 850.79288409411310568
17.009497869018204596614 7378.14254905350935587 17.009497869018204596614 823.97900704415474138
18.009497869018190385759 7417.51770786233373656 18.009497869018190385759 800.53027287921622701
19.009497869018204596614 7453.48003412171146920 19.009497869018204596614 781.49490874514765437
20.009497869018190385759 7486.53078786417518131 20.009497869018190385759 764.19816124437329563
21.009497869018190385759 7517.07286418932017114 21.009497869018190385759 749.28245458864648754
22.009497869018204596614 7545.43589592075204564 22.009497869018204596614 736.33279163894394515
23.009497869018190385759 7571.88678803975835763 23.009497869018190385759 725.37013020637550653
24.009497869018204596614 7596.64945474446358276 24.009497869018204596614 715.38942361141153015
25.009497869018204596614 7619.91058950166734576 25.009497869018204596614 706.57213312832914198
26.009497869018190385759 7641.82743344502523541 26.009497869018190385759 699.11823542187050862
27.009497869018204596614 7662.53493746969343192 27.009497869018204596614 692.07576749422776174
28.009497869018190385759 7682.14767823794954893 28.009497869018190385759 685.76477570739052680
29.009497869018190385759 7700.76566231878041435 29.009497869018190385759 680.24480781010458941
30.009497869018190385759 7718.47537452601409314 30.009497869018190385759 675.07536912360296810
31.009497869018218807469 7735.35230924470761238 31.009497869018218807469 670.37491929985992556
32.009497869018190385759 7751.46391209779176279 32.009497869018190385759 666.08812936463402821
33.009497869018190385759 7766.86817086785868014 33.009497869018190385759 662.32040403823782526
34.009497869018218807469 7781.61864312073976180 34.009497869018218807469 658.68257011976243120
35.009497869018190385759 7795.76144327148085722 35.009497869018190385759 655.41453273116701439
36.009497869018190385759 7809.33864526859360922 36.009497869018190385759 652.29657344338227176
37.009497869018190385759 7822.38869360305943701 37.009497869018190385759 649.39955409888068516
38.009497869018218807469 7834.94509521669169771 38.009497869018218807469 646.70232844701615704
39.009497869018190385759 7847.03914720498869428 39.009497869018190385759 644.22940157289110630
40.009497869018190385759 7858.69932112866899843 40.009497869018190385759 642.00352821951923943
41.009497869018218807469 7869.95093134241324151 41.009497869018218807469 639.71559054962358459
42.009497869018190385759 7880.81770892483564239 42.009497869018190385759 637.65450749981573608
43.009497869018190385759 7891.32154097515285684 43.009497869018190385759 635.62662929124473976
44.009497869018218807469 7901.48194650826371799 44.009497869018218807469 633.78346148627065304
46.009497869018190385759 7920.84486817787092150 46.009497869018190385759 630.36340275597012806
48.009497869018218807469 7939.03742726668406249 48.009497869018218807469 627.21137029443684696
50.009497869018190385759 7956.17219447366460372 50.009497869018190385759 624.38496272684858468
52.009497869018190385759 7972.34657187610991969 52.009497869018190385759 621.78829109346611403
54.009497869018218807469 7987.64580455770465051 54.009497869018218807469 619.35977288239200789
56.009497869018190385759 8002.14439322787529818 56.009497869018190385759 617.11473080387372647
58.009497869018218807469 8015.90834543751861929 58.009497869018218807469 615.10591360884734513
60.009497869018190385759 8028.99602068539024913 60.009497869018190385759 613.15208257441145179
62.009497869018190385759 8041.45942957899569592 62.009497869018190385759 611.32679936998442827
64.009497869018218807469 8053.34518037228826870 64.009497869018218807469 609.61498292334363214
66.009497869018190385759 8064.69490663434407907 66.009497869018190385759 608.02187331572042694
68.009497869018190385759 8075.54639216982559446 68.009497869018190385759 606.53210799068995129
70.009497869018190385759 8085.93353210112491070 70.009497869018190385759 605.09281962168790869
72.009497869018190385759 8095.88719729301010375 72.009497869018190385759 603.74344235141745685
74.009497869018218807469 8105.43549408088802011 74.009497869018218807469 602.45530624264779362
76.009497869018190385759 8114.60389748125271581 76.009497869018190385759 601.23001223707512963
78.009497869018190385759 8123.41582361334167217 78.009497869018190385759 600.06816785930845981
80.009497869018218807469 8131.89269576730293920 80.009497869018218807469 598.95510167531870138
82.009497869018190385759 8140.05410912147272029 82.009497869018190385759 597.88943419526844991
84.009497869018218807469 8147.91819571961696056 84.009497869018218807469 596.86054860957926849
86.009497869018190385759 8155.50166062829975999 86.009497869018190385759 595.88718216502127234
88.009497869018190385759 8162.81986099893219944 88.009497869018190385759 594.94246006735659194
91.009497869018218807469 8173.33073372258968448 91.009497869018218807469 593.60063101479875058
94.009497869018218807469 8183.32050814407011785 94.009497869018218807469 592.33209298985661917
97.009497869018218807469 8192.82837769969592046 97.009497869018218807469 591.14083173745461863
99.504748934509137825444 8200.39501086285599740 99.504748934509137825444 590.02725007737456053
nan nan nan nan

