Time Pressure difference Time.1 Pressure.1 difference.1
(hr) (psi) (hr) (psi)
0.000200000000020850166 0.77266705497111643 0.000200000000020850166 0.61585574923125519
0.000399999999999067768 1.54505931351449988 0.000399999999999067768 1.61280364368697349
0.000600000000019917934 2.31721985627821070 0.000600000000019917934 2.36005526641001140
0.000799999999998135536 3.08916707625843046 0.000799999999998135536 3.12102339952668562
0.001007140329434719206 3.88846329399709800 0.001007140329434719206 3.92011093436843083
0.001267914553977789183 4.89442605240602013 0.001267914553977789183 4.93354586876161161
0.001596209851982166583 6.16041530447376751 0.001596209851982166583 6.20856340254826922
0.002009509145224797066 7.75352791109869610 0.002009509145224797066 7.81246271875366372
0.002529822128153114136 9.75811249470048026 0.002529822128153114136 9.82974022623103316
0.003184857364431081805 12.28017201522123081 0.003184857364431081805 12.36642078642773690
0.004009497869034817086 15.45287195651949474 0.004009497869034817086 15.55544539514193580
0.005047658755856332391 19.44342201247534874 0.005047658755856332391 19.56335405171861552
0.006354625877790454069 24.46165867886426426 0.006354625877790454069 24.59854578408923587
0.008000000000009777068 30.77072582206945128 0.008000000000009777068 30.92144238395806966
0.010071403294361402914 38.70032996600769337 0.010071403294361402914 38.85692358611991892
0.012679145539692626699 48.66313508064352789 0.012679145539692626699 48.80943067827489301
0.015962098519750611558 61.17495387347268831 0.015962098519750611558 61.28113833410750289
0.020095091452091651263 76.87948050665376343 0.020095091452091651263 76.89354725119054024
0.025298221281360611101 96.57837796737820213 0.025298221281360611101 96.41271572922505584
0.031848573644296607199 121.26755602244953991 0.031848573644296607199 120.77806964004295764
0.040094978690191851456 152.18041068376774660 0.040094978690191851456 151.13422255793054205
0.050476587558435426217 190.83857764851646266 0.050476587558435426217 188.86437916090085309
0.063546258777947173257 239.11028100973578603 0.063546258777947173257 235.62251667166358970
0.080000000000012505552 299.27549007755004595 0.080000000000012505552 293.35941962714906595
0.100714032943542974863 374.09562903671218237 0.100714032943542974863 364.33451233721405060
0.126791455396883634421 466.88324673220949990 0.126791455396883634421 451.10099760772754962
0.159620985197506115583 581.56351069957474920 0.159620985197506115583 556.44581751220846400
0.200950914520774404082 722.71425994279354654 0.200950914520774404082 683.25832239436533655
0.252982212813464002465 895.56427505968451896 0.252982212813464002465 834.29260749246395790
0.318485736442809752589 1105.92020661395804382 0.318485736442809752589 1011.77949327284068204
0.400949786901833249431 1359.98151006594503087 0.400949786901833249431 1216.83822856009692259
0.504765875584169521062 1663.99111614876574095 0.504765875584169521062 1448.64230080052266203
0.635462587779443310865 2023.66111019708569074 0.635462587779443310865 1703.32301006411626076
0.800000000000011368684 2443.31572760101153108 0.800000000000011368684 1972.67526203759393866
1.007140329435344483500 2924.72451094072539490 1.007140329435344483500 2242.89846219357650625
1.267914553968907398485 3465.68116056188773655 1.267914553968907398485 2493.88176468481606207
1.596209851975117999245 4058.54251729293173412 1.596209851975117999245 2699.86489294488910673
2.009509145207687197399 4689.17029983449538122 2.009509145207687197399 2832.43858400232556960
2.529822128134725289783 5336.92775634397366957 2.529822128134725289783 2866.38687316856021425
3.184857364427983839050 5976.37913060701885115 3.184857364427983839050 2787.51637224634987433
4.009497869018204596614 6580.90304732586719183 4.009497869018204596614 2600.16544983241556110
5.009497869018190385759 7110.63819944341958035 5.009497869018190385759 2339.05134059697320481
6.009497869018190385759 7493.68588536650622700 6.009497869018190385759 2090.05819541647679216
7.009497869018204596614 7780.01483938193996437 7.009497869018204596614 1871.76425196874606627
8.009497869018190385759 8000.59233700336790207 8.009497869018190385759 1688.38974476640828470
9.009497869018204596614 8175.18196899689610291 9.009497869018204596614 1539.09208732715319456
10.009497869018190385759 8316.74222854796062165 10.009497869018190385759 1418.88481294196640192
11.009497869018190385759 8434.00000502804141433 11.009497869018190385759 1317.31353276887557513
12.009497869018204596614 8532.96689786663228006 12.009497869018204596614 1234.01971485021613262
13.009497869018190385759 8617.87957070971060602 13.009497869018190385759 1165.50224626054773580
14.009497869018204596614 8691.78546419641679677 14.009497869018204596614 1108.88130125424777361
15.009497869018190385759 8756.91872360058914637 15.009497869018190385759 1061.83056071651549246
16.009497869018190385759 8814.94653624267812120 16.009497869018190385759 1022.49235358787984751
17.009497869018204596614 8867.13380086767210742 17.009497869018204596614 990.26713783184959539
18.009497869018190385759 8914.45530479186163575 18.009497869018190385759 962.08618823388337660
19.009497869018204596614 8957.67522858870506752 19.009497869018204596614 939.20927583989930554
20.009497869018190385759 8997.39599214206828037 20.009497869018190385759 918.42185225876164623
21.009497869018190385759 9034.10179926504315517 21.009497869018190385759 900.49599005543677777
22.009497869018204596614 9068.18880635236382659 22.009497869018204596614 884.93294105120162385
23.009497869018190385759 9099.97778277999350394 23.009497869018190385759 871.75789257661426745
24.009497869018204596614 9129.73783112238925241 24.009497869018204596614 859.76296835058383294
25.009497869018204596614 9157.69332166500316816 25.009497869018204596614 849.16625055138138123
26.009497869018190385759 9184.03322855165242800 26.009497869018190385759 840.20807335953122674
27.009497869018204596614 9208.91973726952710422 27.009497869018204596614 831.74435705321809564
28.009497869018190385759 9232.49054732607510232 28.009497869018190385759 824.15973691095189224
29.009497869018190385759 9254.86584772852256719 29.009497869018190385759 817.52577807967281842
30.009497869018190385759 9276.14957688831418636 30.009497869018190385759 811.31308915372210322
31.009497869018218807469 9296.43246479732624721 31.009497869018218807469 805.66403626076305500
32.009497869018190385759 9315.79556835556104488 32.009497869018190385759 800.51212442399094016
33.009497869018190385759 9334.30857792527967831 33.009497869018190385759 795.98403020895602822
34.009497869018218807469 9352.03585958495204977 34.009497869018218807469 791.61204093306503182
35.009497869018190385759 9369.03283415162331949 35.009497869018190385759 787.68447724094983187
36.009497869018190385759 9385.35006656471341557 36.009497869018190385759 783.93727908008042959
37.009497869018190385759 9401.03375984119156783 37.009497869018190385759 780.45560900111274805
38.009497869018218807469 9416.12418299651653797 38.009497869018218807469 777.21405320475810186
39.009497869018190385759 9430.65894922824736568 39.009497869018190385759 774.24206217492337601
40.009497869018190385759 9444.67227597481905832 40.009497869018190385759 771.56698281492037950
41.009497869018218807469 9458.19458630931694643 41.009497869018218807469 768.81731386882313473
42.009497869018190385759 9471.25440050604265707 42.009497869018190385759 766.34028132901528352
43.009497869018190385759 9483.87802272434419137 43.009497869018190385759 763.90315473682574066
44.009497869018218807469 9496.08891113347635837 44.009497869018218807469 761.68801516267194529
46.009497869018190385759 9519.35948581790580647 46.009497869018190385759 757.57775053078432848
48.009497869018218807469 9541.22350573188850831 48.009497869018218807469 753.78960285062339608
50.009497869018190385759 9561.81625959383381996 50.009497869018190385759 750.39279479074036772
52.009497869018190385759 9581.25480630389029102 52.009497869018190385759 747.27208593250975355
54.009497869018218807469 9599.64159435201690940 54.009497869018218807469 744.35346572799755904
56.009497869018190385759 9617.06615951965795830 56.009497869018190385759 741.65534918085211302
58.009497869018218807469 9633.60783041585455067 58.009497869018218807469 739.24113032680361357
60.009497869018190385759 9649.33674413548033044 60.009497869018190385759 736.89299445230039964
62.009497869018190385759 9664.31540760528696410 62.009497869018190385759 734.69934879005893436
64.009497869018218807469 9678.59983514341001865 64.009497869018218807469 732.64206873969749267
66.009497869018190385759 9692.24006243635994906 66.009497869018190385759 730.72745188913881975
68.009497869018190385759 9705.28149848094108165 68.009497869018190385759 728.93703534715518799
70.009497869018190385759 9717.76487881234788802 70.009497869018190385759 727.20728257250732440
72.009497869018190385759 9729.72730437930840708 72.009497869018190385759 725.58558595661929758
74.009497869018218807469 9741.20255368841390009 74.009497869018218807469 724.03748964996100312
76.009497869018190385759 9752.22124289790917828 76.009497869018190385759 722.56491768207342830
78.009497869018190385759 9762.81151376040725154 78.009497869018190385759 721.16860018279112410
80.009497869018218807469 9772.99911302435248217 80.009497869018218807469 719.83090485947093384
82.009497869018190385759 9782.80759039307486091 82.009497869018190385759 718.55017382587891461
84.009497869018218807469 9792.25873715850502776 84.009497869018218807469 717.31364768214632477
86.009497869018190385759 9801.37262965548507054 86.009497869018190385759 716.14384505990267371
88.009497869018190385759 9810.16772427944124502 88.009497869018190385759 715.00846753243763487
91.009497869018218807469 9822.79980805729246640 91.009497869018218807469 713.39584244857451267
94.009497869018218807469 9834.80563009811339725 94.009497869018218807469 711.87129933709786656
97.009497869018218807469 9846.23229350972360407 97.009497869018218807469 710.43962831060207463
99.504748934509137825444 9855.32595742767625779 99.504748934509137825444 709.10131348238155624
nan nan nan nan

