Time Pressure difference Time.1 Pressure.1 difference.1
(hr) (psi) (hr) (psi)
0.000200000000020850166 0.55059805208921320 0.000200000000020850166 0.43885522711635200
0.000399999999999067768 1.10100028584133369 0.000399999999999067768 1.14927450174464640
0.000600000000019917934 1.65123740027575394 0.000600000000019917934 1.68176166454620835
0.000799999999998135536 2.20132250213464031 0.000799999999998135536 2.22402313292429055
0.001007140329434719206 2.77089634082462721 0.001007140329434719206 2.79344826539494218
0.001267914553977789183 3.48773955510525902 0.001267914553977789183 3.51561610884842501
0.001596209851982166583 4.38987613731069359 0.001596209851982166583 4.42418619212804654
0.002009509145224797066 5.52511892050305331 0.002009509145224797066 5.56711552186752012
0.002529822128153114136 6.95357424272520852 0.002529822128153114136 7.00461574786323293
0.003184857364431081805 8.75077919706830443 0.003184857364431081805 8.81223957009166980
0.004009497869034817086 11.01162673327869257 0.004009497869034817086 11.08471996941222848
0.005047658755856332391 13.85526950727522255 0.005047658755856332391 13.94073238131079151
0.006354625877790454069 17.43123578623050562 0.006354625877790454069 17.52878074172989642
0.008000000000009777068 21.92704035975239307 0.008000000000009777068 22.03444010568378886
0.010071403294361402914 27.57763018029827151 0.010071403294361402914 27.68921788375821791
0.012679145539692626699 34.67706719417224548 0.012679145539692626699 34.78131658667167159
0.015962098519750611558 43.59291653847031256 0.015962098519750611558 43.66858296790007188
0.020095091452091651263 54.78387093154444187 0.020095091452091651263 54.79389481193556577
0.025298221281360611101 68.82119075823936782 0.025298221281360611101 68.70314081027663633
0.031848573644296607199 86.41455552945275542 0.031848573644296607199 86.06575037858820565
0.040094978690191851456 108.44287607390123185 0.040094978690191851456 107.69736849660927192
0.050476587558435426217 135.99046114458332113 0.050476587558435426217 134.58365877773559305
0.063546258777947173257 170.38859637076973286 0.063546258777947173257 167.90323577679362188
0.080000000000012505552 213.26197463007335386 0.080000000000012505552 209.04621721547115953
0.100714032943542974863 266.57837074521364684 0.100714032943542974863 259.62265572361218346
0.126791455396883634421 332.69828776826989269 0.126791455396883634421 321.45194877967236380
0.159620985197506115583 414.41877726923405589 0.159620985197506115583 396.52005510557808066
0.200950914520774404082 515.00198071273348432 0.200950914520774404082 486.88590896132387797
0.252982212813464002465 638.17389675943070415 0.252982212813464002465 594.51206260496360301
0.318485736442809752589 788.07231084869772531 0.318485736442809752589 720.98818573371420371
0.400949786901833249431 969.11491890598028931 0.400949786901833249431 867.11184855412727757
0.504765875584169521062 1185.75039708340477773 0.504765875584169521062 1032.29408302469983028
0.635462587779443310865 1442.04914418780481355 0.635462587779443310865 1213.77807606291185039
0.800000000000011368684 1741.09258522267987246 0.800000000000011368684 1405.71692515488393838
1.007140329435344483500 2084.14168594484408459 1.007140329435344483500 1598.27640685914684582
1.267914553968907398485 2469.62425004517717753 1.267914553968907398485 1777.12564932330269585
1.596209851975117999245 2892.09380672542556567 1.596209851975117999245 1923.90802920292412637
2.009509145207687197399 3341.47549891327844307 2.009509145207687197399 2018.37927083911677073
2.529822128134725289783 3803.06369720097973186 2.529822128134725289783 2042.57062436769319902
3.184857364427983839050 4258.73302956065253966 3.184857364427983839050 1986.36796386123091906
4.009497869018204596614 4689.51325869722677453 4.009497869018204596614 1852.86278556411116369
5.009497869018190385759 5066.99944890370716166 5.009497869018190385759 1666.79438910139560903
6.009497869018190385759 5339.95700335051333241 6.009497869018190385759 1489.36332116868425146
7.009497869018204596614 5543.99335163707746688 7.009497869018204596614 1333.80832594543562664
8.009497869018190385759 5701.17559429088214529 8.009497869018190385759 1203.13671801438340481
9.009497869018204596614 5825.58715121199657005 9.009497869018204596614 1096.74807514593703672
10.009497869018190385759 5926.46216932050629111 10.009497869018190385759 1011.08907014809665270
11.009497869018190385759 6010.01937925571928645 11.009497869018190385759 938.70996630031822860
12.009497869018204596614 6080.54261182745995029 12.009497869018204596614 879.35527581360952354
13.009497869018190385759 6141.05088892338881124 13.009497869018190385759 830.53012596822668456
14.009497869018204596614 6193.71579902909343218 14.009497869018204596614 790.18236967740801902
15.009497869018190385759 6240.12938108028993156 15.009497869018190385759 756.65428546214582184
16.009497869018190385759 6281.47966307066963054 16.009497869018190385759 728.62210772354831079
17.009497869018204596614 6318.66800449343281798 17.009497869018204596614 705.65860629137182514
18.009497869018190385759 6352.38903312401725998 18.009497869018190385759 685.57702541531841689
19.009497869018204596614 6383.18729959711890842 19.009497869018204596614 669.27507062003587635
20.009497869018190385759 6411.49208482029007428 20.009497869018190385759 654.46207340721230139
21.009497869018190385759 6437.64842961620979622 21.009497869018190385759 641.68820819881500483
22.009497869018204596614 6461.93863272902581230 22.009497869018204596614 630.59806994176051376
23.009497869018190385759 6484.59127255151270219 23.009497869018190385759 621.20960698139788292
24.009497869018204596614 6505.79811001401685644 24.009497869018204596614 612.66209370084652619
25.009497869018204596614 6525.71903007775381411 25.009497869018204596614 605.11093419269593596
26.009497869018190385759 6544.48869461915455759 26.009497869018190385759 598.72738919699645521
27.009497869018204596614 6562.22267607365665754 27.009497869018204596614 592.69619415417685104
28.009497869018190385759 6579.01909830986096495 28.009497869018190385759 587.29143792793342982
29.009497869018190385759 6594.96360731569620839 29.009497869018190385759 582.56411742598868386
30.009497869018190385759 6610.13026899899250566 30.009497869018190385759 578.13699140986443581
31.009497869018218807469 6624.58373702457447507 31.009497869018218807469 574.11150915460189026
32.009497869018190385759 6638.38177206822456355 32.009497869018190385759 570.44028672624540377
33.009497869018190385759 6651.57403507700200862 33.009497869018190385759 567.21359310907314466
34.009497869018218807469 6664.20639294428292487 34.009497869018218807469 564.09813896414323153
35.009497869018190385759 6676.31833822214775864 35.009497869018190385759 561.29937990689859362
36.009497869018190385759 6687.94590319250892207 36.009497869018190385759 558.62914827880854318
37.009497869018190385759 6699.12201185669437109 37.009497869018190385759 556.14813041844638519
38.009497869018218807469 6709.87535968104839412 38.009497869018218807469 553.83821660016121768
39.009497869018190385759 6720.23274961151673779 39.009497869018190385759 551.72039306759882038
40.009497869018190385759 6730.21856479583402688 40.009497869018190385759 549.81414706509929147
41.009497869018218807469 6739.85448453903973132 41.009497869018218807469 547.85474895711604404
42.009497869018190385759 6749.16083222282122733 42.009497869018190385759 546.08962996750062757
43.009497869018190385759 6758.15635203823057964 43.009497869018190385759 544.35294772419649689
44.009497869018218807469 6766.85776014032489911 44.009497869018218807469 542.77445213960049841
46.009497869018190385759 6783.44023639553688554 46.009497869018190385759 539.84550145466005233
48.009497869018218807469 6799.02040989721081132 48.009497869018218807469 537.14608943715040823
50.009497869018190385759 6813.69468659969697910 50.009497869018190385759 534.72554375831009565
52.009497869018190385759 6827.54648199480652693 52.009497869018190385759 532.50174476568508908
54.009497869018218807469 6840.64880028098468756 54.009497869018218807469 530.42195297301873325
56.009497869018190385759 6853.06544413564461138 56.009497869018190385759 528.49929080486992916
58.009497869018218807469 6864.85294266447363043 58.009497869018218807469 526.77893248260932069
60.009497869018190385759 6876.06127515359366953 60.009497869018190385759 525.10566450745193379
62.009497869018190385759 6886.73498367567208334 62.009497869018190385759 523.54248535954684485
64.009497869018218807469 6896.91398370822207653 64.009497869018218807469 522.07647955401489526
66.009497869018190385759 6906.63393039060247247 66.009497869018190385759 520.71213471540352202
68.009497869018190385759 6915.92718190999403305 68.009497869018190385759 519.43629429474344761
70.009497869018190385759 6924.82276617198567692 70.009497869018190385759 518.20368252206651505
72.009497869018190385759 6933.34712109698921267 72.009497869018190385759 517.04807094002376289
74.009497869018218807469 6941.52431705245544435 74.009497869018218807469 515.94490651052126395
76.009497869018190385759 6949.37617093478547758 76.009497869018190385759 514.89556028582626368
78.009497869018190385759 6956.92273639331415325 78.009497869018190385759 513.90055255221500374
80.009497869018218807469 6964.18236041132513492 80.009497869018218807469 512.94731864044103986
82.009497869018190385759 6971.17182437052360910 82.009497869018190385759 512.03467715041108477
84.009497869018218807469 6977.90665661887032911 84.009497869018218807469 511.15353580794504751
86.009497869018190385759 6984.40116343587942538 86.009497869018190385759 510.31994125904793691
88.009497869018190385759 6990.66849674164768658 88.009497869018190385759 509.51087783258731179
91.009497869018218807469 6999.67004621520663932 91.009497869018218807469 508.36173057153536092
94.009497869018218807469 7008.22532521523226023 94.009497869018218807469 507.27535001201169962
97.009497869018218807469 7016.36789914255859912 97.009497869018218807469 506.25514956040746029
99.504748934509137825444 7022.84799119173476356 99.504748934509137825444 505.30147419304262257
nan nan nan nan

