Time Pressure difference Time.1 Pressure.1 difference.1
(hr) (psi) (hr) (psi)
0.000200000000020850166 0.83837286481257844 0.000200000000020850166 0.66822669023154502
0.000399999999999067768 1.67644756514813364 0.000399999999999067768 1.74995271564743748
0.000600000000019917934 2.51427084513287014 0.000600000000019917934 2.56074887894649228
0.000799999999998135536 3.35186266186060111 0.000799999999998135536 3.38642797279106444
0.001007140329434719206 4.21912917152752875 0.001007140329434719206 4.25346805365272207
0.001267914553977789183 5.31063666396692025 0.001267914553977789183 5.35308313854865947
0.001596209851982166583 6.68428269850329215 0.001596209851982166583 6.73652519888983381
0.002009509145224797066 8.41286989708017785 0.002009509145224797066 8.47681638374993973
0.002529822128153114136 10.58791969285046974 0.002529822128153114136 10.66563848013011828
0.003184857364431081805 13.32444929100430642 0.003184857364431081805 13.41803245717885673
0.004009497869034817086 16.76694825852707282 0.004009497869034817086 16.87824430387843933
0.005047658755856332391 21.09684541289037085 0.005047658755856332391 21.22697619389921186
0.006354625877790454069 26.54182125758361011 0.006354625877790454069 26.69034892396334868
0.008000000000009777068 33.38739680155651968 0.008000000000009777068 33.55092994943996842
0.010071403294361402914 41.99131604492546188 0.010071403294361402914 42.16122602239922657
0.012679145539692626699 52.80133494218372192 0.012679145539692626699 52.96007117728858304
0.015962098519750611558 66.37712971416627283 0.015962098519750611558 66.49234385444603390
0.020095091452091651263 83.41713277794077896 0.020095091452091651263 83.43239572572664997
0.025298221281360611101 104.79117867719830315 0.025298221281360611101 104.61142890749069068
0.031848573644296607199 131.57986702974073978 0.031848573644296607199 131.04875586346966543
0.040094978690191851456 165.12147897657467865 0.040094978690191851456 163.98632544498812535
0.050476587558435426217 207.06704657664650426 0.050476587558435426217 204.92496683981491401
0.063546258777947173257 259.44366335609652197 0.063546258777947173257 255.65930764804829778
0.080000000000012505552 324.72518191406936694 0.080000000000012505552 318.30602258790770520
0.100714032943542974863 405.90785152745519326 0.100714032943542974863 395.31667215921606839
0.126791455396883634421 506.58591249307556836 0.126791455396883634421 489.46157759805100795
0.159620985197506115583 631.01831946735342171 0.159620985197506115583 603.76467605199798072
0.200950914520774404082 784.17220023932827644 0.200950914520774404082 741.36102150002182043
0.252982212813464002465 971.72097875151985136 0.252982212813464002465 905.23891103595656205
0.318485736442809752589 1199.96508963064547970 0.318485736442809752589 1097.81886891175827259
0.400949786901833249431 1475.63117561514832232 0.400949786901833249431 1320.31532226972854005
0.504765875584169521062 1805.49305175237441290 0.504765875584169521062 1571.83147385029792531
0.635462587779443310865 2195.74854583279056897 0.635462587779443310865 1848.16963847645752139
0.800000000000011368684 2651.08961616988108290 0.800000000000011368684 2140.42697969202890818
1.007140329435344483500 3173.43628313051794976 1.007140329435344483500 2433.62933249851994333
1.267914553968907398485 3760.39462846758124215 1.267914553968907398485 2705.95567147717383705
1.596209851975117999245 4403.67153652451543167 1.596209851975117999245 2929.45512603708084498
2.009509145207687197399 5087.92643943290750030 2.009509145207687197399 3073.30257553750698207
2.529822128134725289783 5790.76768395557064650 2.529822128134725289783 3110.13774828192572386
3.184857364427983839050 6484.59651630987627868 3.184857364427983839050 3024.56028334157235804
4.009497869018204596614 7140.52774133958428138 4.009497869018204596614 2821.27747409157700531
5.009497869018190385759 7715.31033911621852894 5.009497869018190385759 2537.95882811813680746
6.009497869018190385759 8130.93150963341031456 6.009497869018190385759 2267.79188480065522526
7.009497869018204596614 8441.60921216038332204 7.009497869018204596614 2030.93473195317119462
8.009497869018190385759 8680.94410731904645218 8.009497869018190385759 1831.96648301888012611
9.009497869018204596614 8870.38043568231660174 9.009497869018204596614 1669.97289992009723392
10.009497869018190385759 9023.97865056657246896 10.009497869018190385759 1539.54347841281173714
11.009497869018190385759 9151.20775572471939086 11.009497869018190385759 1429.33481273522761512
12.009497869018204596614 9258.59056302428871277 12.009497869018204596614 1338.95788220561689741
13.009497869018190385759 9350.72401213712510071 13.009497869018190385759 1264.61384739572872604
14.009497869018204596614 9430.91469096877153788 14.009497869018204596614 1203.17798887436151745
15.009497869018190385759 9501.58673131258547073 15.009497869018190385759 1152.12616275807067723
16.009497869018190385759 9564.54909422240780259 16.009497869018190385759 1109.44272595972302042
17.009497869018204596614 9621.17424249151190452 17.009497869018204596614 1074.47715278202849731
18.009497869018190385759 9672.51985708309621259 18.009497869018190385759 1043.89976075323420446
19.009497869018204596614 9719.41510270981234498 19.009497869018204596614 1019.07744891993377223
20.009497869018190385759 9762.51362764177065401 20.009497869018190385759 996.52231116989423754
21.009497869018190385759 9802.34081125851844263 21.009497869018190385759 977.07207532387542415
22.009497869018204596614 9839.32649817350284138 22.009497869018204596614 960.18558081766548185
23.009497869018190385759 9873.81873524460024782 23.009497869018190385759 945.89015685385049892
24.009497869018204596614 9906.10950890351705311 24.009497869018204596614 932.87521216080574504
25.009497869018204596614 9936.44226936310587917 25.009497869018204596614 921.37737411818352484
26.009497869018190385759 9965.02206068898522062 26.009497869018190385759 911.65741436642360895
27.009497869018204596614 9992.02486024508471019 27.009497869018204596614 902.47396330424510325
28.009497869018190385759 10017.60007718480301264 28.009497869018190385759 894.24436469993486298
29.009497869018190385759 10041.87812110909726471 29.009497869018190385759 887.04626943413370554
30.009497869018190385759 10064.97176911024871515 30.009497869018190385759 880.30526788692338869
31.009497869018218807469 10086.97946664769187919 31.009497869018218807469 874.17583267045120010
32.009497869018190385759 10107.98916351173829753 32.009497869018190385759 868.58581422969086816
33.009497869018190385759 10128.07647637102490989 33.009497869018190385759 863.67266141079403496
34.009497869018218807469 10147.31124484567408217 34.009497869018218807469 858.92888833210940902
35.009497869018190385759 10165.75360261015885044 35.009497869018190385759 854.66733375551916652
36.009497869018190385759 10183.45841452877357369 36.009497869018190385759 850.60148257558773821
37.009497869018190385759 10200.47581261563209409 37.009497869018190385759 846.82373936826866156
38.009497869018218807469 10216.84949026963295182 38.009497869018218807469 843.30652920387092308
39.009497869018190385759 10232.62025922720386006 39.009497869018190385759 840.08180696697820622
40.009497869018190385759 10247.82524669818849361 40.009497869018190385759 837.17924507797590650
41.009497869018218807469 10262.49746286306981347 41.009497869018218807469 834.19575067790503908
42.009497869018190385759 10276.66785329396225279 42.009497869018190385759 831.50807705021247784
43.009497869018190385759 10290.36495899476722116 43.009497869018190385759 828.86370287913916854
44.009497869018218807469 10303.61423296291104634 44.009497869018218807469 826.46019298597775560
46.009497869018190385759 10328.86368321253939939 46.009497869018190385759 822.00040100649141550
48.009497869018218807469 10352.58696854439403978 48.009497869018218807469 817.89011805535881194
50.009497869018190385759 10374.93088231494584761 50.009497869018190385759 814.20445333591624149
52.009497869018190385759 10396.02243784103484359 52.009497869018190385759 810.81836665228183847
54.009497869018218807469 10415.97279559400521975 54.009497869018218807469 807.65155377160556327
56.009497869018190385759 10434.87910526998530258 56.009497869018190385759 804.72399566662966208
58.009497869018218807469 10452.82744139847272891 58.009497869018218807469 802.10447725448659639
60.009497869018190385759 10469.89390536982136837 60.009497869018190385759 799.55666136482113870
62.009497869018190385759 10486.14631955449840461 62.009497869018190385759 797.17647317586590816
64.009497869018218807469 10501.64546159801830072 64.009497869018218807469 794.94424681336397498
66.009497869018190385759 10516.44562210532967583 66.009497869018190385759 792.86681539747246461
68.009497869018190385759 10530.59607154875084234 68.009497869018190385759 790.92414599562152944
70.009497869018190385759 10544.14100951867294498 70.009497869018190385759 789.04729906683235185
72.009497869018190385759 10557.12069194224204693 72.009497869018190385759 787.28769714130498869
74.009497869018218807469 10569.57176977171548060 74.009497869018218807469 785.60795432417728534
76.009497869018190385759 10581.52746269224189746 76.009497869018190385759 784.01015825998933906
78.009497869018190385759 10593.01830556565073493 78.009497869018190385759 782.49510116711883256
80.009497869018218807469 10604.07223458401131211 80.009497869018218807469 781.04365134375325397
82.009497869018190385759 10614.71480206267005997 82.009497869018190385759 779.65400992086767928
84.009497869018218807469 10624.96965237435142626 84.009497869018218807469 778.31233246889507882
86.009497869018190385759 10634.85856909874019038 86.009497869018190385759 777.04305255154133647
88.009497869018190385759 10644.40157812021243444 88.009497869018190385759 775.81112515898496440
91.009497869018218807469 10658.10786493191517366 91.009497869018218807469 774.06136618747382272
94.009497869018218807469 10671.13463416458216670 94.009497869018218807469 772.40717947448297309
97.009497869018218807469 10683.53299446480195911 97.009497869018218807469 770.85376247264457561
99.504748934509137825444 10693.39996241883454786 99.504748934509137825444 769.40164046312224855
nan nan nan nan

