Time Pressure difference Time.1 Pressure.1 difference.1
(hr) (psi) (hr) (psi)
0.000200000000020850166 0.71943703180841301 0.000200000000020850166 0.57342865778798258
0.000399999999999067768 1.43861819826699966 0.000399999999999067768 1.50169553475697759
0.000600000000019917934 2.15758361214279049 0.000600000000019917934 2.19746803600071017
0.000799999999998135536 2.87635039931490066 0.000799999999998135536 2.90601209966693563
0.001007140329434719206 3.62058207675725452 0.001007140329434719206 3.65004947064444885
0.001267914553977789183 4.55724277215415263 0.001267914553977789183 4.59366757425058569
0.001596209851982166583 5.73601640298149551 0.001596209851982166583 5.78084751690447085
0.002009509145224797066 7.21937744144281091 0.002009509145224797066 7.27425215470604947
0.002529822128153114136 9.08586362531314862 0.002529822128153114136 9.15255683066721559
0.003184857364431081805 11.43417523484000498 0.003184857364431081805 11.51448221771796732
0.004009497869034817086 14.38830381312095064 0.004009497869034817086 14.48381083616552445
0.005047658755856332391 18.10393976403786453 0.005047658755856332391 18.21560953147104556
0.006354625877790454069 22.77646367838276120 0.006354625877790454069 22.90392045558362710
0.008000000000009777068 28.65089110451030407 0.008000000000009777068 28.79122460939044714
0.010071403294361402914 36.03421466156797948 0.010071403294361402914 36.18002034660251098
0.012679145539692626699 45.31066937002869111 0.012679145539692626699 45.44688647654228220
0.015962098519750611558 56.96053293923991134 0.015962098519750611558 57.05940221636490151
0.020095091452091651263 71.58315461599084983 0.020095091452091651263 71.59625228447774248
0.025298221281360611101 89.92496979739735252 0.025298221281360611101 89.77072024303517139
0.031848573644296607199 112.91327875071996800 0.031848573644296607199 112.45751371220360681
0.040094978690191851456 141.69650725668361702 0.040094978690191851456 140.72239237094714781
0.050476587558435426217 177.69146358015794362 0.050476587558435426217 175.85327015519831662
0.063546258777947173257 222.63766746331694435 0.063546258777947173257 219.39017967813668974
0.080000000000012505552 278.65801820999013216 0.080000000000012505552 273.14951343109140680
0.100714032943542974863 348.32370195560395132 0.100714032943542974863 339.23504108900988285
0.126791455396883634421 434.71906181201427444 0.126791455396883634421 420.02407204594652512
0.159620985197506115583 541.49885549529835771 0.159620985197506115583 518.11155236604986385
0.200950914520774404082 672.92554881648709397 0.200950914520774404082 636.18778134674494140
0.252982212813464002465 833.86770498022292486 0.252982212813464002465 776.81712107748262497
0.318485736442809752589 1029.73194695486949968 0.318485736442809752589 942.07670794511000167
0.400949786901833249431 1266.29064177291979831 0.400949786901833249431 1133.00868428900321305
0.504765875584169521062 1549.35663667242442898 0.504765875584169521062 1348.84347706399580602
0.635462587779443310865 1884.24850411246416115 0.635462587779443310865 1585.97890603386508701
0.800000000000011368684 2274.99257736800291241 0.800000000000011368684 1836.77513634286219713
1.007140329435344483500 2723.23649296418443555 1.007140329435344483500 2088.38231409843228903
1.267914553968907398485 3226.92594605600970681 1.267914553968907398485 2322.07505538467830775
1.596209851975117999245 3778.94432449772421023 1.596209851975117999245 2513.86774208539191022
2.009509145207687197399 4366.12735129907196097 2.009509145207687197399 2637.30826174597586942
2.529822128134725289783 4969.25996688647774135 2.529822128134725289783 2668.91780978558108472
3.184857364427983839050 5564.65871687305752857 3.184857364427983839050 2595.48079870085348375
4.009497869018204596614 6127.53620660589331237 4.009497869018204596614 2421.03672131866505879
5.009497869018190385759 6620.77722553127932770 5.009497869018190385759 2177.91109754185390557
6.009497869018190385759 6977.43626570724154590 6.009497869018190385759 1946.07140907992743450
7.009497869018204596614 7244.03965130826509267 7.009497869018204596614 1742.81601501933823783
8.009497869018190385759 7449.42128257041258621 8.009497869018190385759 1572.07441251124123482
9.009497869018204596614 7611.98321117579689599 9.009497869018204596614 1433.06206193540106142
10.009497869018190385759 7743.79120311516271613 10.009497869018190385759 1321.13602066178782479
11.009497869018190385759 7852.97094117250435374 11.009497869018190385759 1226.56211608727380735
12.009497869018204596614 7945.11987799207327043 12.009497869018204596614 1149.00651598001832099
13.009497869018190385759 8024.18280803433754045 13.009497869018190385759 1085.20930356875555844
14.009497869018204596614 8092.99722984919390001 14.009497869018204596614 1032.48904799238357555
15.009497869018190385759 8153.64337558074021217 15.009497869018190385759 988.67969323981276375
16.009497869018190385759 8207.67357787934815860 16.009497869018190385759 952.05154559043705831
17.009497869018204596614 8256.26559499519680685 17.009497869018204596614 922.04636622664156675
18.009497869018190385759 8300.32705989769601729 18.009497869018190385759 895.80683834478918470
19.009497869018204596614 8340.56950778173268191 19.009497869018204596614 874.50594574974479656
20.009497869018190385759 8377.55385705370281357 20.009497869018190385759 855.15059440670484037
21.009497869018190385759 8411.73095410577298026 21.009497869018190385759 838.45966781265099144
22.009497869018204596614 8443.46966361119120847 22.009497869018204596614 823.96877718976247706
23.009497869018190385759 8473.06865673271749984 23.009497869018190385759 811.70137468113159684
24.009497869018204596614 8500.77849722375322017 24.009497869018204596614 800.53279614989776292
25.009497869018204596614 8526.80809821337788890 25.009497869018204596614 790.66609981371891536
26.009497869018190385759 8551.33341517457483860 26.009497869018190385759 782.32506292356788435
27.009497869018204596614 8574.50546042856876738 27.009497869018204596614 774.44442287517074419
28.009497869018190385759 8596.45244718735739298 28.009497869018190385759 767.38231693000363975
29.009497869018190385759 8617.28628448349991231 29.009497869018190385759 761.20538002036278158
30.009497869018190385759 8637.10375027814006899 30.009497869018190385759 755.42069119264760957
31.009497869018218807469 8655.98932405779123656 31.009497869018218807469 750.16080878962338829
32.009497869018190385759 8674.01847860878297070 32.009497869018190385759 745.36381875861366098
33.009497869018190385759 8691.25610323505497945 33.009497869018190385759 741.14767075430245313
34.009497869018218807469 8707.76212975348062173 34.009497869018218807469 737.07687341991527319
35.009497869018190385759 8723.58816097002818424 35.009497869018190385759 733.41988462155165962
36.009497869018190385759 8738.78127834066435753 36.009497869018190385759 729.93083574194781704
37.009497869018190385759 8753.38450189734248852 37.009497869018190385759 726.68902237455597515
38.009497869018218807469 8767.43532647146093950 38.009497869018218807469 723.67078150927409297
39.009497869018190385759 8780.96877403921644145 39.009497869018190385759 720.90353474844857828
40.009497869018190385759 8794.01670475588434783 40.009497869018190385759 718.41274503219165126
41.009497869018218807469 8806.60744581007384113 41.009497869018218807469 715.85250430197197602
42.009497869018190385759 8818.76755267785665637 42.009497869018190385759 713.54611770677956883
43.009497869018190385759 8830.52151739134205854 43.009497869018190385759 711.27688788735656544
44.009497869018218807469 8841.89118205646627757 44.009497869018218807469 709.21435211594325665
46.009497869018190385759 8863.55861704250673938 46.009497869018190385759 705.38724887957846477
48.009497869018218807469 8883.91639661795670690 48.009497869018218807469 701.86007154552123666
50.009497869018190385759 8903.09048928812262602 50.009497869018190385759 698.69727394401547826
52.009497869018190385759 8921.18988961557079165 52.009497869018190385759 695.79155471649175979
54.009497869018218807469 8938.30998828255542321 54.009497869018218807469 693.07400199646713190
56.009497869018190385759 8954.53415283585127327 56.009497869018190385759 690.56176215439938915
58.009497869018218807469 8969.93624683499911043 58.009497869018218807469 688.31386192969341664
60.009497869018190385759 8984.58157554057288507 60.009497869018190385759 686.12749214342284176
62.009497869018190385759 8998.52833969706443895 62.009497869018190385759 684.08496954079760144
64.009497869018218807469 9011.82869472449056047 64.009497869018218807469 682.16941814837286984
66.009497869018190385759 9024.52922928681437043 66.009497869018190385759 680.38670170517229963
68.009497869018190385759 9036.67222409689566121 68.009497869018190385759 678.71962925219509088
70.009497869018190385759 9048.29560836671771540 70.009497869018190385759 677.10904136191470570
72.009497869018190385759 9059.43392711313572363 72.009497869018190385759 675.59906550320317820
74.009497869018218807469 9070.11863179814827163 74.009497869018218807469 674.15761953414028085
76.009497869018190385759 9080.37822939364014019 76.009497869018190385759 672.78649493540751791
78.009497869018190385759 9090.23892293084099947 78.009497869018190385759 671.48637153725985627
80.009497869018218807469 9099.72468543171635247 80.009497869018218807469 670.24083175828036474
82.009497869018190385759 9108.85744423036703665 82.009497869018190385759 669.04833192614125892
84.009497869018218807469 9117.65748938870274287 84.009497869018218807469 667.89699165237527723
86.009497869018190385759 9126.14351415715464100 86.009497869018190385759 666.80777823123332837
88.009497869018190385759 9134.33270344641277916 88.009497869018190385759 665.75061831599407469
91.009497869018218807469 9146.09454679177360958 91.009497869018218807469 664.24908903984601238
94.009497869018218807469 9157.27327237337703991 94.009497869018218807469 662.82957365617835421
97.009497869018218807469 9167.91273830560749047 97.009497869018218807469 661.49653228059287358
99.504748934509137825444 9176.37992806774855126 99.504748934509137825444 660.25041567519917862
nan nan nan nan

