Time Pressure difference Time.1 Pressure.1 difference.1
(hr) (psi) (hr) (psi)
0.000200000000020850166 0.42750362352546162 0.000200000000020850166 0.34074257815378389
0.000399999999999067768 0.85485520683148863 0.000399999999999067768 0.89233699984403059
0.000600000000019917934 1.28207858571259448 0.000600000000019917934 1.30577869422469939
0.000799999999998135536 1.70918393670272706 0.000799999999998135536 1.72680950199861827
0.001007140329434719206 2.15142102595748996 0.001007140329434719206 2.16893113053323328
0.001267914553977789183 2.70800321952281431 0.001267914553977789183 2.72964755279167770
0.001596209851982166583 3.40845367760981377 0.001596209851982166583 3.43509320657676076
0.002009509145224797066 4.28989595942382085 0.002009509145224797066 4.32250359250740956
0.002529822128153114136 5.39899873226700500 0.002529822128153114136 5.43862914562190625
0.003184857364431081805 6.79441164243672002 0.003184857364431081805 6.84213162995033031
0.004009497869034817086 8.54981290166955965 0.004009497869034817086 8.60656505177928466
0.005047658755856332391 10.75771680776354167 0.005047658755856332391 10.82407317823828841
0.006354625877790454069 13.53422234761704068 0.006354625877790454069 13.60995966956067704
0.008000000000009777068 17.02492257539687515 0.008000000000009777068 17.10831150199617667
0.010071403294361402914 21.41223853878143757 0.010071403294361402914 21.49887914237420716
0.012679145539692626699 26.92449023837543010 0.012679145539692626699 27.00543312016501218
0.015962098519750611558 33.84706812805701048 0.015962098519750611558 33.90581819562029864
0.020095091452091651263 42.53611730938646929 0.020095091452091651263 42.54390020141220674
0.025298221281360611101 53.43518436515865488 0.025298221281360611101 53.34352624846250990
0.031848573644296607199 67.09528933857811239 0.031848573644296607199 66.82446479545971840
0.040094978690191851456 84.19884939876922658 0.040094978690191851456 83.62001118921021714
0.050476587558435426217 105.58775986150426718 0.050476587558435426217 104.49546920204848277
0.063546258777947173257 132.29567754467618101 0.063546258777947173257 130.36595647926273500
0.080000000000012505552 165.58407093634093599 0.080000000000012505552 162.31080913708788671
0.100714032943542974863 206.98078937015074530 0.100714032943542974863 201.58012846213995317
0.126791455396883634421 258.31861014031829882 0.126791455396883634421 249.58655841805378373
0.159620985197506115583 321.76926210934487926 0.159620985197506115583 307.87206695508626808
0.200950914520774404082 399.86558623314954275 0.200950914520774404082 378.03528278870163604
0.252982212813464002465 495.50057845067584594 0.252982212813464002465 461.60000027031912850
0.318485736442809752589 611.88696038705541014 0.318485736442809752589 559.80049466333707642
0.400949786901833249431 752.45478597835926848 0.400949786901833249431 673.25602742722264793
0.504765875584169521062 920.65816329436552223 0.504765875584169521062 801.50930313398134786
0.635462587779443310865 1119.65749261711744111 0.635462587779443310865 942.41983549295559897
0.800000000000011368684 1351.84530030884798180 0.800000000000011368684 1091.44788448581630291
1.007140329435344483500 1618.20064437409337188 1.007140329435344483500 1240.95781438912626982
1.267914553968907398485 1917.50281650033412006 1.267914553968907398485 1379.82263406673359896
1.596209851975117999245 2245.52298588650864986 1.596209851975117999245 1493.78961784033685944
2.009509145207687197399 2594.43868042511348904 2.009509145207687197399 1567.14040062130811748
2.529822128134725289783 2952.83193408051920414 2.529822128134725289783 1585.92341529455347882
3.184857364427983839050 3306.62957280086948231 3.184857364427983839050 1542.28570003727008952
4.009497869018204596614 3641.10243953228791725 4.009497869018204596614 1438.62760087606216075
5.009497869018190385759 3934.19594673188157685 5.009497869018190385759 1294.15757703643089371
6.009497869018190385759 4146.12975788846506475 6.009497869018190385759 1156.39387776541343555
7.009497869018204596614 4304.55072921670307551 7.009497869018204596614 1035.61552799993046392
8.009497869018190385759 4426.59253091467326158 8.009497869018190385759 934.15751217430988618
9.009497869018204596614 4523.19002375070522248 9.009497869018204596614 851.55364142751000145
10.009497869018190385759 4601.51292300715977035 10.009497869018190385759 785.04498800018370730
11.009497869018190385759 4666.38966908978727588 11.009497869018190385759 728.84731522411414062
12.009497869018204596614 4721.14637836754445743 12.009497869018204596614 682.76225342627674308
13.009497869018190385759 4768.12712523658956343 13.009497869018190385759 644.85269599345690494
14.009497869018204596614 4809.01800710113911919 14.009497869018204596614 613.52528400934693309
15.009497869018190385759 4845.05513878439433029 15.009497869018190385759 587.49290442227027143
16.009497869018190385759 4877.16094685547432164 16.009497869018190385759 565.72773922946203129
17.009497869018204596614 4906.03527841333016113 17.009497869018204596614 547.89807195432797471
18.009497869018190385759 4932.21746680626074522 18.009497869018190385759 532.30602879678804129
19.009497869018204596614 4956.13032023099549406 19.009497869018204596614 519.64861978655358143
20.009497869018190385759 4978.10714742844265857 20.009497869018190385759 508.14728962433099468
21.009497869018190385759 4998.41585018539626617 21.009497869018190385759 498.22921301237300895
22.009497869018204596614 5017.27561514005992649 22.009497869018204596614 489.61844101218252945
23.009497869018190385759 5034.86391856718637428 23.009497869018190385759 482.32890934809438477
24.009497869018204596614 5051.32965037342091819 24.009497869018204596614 475.69232048676002478
25.009497869018204596614 5066.79695084586910525 25.009497869018204596614 469.82933561185149074
26.009497869018190385759 5081.37037618466092681 26.009497869018190385759 464.87292756383106962
27.009497869018204596614 5095.13966087894186785 27.009497869018204596614 460.19009636744249292
28.009497869018190385759 5108.18099173907648947 28.009497869018190385759 455.99365422199059594
29.009497869018190385759 5120.56086731158211478 29.009497869018190385759 452.32319691383406735
30.009497869018190385759 5132.33679496296463185 30.009497869018190385759 448.88582112487955555
31.009497869018218807469 5143.55897406439726183 31.009497869018218807469 445.76029562759123337
32.009497869018190385759 5154.27225202880254074 32.009497869018190385759 442.90982987506066593
33.009497869018190385759 5164.51518735585977993 33.009497869018190385759 440.40451187018663859
34.009497869018218807469 5174.32339270900502015 34.009497869018218807469 437.98556408998433653
35.009497869018190385759 5183.72753148970423354 35.009497869018190385759 435.81250947454049083
36.009497869018190385759 5192.75558042439479323 36.009497869018190385759 433.73924805937707561
37.009497869018190385759 5201.43310286154246569 37.009497869018190385759 431.81289884453389050
38.009497869018218807469 5209.78237896685641317 38.009497869018218807469 430.01940080435485925
39.009497869018190385759 5217.82421948688715929 39.009497869018190385759 428.37504839387577249
40.009497869018190385759 5225.57755635205285216 40.009497869018190385759 426.89497219253934190
41.009497869018218807469 5233.05922213454141456 41.009497869018218807469 425.37362683377295980
42.009497869018190385759 5240.28499662013655325 42.009497869018190385759 424.00312659108061553
43.009497869018190385759 5247.26943345566542121 43.009497869018190385759 422.65470563479914290
44.009497869018218807469 5254.02551164973829145 44.009497869018218807469 421.42910634404023540
46.009497869018190385759 5266.90072735242574709 46.009497869018190385759 419.15496638624659909
48.009497869018218807469 5278.99772007124829543 48.009497869018218807469 417.05904829410167167
50.009497869018190385759 5290.39134276773984311 50.009497869018190385759 415.17965180025890959
52.009497869018190385759 5301.14636215306745726 52.009497869018190385759 413.45301632864368457
54.009497869018218807469 5311.31946124535625131 54.009497869018218807469 411.83819309385438601
56.009497869018190385759 5320.96017867933733214 56.009497869018190385759 410.34537080619804783
58.009497869018218807469 5330.11240563374485646 58.009497869018218807469 409.00962431429178423
60.009497869018190385759 5338.81494777786610939 60.009497869018190385759 407.71044041817270909
62.009497869018190385759 5347.10238913790817605 62.009497869018190385759 406.49673334563004801
64.009497869018218807469 5355.00572148946503148 64.009497869018218807469 405.35847506157648468
66.009497869018190385759 5362.55262873228002718 66.009497869018190385759 404.29914991498100107
68.009497869018190385759 5369.76823489688285918 68.009497869018190385759 403.30854270014827989
70.009497869018190385759 5376.67507826646578906 70.009497869018190385759 402.35149972257130457
72.009497869018190385759 5383.29368616896044841 72.009497869018190385759 401.45424239149878076
74.009497869018218807469 5389.64274768121140369 74.009497869018218807469 400.59770686768564474
76.009497869018190385759 5395.73920220616309962 76.009497869018190385759 399.78295768416120382
78.009497869018190385759 5401.59862009994503751 78.009497869018190385759 399.01039880942369109
80.009497869018218807469 5407.23524660335533554 80.009497869018218807469 398.27027459393769959
82.009497869018190385759 5412.66211136925812752 82.009497869018190385759 397.56166775726779861
84.009497869018218807469 5417.89127115120663802 84.009497869018218807469 396.87751873909928690
86.009497869018190385759 5422.93383384598473640 86.009497869018190385759 396.23028671775023213
88.009497869018190385759 5427.80001106526651711 88.009497869018190385759 395.60210151956181335
91.009497869018218807469 5434.78912953869530611 91.009497869018218807469 394.70986331385068979
94.009497869018218807469 5441.43174797678148025 94.009497869018218807469 393.86635937488523496
97.009497869018218807469 5447.75392773304338334 97.009497869018218807469 393.07423999101126810
99.504748934509137825444 5452.78529829690614861 99.504748934509137825444 392.33377301393340986
nan nan nan nan

