Time Pressure difference Time.1 Pressure.1 difference.1
(hr) (psi) (hr) (psi)
0.000200000000020850166 0.74189344783017852 0.000200000000020850166 0.59132758699061327
0.000399999999999067768 1.48352304376203881 0.000399999999999067768 1.54856926821181951
0.000600000000019917934 2.22493015263742056 0.000600000000019917934 2.26605952382963416
0.000799999999998135536 2.96613243490045253 0.000799999999998135536 2.99671999179526738
0.001007140329434719206 3.73359446528031347 0.001007140329434719206 3.76398165065300372
0.001267914553977789183 4.69949196851040885 0.001267914553977789183 4.73705372974742467
0.001596209851982166583 5.91505968954854744 0.001596209851982166583 5.96129015616044811
0.002009509145224797066 7.44472217082888754 0.002009509145224797066 7.50130973641363763
0.002529822128153114136 9.36946861708593026 0.002529822128153114136 9.43824357567070038
0.003184857364431081805 11.79108012656333493 0.003184857364431081805 11.87389380139240203
0.004009497869034817086 14.83741849861721107 0.004009497869034817086 14.93590666573369852
0.005047658755856332391 18.66903383759742852 0.005047658755856332391 18.78418925095049374
0.006354625877790454069 23.48740531921089314 0.006354625877790454069 23.61884051604693369
0.008000000000009777068 29.54519637598056647 0.008000000000009777068 29.68991023303616217
0.010071403294361402914 37.15898205562848489 0.010071403294361402914 37.30933890077390913
0.012679145539692626699 46.72499084169432848 0.012679145539692626699 46.86545981164823615
0.015962098519750611558 58.73849177086936635 0.015962098519750611558 58.84044714103756490
0.020095091452091651263 73.81754210111427028 0.020095091452091651263 73.83104859855968982
0.025298221281360611101 92.73187636910802212 0.025298221281360611101 92.57281208877152778
0.031848573644296607199 116.43773947473088981 0.031848573644296607199 115.96774824426083228
0.040094978690191851456 146.11940401498475239 0.040094978690191851456 145.11488323108076770
0.050476587558435426217 183.23790232774669562 0.050476587558435426217 181.34233176697907197
0.063546258777947173257 229.58705130321240517 0.063546258777947173257 226.23819684728084667
0.080000000000012505552 287.35601415411701964 0.080000000000012505552 281.67556760755326195
0.100714032943542974863 359.19623369294640725 0.100714032943542974863 349.82388052184603566
0.126791455396883634421 448.28832732522164406 0.126791455396883634421 433.13465001732294013
0.159620985197506115583 558.40113190960244083 0.159620985197506115583 534.28382047458558191
0.200950914520774404082 693.93016132289767484 0.200950914520774404082 656.04566585120983291
0.252982212813464002465 859.89594548249567652 0.252982212813464002465 801.06459190880286769
0.318485736442809752589 1061.87386899854732292 0.318485736442809752589 971.48257050524637179
0.400949786901833249431 1305.81647683403980409 0.400949786901833249431 1168.37427327837076518
0.504765875584169521062 1597.71805770150604076 0.504765875584169521062 1390.94610582784321196
0.635462587779443310865 1943.06319730441350657 0.635462587779443310865 1635.48344992162719791
0.800000000000011368684 2346.00390637255350157 0.800000000000011368684 1894.10800187032714348
1.007140329435344483500 2808.23925054803794410 1.007140329435344483500 2153.56881407607124856
1.267914553968907398485 3327.65080217567674481 1.267914553968907398485 2394.55601087067407207
1.596209851975117999245 3896.89981208320250516 1.596209851975117999245 2592.33529010424217631
2.009509145207687197399 4502.41109521245471115 2.009509145207687197399 2719.62886644787340629
2.529822128134725289783 5124.36981556385762815 2.529822128134725289783 2752.22507090027556842
3.184857364427983839050 5738.35326641707342787 3.184857364427983839050 2676.49580629035972379
4.009497869018204596614 6318.80034253463236382 4.009497869018204596614 2496.60665366040348090
5.009497869018190385759 6827.43732390046352521 5.009497869018190385759 2245.89213758073219651
6.009497869018190385759 7195.22907400099393271 6.009497869018190385759 2006.81583456565908818
7.009497869018204596614 7470.15418377684636653 7.009497869018204596614 1797.21605248236960506
8.009497869018190385759 7681.94657115931568114 8.009497869018190385759 1621.14494330638990505
9.009497869018204596614 7849.58268713157394814 9.009497869018204596614 1477.79347889754649259
10.009497869018190385759 7985.50491696962490096 10.009497869018190385759 1362.37379240498808031
11.009497869018190385759 8098.09257748655727482 11.009497869018190385759 1264.84786999982452471
12.009497869018204596614 8193.11783950165408896 12.009497869018204596614 1184.87145925338313646
13.009497869018190385759 8274.64862978801102145 13.009497869018190385759 1119.08288876685514879
14.009497869018204596614 8345.61101621442867327 14.009497869018204596614 1064.71702983723253055
15.009497869018190385759 8408.15016302661388181 15.009497869018190385759 1019.54021545654677539
16.009497869018190385759 8463.86685718887747498 16.009497869018190385759 981.76876146435824921
17.009497869018204596614 8513.97561934764780744 17.009497869018204596614 950.82700424758866120
18.009497869018190385759 8559.41241321242159756 18.009497869018190385759 923.76843907925081112
19.009497869018204596614 8600.91098374717512343 19.009497869018204596614 901.80266313152867497
20.009497869018190385759 8639.04975779410597170 20.009497869018190385759 881.84315631304139060
21.009497869018190385759 8674.29365440734000003 21.009497869018190385759 864.63124125882620774
22.009497869018204596614 8707.02305195512235514 22.009497869018204596614 849.68803381880707093
23.009497869018190385759 8737.54594428391101246 23.009497869018190385759 837.03771816828827923
24.009497869018204596614 8766.12071621223913098 24.009497869018204596614 825.52052504706216496
25.009497869018204596614 8792.96280185703471943 25.009497869018204596614 815.34585090617031256
26.009497869018190385759 8818.25364894302947505 26.009497869018190385759 806.74445795123995140
27.009497869018204596614 8842.14898347084817942 27.009497869018204596614 798.61783260653453453
28.009497869018190385759 8864.78102068337830133 28.009497869018190385759 791.33529098446615535
29.009497869018190385759 8886.26516272749358905 29.009497869018190385759 784.96554795163422114
30.009497869018190385759 8906.70120837930699054 30.009497869018190385759 779.00029658247581210
31.009497869018218807469 8926.17627405728126178 31.009497869018218807469 773.57623287901037656
32.009497869018190385759 8944.76818834570440231 32.009497869018190385759 768.62951021119476991
33.009497869018190385759 8962.54386599499412114 33.009497869018190385759 764.28175989923443012
34.009497869018218807469 8979.56510952613280097 34.009497869018218807469 760.08389721452533649
35.009497869018190385759 8995.88513246851471195 35.009497869018190385759 756.31275963286020669
36.009497869018190385759 9011.55248587268579286 36.009497869018190385759 752.71480402522240638
37.009497869018190385759 9026.61153259240381885 37.009497869018190385759 749.37180110763461016
38.009497869018218807469 9041.10093781796786061 38.009497869018218807469 746.25934925580645540
39.009497869018190385759 9055.05681669708974368 39.009497869018190385759 743.40572600649261403
40.009497869018190385759 9068.51202386387194565 40.009497869018190385759 740.83718909678032105
41.009497869018218807469 9081.49577070819213986 41.009497869018218807469 738.19703333798736367
42.009497869018190385759 9094.03544160537239804 42.009497869018190385759 735.81865548491020945
43.009497869018190385759 9106.15629307870403863 43.009497869018190385759 733.47859421447628847
44.009497869018218807469 9117.88084901082947908 44.009497869018218807469 731.35167871378189375
46.009497869018190385759 9140.22460855712779448 46.009497869018190385759 727.40511676368089411
48.009497869018218807469 9161.21783327539560560 48.009497869018218807469 723.76784256486121194
50.009497869018190385759 9180.99042363584521809 50.009497869018190385759 720.50632180122750015
52.009497869018190385759 9199.65477634345552360 52.009497869018190385759 717.50990382324937400
54.009497869018218807469 9217.30925959310843609 54.009497869018218807469 714.70752575820654329
56.009497869018190385759 9234.03984315558227536 56.009497869018190385759 712.11686918118414269
58.009497869018218807469 9249.92269615817349404 58.009497869018218807469 709.79880328472427209
60.009497869018190385759 9265.02516229154934990 60.009497869018190385759 707.54418842998063610
62.009497869018190385759 9279.40725897084666940 62.009497869018190385759 705.43791078657966409
64.009497869018218807469 9293.12276958872098476 64.009497869018218807469 703.46256761658787582
66.009497869018190385759 9306.21973702177820087 66.009497869018190385759 701.62420568903314688
68.009497869018190385759 9318.74176172766601667 68.009497869018190385759 699.90509744850635343
70.009497869018190385759 9330.72795683596814342 70.009497869018190385759 698.24423687263345073
72.009497869018190385759 9342.21394564730144339 72.009497869018190385759 696.68712881948806626
74.009497869018218807469 9353.23216134560425417 74.009497869018218807469 695.20068973925208411
76.009497869018190385759 9363.81200071575403854 76.009497869018190385759 693.78676703165729123
78.009497869018190385759 9373.98048468706474523 78.009497869018190385759 692.44606174709338120
80.009497869018218807469 9383.76233457236048707 80.009497869018218807469 691.16164384784508457
82.009497869018190385759 9393.18016214276030951 82.009497869018190385759 689.93192147759316413
84.009497869018218807469 9402.25489079158978711 84.009497869018218807469 688.74464341493489883
86.009497869018190385759 9411.00579725801253517 86.009497869018190385759 687.62143142457830436
88.009497869018190385759 9419.45060286034640740 88.009497869018190385759 686.53127345418124605
91.009497869018218807469 9431.57957888816417835 91.009497869018218807469 684.98287563415340173
94.009497869018218807469 9443.10723578850047488 94.009497869018218807469 683.51905167781637829
97.009497869018218807469 9454.07880065734570962 97.009497869018218807469 682.14440091825292711
99.504748934509137825444 9462.81028420396796719 99.504748934509137825444 680.85938818760416780
nan nan nan nan

