Time Pressure difference Time.1 Pressure.1 difference.1
(hr) (psi) (hr) (psi)
0.000200000000020850166 0.51732928761252361 0.000200000000020850166 0.41233829496430657
0.000399999999999067768 1.03447458881164600 0.000399999999999067768 1.07983193366339880
0.000600000000019917934 1.55146474769111609 0.000600000000019917934 1.58014464554039513
0.000799999999998135536 2.06831207904493430 0.000799999999998135536 2.08964107051194681
0.001007140329434719206 2.60347058004972531 0.001007140329434719206 2.62465985056745366
0.001267914553977789183 3.27700000494784183 0.001267914553977789183 3.30319217477903360
0.001596209851982166583 4.12462682387802371 0.001596209851982166583 4.15686376360067111
0.002009509145224797066 5.19127487696812562 0.002009509145224797066 5.23073391933776044
0.002529822128153114136 6.53341869935812625 0.002529822128153114136 6.58137612563584629
0.003184857364431081805 8.22203120933003895 0.003184857364431081805 8.27977796464806559
0.004009497869034817086 10.34627164365460139 0.004009497869034817086 10.41494837005197205
0.005047658755856332391 13.01809310200179581 0.005047658755856332391 13.09839205615605984
0.006354625877790454069 16.37798891092957021 0.006354625877790454069 16.46963991141389272
0.008000000000009777068 20.60214366127792829 0.008000000000009777068 20.70305399657902967
0.010071403294361402914 25.91130811502344855 0.010071403294361402914 26.01615335905983883
0.012679145539692626699 32.58177612503796894 0.012679145539692626699 32.67972646058878894
0.015962098519750611558 40.95890345457483050 0.015962098519750611558 41.02999789431094513
0.020095091452091651263 51.47366724988012265 0.020095091452091651263 51.48308545774006006
0.025298221281360611101 64.66281065200134037 0.025298221281360611101 64.55189363140794967
0.031848573644296607199 81.19313223462177120 0.031848573644296607199 80.86540292368862026
0.040094978690191851456 101.89043643197366862 0.040094978690191851456 101.18997462974466828
0.050476587558435426217 127.77351485185926094 0.050476587558435426217 126.45171564917148999
0.063546258777947173257 160.09321290425796747 0.063546258777947173257 157.75802515583933427
0.080000000000012505552 200.37605471284840064 0.080000000000012505552 196.41502584293510836
0.100714032943542974863 250.47091631952093849 0.100714032943542974863 243.93548619348456441
0.126791455396883634421 312.59567219314783415 0.126791455396883634421 302.02887030355930165
0.159620985197506115583 389.37836776656132542 0.159620985197506115583 372.56113938922891293
0.200950914520774404082 483.88403625879180936 0.200950914520774404082 457.46682080656108838
0.252982212813464002465 599.61354045976725047 0.252982212813464002465 558.58988359560009940
0.318485736442809752589 740.45464856176738522 0.318485736442809752589 677.42394490388255690
0.400949786901833249431 910.55812622283940527 0.400949786901833249431 814.71838338469353857
0.504765875584169521062 1114.10384741069128722 0.504765875584169521062 969.91981818937040316
0.635462587779443310865 1354.91626538491618703 0.635462587779443310865 1140.43801104400472468
0.800000000000011368684 1635.89061632704965632 0.800000000000011368684 1320.77934659567654307
1.007140329435344483500 1958.21167470950604184 1.007140329435344483500 1501.70381429968188058
1.267914553968907398485 2320.40224097900363631 1.267914553968907398485 1669.74645601071642886
1.596209851975117999245 2717.34493622842092009 1.596209851975117999245 1807.65980991573837855
2.009509145207687197399 3139.57365607863948753 2.009509145207687197399 1896.42281942889826496
2.529822128134725289783 3573.27132879004466304 2.529822128134725289783 1919.15245975333118622
3.184857364427983839050 4001.40777097692762254 3.184857364427983839050 1866.34573039529550442
4.009497869018204596614 4406.15898324724366830 4.009497869018204596614 1740.90733024301675869
5.009497869018190385759 4760.83634020861882163 5.009497869018190385759 1566.08173719194564910
6.009497869018190385759 5017.30099106347370252 6.009497869018190385759 1399.37157970834073240
7.009497869018204596614 5209.00885909102998994 7.009497869018204596614 1253.21567785205593282
8.009497869018190385759 5356.69368527028564131 8.009497869018190385759 1130.43963535490411232
9.009497869018204596614 5473.58792757380979310 9.009497869018204596614 1030.47930927609195351
10.009497869018190385759 5568.36777842500760016 10.009497869018190385759 949.99607497298507042
11.009497869018190385759 5646.87621434600805514 11.009497869018190385759 881.99033087431701006
12.009497869018204596614 5713.13822440586045559 12.009497869018204596614 826.22202651973577758
13.009497869018190385759 5769.99041225128166843 13.009497869018190385759 780.34703678585651687
14.009497869018204596614 5819.47315256207912171 14.009497869018204596614 742.43721138874286680
15.009497869018190385759 5863.08228856788537087 15.009497869018190385759 710.93499328920631797
16.009497869018190385759 5901.93406409358976816 16.009497869018190385759 684.59660272514668122
17.009497869018204596614 5936.87537582313507301 17.009497869018204596614 663.02062403811680724
18.009497869018190385759 5968.55888006516397581 18.009497869018190385759 644.15243173463454696
19.009497869018204596614 5997.49622409276071267 19.009497869018204596614 628.83548931368932244
20.009497869018190385759 6024.09075039006074803 20.009497869018190385759 614.91753724967679773
21.009497869018190385759 6048.66665139166525478 21.009497869018190385759 602.91550679707393101
22.009497869018204596614 6071.48916851579178910 22.009497869018204596614 592.49546752836101859
23.009497869018190385759 6092.77306877196588175 23.009497869018190385759 583.67428329672122800
24.009497869018204596614 6112.69852632736910891 24.009497869018204596614 575.64323607541780348
25.009497869018204596614 6131.41576542048733245 25.009497869018204596614 568.54833998165690900
26.009497869018190385759 6149.05131125848129159 26.009497869018190385759 562.55050767451928095
27.009497869018204596614 6165.71375304805769701 27.009497869018204596614 556.88373529289731323
28.009497869018190385759 6181.49528572316285135 28.009497869018190385759 551.80555043984077201
29.009497869018190385759 6196.47638028755682171 29.009497869018190385759 547.36386863891982557
30.009497869018190385759 6210.72662736763413704 30.009497869018190385759 543.20424268419287728
31.009497869018218807469 6224.30677406236463867 31.009497869018218807469 539.42199198513958436
32.009497869018190385759 6237.27109097648917668 32.009497869018190385759 535.97259568538470376
33.009497869018190385759 6249.66623839561179921 33.009497869018190385759 532.94086844991454655
34.009497869018218807469 6261.53531179961282760 34.009497869018218807469 530.01365926842458975
35.009497869018190385759 6272.91541748364943487 35.009497869018190385759 527.38400951977473596
36.009497869018190385759 6283.84041055247780605 36.009497869018190385759 524.87512119247571718
37.009497869018190385759 6294.34122564178778703 37.009497869018190385759 522.54401377684837371
38.009497869018218807469 6304.44482435288773559 38.009497869018218807469 520.37367179048385424
39.009497869018190385759 6314.17639011837309226 39.009497869018190385759 518.38381342605202917
40.009497869018190385759 6323.55883278400142444 40.009497869018190385759 516.59274845089385053
41.009497869018218807469 6332.61252172701279051 41.009497869018218807469 514.75174297783416932
42.009497869018190385759 6341.35655233020315791 42.009497869018190385759 513.09327770360334853
43.009497869018190385759 6349.80853620510424662 43.009497869018190385759 511.46153094327837607
44.009497869018218807469 6357.98417946719291649 44.009497869018218807469 509.97841273539501117
46.009497869018190385759 6373.56469341091269598 46.009497869018190385759 507.22643792265637330
48.009497869018218807469 6388.20346670100479969 48.009497869018218807469 504.69013237146145912
50.009497869018190385759 6401.99108015862748289 50.009497869018190385759 502.41584322910716764
52.009497869018190385759 6415.00590906460729457 52.009497869018190385759 500.32641275567391403
54.009497869018218807469 6427.31654648757103132 54.009497869018218807469 498.37228814081214523
56.009497869018190385759 6438.98293995826497849 56.009497869018190385759 496.56579891333694832
58.009497869018218807469 6450.05820292643875291 58.009497869018218807469 494.94938973441537655
60.009497869018190385759 6460.58929478177469719 60.009497869018190385759 493.37722556440348853
62.009497869018190385759 6470.61806623303345987 62.009497869018190385759 491.90849832875852599
64.009497869018218807469 6480.18202094639582356 64.009497869018218807469 490.53107293443690651
66.009497869018190385759 6489.31465967213716795 66.009497869018190385759 489.24916585042450379
68.009497869018190385759 6498.04638541996337153 68.009497869018190385759 488.05041548539344376
70.009497869018190385759 6506.40447214346659166 70.009497869018190385759 486.89228176544617099
72.009497869018190385759 6514.41376030562969390 72.009497869018190385759 485.80649565663856038
74.009497869018218807469 6522.09686587103715283 74.009497869018218807469 484.76998768813325569
76.009497869018190385759 6529.47428749461778352 76.009497869018190385759 483.78404606916006969
78.009497869018190385759 6536.56486712483547308 78.009497869018190385759 482.84915964875784766
80.009497869018218807469 6543.38584316592732648 80.009497869018218807469 481.95352295219697680
82.009497869018190385759 6549.95298301883030945 82.009497869018190385759 481.09602596307507838
84.009497869018218807469 6556.28087676274390105 84.009497869018218807469 480.26812578933805753
86.009497869018190385759 6562.38296624942177004 86.009497869018190385759 479.48489949112962449
88.009497869018190385759 6568.27160872100466804 88.009497869018190385759 478.72472207231015773
91.009497869018218807469 6576.72925792425758118 91.009497869018218807469 477.64500969108007666
94.009497869018218807469 6584.76760163727249164 94.009497869018218807469 476.62427146143699019
97.009497869018218807469 6592.41817713998716499 97.009497869018218807469 475.66571454165176647
99.504748934509137825444 6598.50672284178108384 99.504748934509137825444 474.76966306355359393
nan nan nan nan

