Time Pressure difference Time.1 Pressure.1 difference.1
(hr) (psi) (hr) (psi)
0.000200000000020850166 0.89160288797528187 0.000200000000020850166 0.71065378167481774
0.000399999999999067768 1.78288868039563408 0.000399999999999067768 1.86106082457743360
0.000600000000019917934 2.67390708926829035 0.000600000000019917934 2.72333610935579351
0.000799999999998135536 3.56467933880413090 0.000799999999998135536 3.60143927265081487
0.001007140329434719206 4.48701038876737268 0.001007140329434719206 4.52352951737670406
0.001267914553977789183 5.64781994421878863 0.001267914553977789183 5.69296143305968538
0.001596209851982166583 7.10868159999556415 0.001596209851982166583 7.16424108453363306
0.002009509145224797066 8.94702036673606216 0.002009509145224797066 9.01502694779755487
0.002529822128153114136 11.26016856223779961 0.002529822128153114136 11.34282187569393585
0.003184857364431081805 14.17044607138553225 0.003184857364431081805 14.26997102588862631
0.004009497869034817086 17.83151640192561871 0.004009497869034817086 17.94987886285484535
0.005047658755856332391 22.43632766132785150 0.005047658755856332391 22.57472071414677828
0.006354625877790454069 28.22701625806511316 0.006354625877790454069 28.38497425246895745
0.008000000000009777068 35.50723151911566333 0.008000000000009777068 35.68114772400758739
0.010071403294361402914 44.65743134936517578 0.010071403294361402914 44.83812926191662740
0.012679145539692626699 56.15380065279855870 0.012679145539692626699 56.32261537902119386
0.015962098519750611558 70.59155064839906402 0.015962098519750611558 70.71407997218864239
0.020095091452091651263 88.71345866860367835 0.020095091452091651263 88.72969069243946194
0.025298221281360611101 111.44458684717915276 0.025298221281360611101 111.25342439368057512
0.031848573644296607199 139.93414430147029748 0.031848573644296607199 139.36931179130900205
0.040094978690191851456 175.60538240365880824 0.040094978690191851456 174.39815563197151960
0.050476587558435426217 220.21416064500502330 0.050476587558435426217 217.93607584551745049
0.063546258777947173257 275.91627690251533522 0.063546258777947173257 271.89164464157516932
0.080000000000012505552 345.34265378162933757 0.080000000000012505552 338.51592878396536435
0.100714032943542974863 431.67977860856348116 0.100714032943542974863 420.41614340742029299
0.126791455396883634421 538.75009741327085067 0.126791455396883634421 520.53850315983208930
0.159620985197506115583 671.08297467162981320 0.159620985197506115583 642.09894119815658087
0.200950914520774404082 833.96091136563472901 0.200950914520774404082 788.43156254764232926
0.252982212813464002465 1033.41754883098133178 0.252982212813464002465 962.71439745093789497
0.318485736442809752589 1276.15334928973425122 0.318485736442809752589 1167.52165423948895295
0.400949786901833249431 1569.32204390817332751 0.400949786901833249431 1404.14486654082224959
0.504765875584169521062 1920.12753122871572486 0.504765875584169521062 1671.63029758682500869
0.635462587779443310865 2335.16115191741209856 0.635462587779443310865 1965.51374250670892252
0.800000000000011368684 2819.41276640288970157 0.800000000000011368684 2276.32710538676064971
1.007140329435344483500 3374.92430110705890911 1.007140329435344483500 2588.14548059366370580
1.267914553968907398485 3999.14984297345972664 1.267914553968907398485 2877.76238077731204612
1.596209851975117999245 4683.26972931972250080 1.596209851975117999245 3115.45227689657804149
2.009509145207687197399 5410.96938796833001106 2.009509145207687197399 3268.43289779385668226
2.529822128134725289783 6158.43547341306748422 2.529822128134725289783 3307.60681166490485339
3.184857364427983839050 6896.31693004383578227 3.184857364427983839050 3216.59585688706874862
4.009497869018204596614 7593.89458205955816084 4.009497869018204596614 3000.40620260532796237
5.009497869018190385759 8205.17131302836060058 5.009497869018190385759 2699.09907117325656145
6.009497869018190385759 8647.18112929267408617 6.009497869018190385759 2411.77867113720458292
7.009497869018204596614 8977.58440023405819375 7.009497869018204596614 2159.88296890257879568
8.009497869018190385759 9232.11516175200267753 8.009497869018190385759 1948.28181527404717599
9.009497869018204596614 9433.57919350341398967 9.009497869018204596614 1776.00292531184959444
10.009497869018190385759 9596.92967599937037448 10.009497869018190385759 1637.29227069299031427
11.009497869018190385759 9732.23681958025736094 11.009497869018190385759 1520.08622941682938290
12.009497869018204596614 9846.43758289884681290 12.009497869018204596614 1423.97108107581470904
13.009497869018190385759 9944.42077481249725679 13.009497869018190385759 1344.90679008752135815
14.009497869018204596614 10029.70292531599625363 14.009497869018204596614 1279.57024213622548814
15.009497869018190385759 10104.86207933243349544 15.009497869018190385759 1225.27703023477374700
16.009497869018190385759 10171.82205258573776518 16.009497869018190385759 1179.88353395716603700
17.009497869018204596614 10232.04244836398720508 17.009497869018204596614 1142.69792438723652594
18.009497869018190385759 10286.64810197726001206 18.009497869018190385759 1110.17911064232839635
19.009497869018204596614 10336.52082351678473060 19.009497869018204596614 1083.78077901008828121
20.009497869018190385759 10382.35576273013612081 20.009497869018190385759 1059.79356902195104340
21.009497869018190385759 10424.71165641779043654 21.009497869018190385759 1039.10839756666132416
22.009497869018204596614 10464.04564091467727849 22.009497869018204596614 1021.14974467910451494
23.009497869018190385759 10500.72786129187807092 23.009497869018190385759 1005.94667474933305584
24.009497869018204596614 10535.06884280215308536 24.009497869018204596614 992.10538436149170138
25.009497869018204596614 10567.32749281472933944 25.009497869018204596614 979.87752485584587703
26.009497869018190385759 10597.72187406606281002 26.009497869018190385759 969.54042480238706503
27.009497869018204596614 10626.43913708604304702 27.009497869018204596614 959.77389748229256838
28.009497869018190385759 10653.63817732352254097 28.009497869018190385759 951.02178468088311547
29.009497869018190385759 10679.45768435411628161 29.009497869018190385759 943.36666749344385607
30.009497869018190385759 10704.01759572042465152 30.009497869018190385759 936.19766584799788234
31.009497869018218807469 10727.42260738722688984 31.009497869018218807469 929.67906014159098049
32.009497869018190385759 10749.76625325851637172 32.009497869018190385759 923.73411989506814734
33.009497869018190385759 10771.12895106124778977 33.009497869018190385759 918.50902086544761005
34.009497869018218807469 10791.58497467714732920 34.009497869018218807469 913.46405584525916765
35.009497869018190385759 10811.19827579175580468 35.009497869018190385759 908.93192637491722508
36.009497869018190385759 10830.02720275282445073 36.009497869018190385759 904.60792591372023708
37.009497869018190385759 10848.12507055948117340 37.009497869018190385759 900.59032599482554815
38.009497869018218807469 10865.53834679468855029 38.009497869018218807469 896.84980089935481828
39.009497869018190385759 10882.31043441623296530 39.009497869018190385759 893.42033439345300394
40.009497869018190385759 10898.48081791711956612 40.009497869018190385759 890.33348286070463473
41.009497869018218807469 10914.08460336231109977 41.009497869018218807469 887.16056024475597042
42.009497869018190385759 10929.15470112215189147 42.009497869018190385759 884.30224067244819253
43.009497869018190385759 10943.72146432776935399 43.009497869018190385759 881.48996972860834376
44.009497869018218807469 10957.81196203992294613 44.009497869018218807469 878.93385603270655793
46.009497869018190385759 10984.66455198793846648 46.009497869018190385759 874.19090265769727921
48.009497869018218807469 11009.89407765832402220 48.009497869018218807469 869.81964936046108505
50.009497869018190385759 11033.65665262065704155 50.009497869018190385759 865.89997418264113094
52.009497869018190385759 11056.08735452935434296 52.009497869018190385759 862.29889786829971854
54.009497869018218807469 11077.30440166346670594 54.009497869018218807469 858.93101750313610410
56.009497869018190385759 11097.41111195379198762 56.009497869018190385759 855.81758269308227227
58.009497869018218807469 11116.49902497932816914 58.009497869018218807469 853.03174565159690701
60.009497869018190385759 11134.64907396473245171 60.009497869018190385759 850.32216367369869658
62.009497869018190385759 11151.93338746271911077 62.009497869018190385759 847.79085242512724108
64.009497869018218807469 11168.41660201693957788 64.009497869018218807469 845.41689740468859782
66.009497869018190385759 11184.15645525487161649 66.009497869018190385759 843.20756558143898474
68.009497869018190385759 11199.20534593279990077 68.009497869018190385759 841.14155209058162654
70.009497869018190385759 11213.61027996430129861 70.009497869018190385759 839.14554027742485687
72.009497869018190385759 11227.41406920841654937 72.009497869018190385759 837.27421759472110807
74.009497869018218807469 11240.65569166198110906 74.009497869018218807469 835.48782443999800762
76.009497869018190385759 11253.37047619651093555 76.009497869018190385759 833.78858100665536313
78.009497869018190385759 11265.59089639521698700 78.009497869018190385759 832.17732981265032777
80.009497869018218807469 11277.34666217664744181 80.009497869018218807469 830.63372444494393676
82.009497869018190385759 11288.66494822537970322 82.009497869018190385759 829.15585182060533498
84.009497869018218807469 11299.57090014415189216 84.009497869018218807469 827.72898849866624005
86.009497869018190385759 11310.08768459707243892 86.009497869018190385759 826.37911938021056812
88.009497869018190385759 11320.23659895324271929 88.009497869018190385759 825.06897437542852458
91.009497869018218807469 11334.81312619743403047 91.009497869018218807469 823.20811959620220932
94.009497869018218807469 11348.66699188931852404 94.009497869018218807469 821.44890515540259912
97.009497869018218807469 11361.85254966891625372 97.009497869018218807469 819.79685850265389035
99.504748934509137825444 11372.34599177876043541 99.504748934509137825444 818.25253827030462617
nan nan nan nan

