Time Pressure difference Time.1 Pressure.1 difference.1
(hr) (psi) (hr) (psi)
0.000200000000020850166 0.77433049319495095 0.000200000000020850166 0.61718159583885757
0.000399999999999067768 1.54838559836598444 0.000399999999999067768 1.61627577209103590
0.000600000000019917934 2.32220848890744236 0.000600000000019917934 2.36513611736030205
0.000799999999998135536 3.09581759741291629 0.000799999999998135536 3.12774250264730247
0.001007140329434719206 3.89683458203584276 0.001007140329434719206 3.92855035510980510
0.001267914553977789183 4.90496302991389133 0.001267914553977789183 4.94416706546508067
0.001596209851982166583 6.17367777014540220 0.001596209851982166583 6.22192952397463817
0.002009509145224797066 7.77022011327544160 0.002009509145224797066 7.82928179888015219
0.002529822128153114136 9.77912027186883570 0.002529822128153114136 9.85090220734240063
0.003184857364431081805 12.30660941460814506 0.003184857364431081805 12.39304386669991764
0.004009497869034817086 15.48613971100069975 0.004009497869034817086 15.58893397510994916
0.005047658755856332391 19.48528083273902212 0.005047658755856332391 19.60547106797635664
0.006354625877790454069 24.51432102262930712 0.006354625877790454069 24.65150282560503925
0.008000000000009777068 30.83697065699317363 0.008000000000009777068 30.98801168941330531
0.010071403294361402914 38.78364606927143399 0.010071403294361402914 38.94057681235484125
0.012679145539692626699 48.76789963410024598 0.012679145539692626699 48.91451018457903643
0.015962098519750611558 61.30665452766746171 0.015962098519750611558 61.41306758778696917
0.020095091452091651263 77.04499069073698081 0.020095091452091651263 77.05908771890031517
0.025298221281360611101 96.78629697269010990 0.025298221281360611101 96.62027808816847596
0.031848573644296607199 121.52862718719110546 0.031848573644296607199 121.03808701278792626
0.040094978690191851456 152.50803266586413542 0.040094978690191851456 151.45959225127376158
0.050476587558435426217 191.24942496315267704 0.050476587558435426217 189.27097631732905825
0.063546258777947173257 239.62505018306137572 0.063546258777947173257 236.12977720271129556
0.080000000000012505552 299.91978607341133056 0.080000000000012505552 293.99097919577587845
0.100714032943542974863 374.90100175799676663 0.100714032943542974863 365.11887081372043440
0.126791455396883634421 467.88837751096565398 0.126791455396883634421 452.07215153153327947
0.159620985197506115583 582.81553117470832603 0.159620985197506115583 557.64376329802598775
0.200950914520774404082 724.27015716549067292 0.200950914520774404082 684.72927680210352719
0.252982212813464002465 897.49229287466766891 0.252982212813464002465 836.08871644293219560
0.318485736442809752589 1108.30108972830453240 0.318485736442809752589 1013.95770531433220185
0.400949786901833249431 1362.90934970010198413 0.400949786901833249431 1219.45790181856864365
0.504765875584169521062 1667.57344363240144958 0.504765875584169521062 1451.76101404228916181
0.635462587779443310865 2028.01775413723021302 0.635462587779443310865 1706.99001331506178758
0.800000000000011368684 2448.57582604579283725 0.800000000000011368684 1976.92214096555471770
1.007140329435344483500 2931.02101150249245620 1.007140329435344483500 2247.72709182154949303
1.267914553968907398485 3473.14226101519670920 1.267914553968907398485 2499.25072435044558006
1.596209851975117999245 4067.27996081778155713 1.596209851975117999245 2705.67730390924816675
2.009509145207687197399 4699.26539197622696520 2.009509145207687197399 2838.53640657283676774
2.529822128134725289783 5348.41737476452090050 2.529822128134725289783 2872.55778139927861048
3.184857364427983839050 5989.24539353620457405 3.184857364427983839050 2793.51748391964656548
4.009497869018204596614 6595.07076109836634714 4.009497869018204596614 2605.76322259847029272
5.009497869018190385759 7125.94635487817413377 5.009497869018190385759 2344.08697319244583923
6.009497869018190385759 7509.81868598085839039 6.009497869018190385759 2094.55778248949445697
7.009497869018204596614 7796.76406400924315676 7.009497869018204596614 1875.79388437341481222
8.009497869018190385759 8017.81643245439772727 8.009497869018190385759 1692.02459889938245396
9.009497869018204596614 8192.78193017880585103 9.009497869018204596614 1542.40552562064544873
10.009497869018190385759 8334.64694809273532883 10.009497869018190385759 1421.93946270072183324
11.009497869018190385759 8452.15716327352674853 11.009497869018190385759 1320.14951454017545984
12.009497869018204596614 8551.33711723771193647 12.009497869018204596614 1236.67637731491004160
13.009497869018190385759 8636.43259454331564484 13.009497869018190385759 1168.01140071966619871
14.009497869018204596614 8710.49759651976819441 14.009497869018204596614 1111.26855916868112217
15.009497869018190385759 8775.77107822620746447 15.009497869018190385759 1064.11652532516268366
16.009497869018190385759 8833.92381619153093197 16.009497869018190385759 1024.69362883779990625
17.009497869018204596614 8886.22343230118713109 17.009497869018204596614 992.39903694451243155
18.009497869018190385759 8933.64681244480198075 18.009497869018190385759 964.15741791791754167
19.009497869018204596614 8976.95978236392511462 19.009497869018204596614 941.23125490521658776
20.009497869018190385759 9016.76605886358083808 20.009497869018190385759 920.39907906663847825
21.009497869018190385759 9053.55088817627074604 21.009497869018190385759 902.43462512552378030
22.009497869018204596614 9087.71127956302552775 22.009497869018204596614 886.83807117187154745
23.009497869018190385759 9119.56869296897093591 23.009497869018190385759 873.63465876084808315
24.009497869018204596614 9149.39281030672282213 24.009497869018204596614 861.61391123185535434
25.009497869018204596614 9177.40848489786731079 25.009497869018204596614 850.99438026193331552
26.009497869018190385759 9203.80509771968718269 26.009497869018190385759 842.01691743565515935
27.009497869018204596614 9228.74518342080773436 27.009497869018204596614 833.53497999628200432
28.009497869018190385759 9252.36673795540991705 28.009497869018190385759 825.93403128535658198
29.009497869018190385759 9274.79020907992889988 29.009497869018190385759 819.28579051902636365
30.009497869018190385759 9296.11975896988224122 30.009497869018190385759 813.05972659000565272
31.009497869018218807469 9316.44631294543614786 31.009497869018218807469 807.39851211923621577
32.009497869018190385759 9335.85110241014808707 32.009497869018190385759 802.23550897603399790
33.009497869018190385759 9354.40396775934823381 33.009497869018190385759 797.69766644191395244
34.009497869018218807469 9372.16941364218473609 34.009497869018218807469 793.31626491785095823
35.009497869018190385759 9389.20298018854919064 35.009497869018190385759 789.38024576030591106
36.009497869018190385759 9405.55534119671574445 36.009497869018190385759 785.62498043439700268
37.009497869018190385759 9421.27279915193685156 37.009497869018190385759 782.13581483319262588
38.009497869018218807469 9436.39570976292452542 38.009497869018218807469 778.88728044524191318
39.009497869018190385759 9450.96176720290350204 39.009497869018190385759 775.90889115700076673
40.009497869018190385759 9465.00526257541059749 40.009497869018190385759 773.22805274563052080
41.009497869018218807469 9478.55668444991897559 41.009497869018218807469 770.47246416778716593
42.009497869018190385759 9491.64461450067574333 42.009497869018190385759 767.99009894221012473
43.009497869018190385759 9504.29541351600164489 43.009497869018190385759 765.54772557587159554
44.009497869018218807469 9516.53259016713309393 44.009497869018218807469 763.32781713288227365
46.009497869018190385759 9539.85326296713719785 46.009497869018190385759 759.20870370738452948
48.009497869018218807469 9561.76435289169785392 48.009497869018218807469 755.41240070390779238
50.009497869018190385759 9582.40143991588774952 50.009497869018190385759 752.00827981720055959
52.009497869018190385759 9601.88183495039993431 52.009497869018190385759 748.88085253301028388
54.009497869018218807469 9620.30820704168581869 54.009497869018218807469 745.95594896960790265
56.009497869018190385759 9637.77028472852907726 56.009497869018190385759 743.25202377542882459
58.009497869018218807469 9654.34756740275588527 58.009497869018218807469 740.83260746421331078
60.009497869018190385759 9670.11034315407050599 60.009497869018190385759 738.47941639945292991
62.009497869018190385759 9685.12125347741857695 62.009497869018190385759 736.28104814159837588
64.009497869018218807469 9699.43643328150210436 64.009497869018218807469 734.21933907067636937
66.009497869018190385759 9713.10602597228353261 66.009497869018190385759 732.30060033238783035
68.009497869018190385759 9726.17553830544238735 68.009497869018190385759 730.50632928762263418
70.009497869018190385759 9738.68579351377411513 70.009497869018190385759 728.77285261033830466
72.009497869018190385759 9750.67397241887738346 72.009497869018190385759 727.14766472078849802
74.009497869018218807469 9762.17392624748572416 74.009497869018218807469 725.59623559108035806
76.009497869018190385759 9773.21633706991815416 76.009497869018190385759 724.12049339290683747
78.009497869018190385759 9783.82940722382954846 78.009497869018190385759 722.72116982796399043
80.009497869018218807469 9794.03893888662241807 80.009497869018218807469 721.38059464388322795
82.009497869018190385759 9803.86853246066129941 82.009497869018190385759 720.09710638524575188
84.009497869018218807469 9813.34002615131066705 84.009497869018218807469 718.85791818307677659
86.009497869018190385759 9822.47353951480909018 86.009497869018190385759 717.68559714829859786
88.009497869018190385759 9831.28756868047457829 88.009497869018190385759 716.54777532045136468
91.009497869018218807469 9843.94684747183964646 91.009497869018218807469 714.93167849259725699
94.009497869018218807469 9855.97851627700947574 94.009497869018218807469 713.40385326462671856
97.009497869018218807469 9867.42977960985081154 97.009497869018218807469 711.96910006153984796
99.504748934509137825444 9876.54302084517439653 99.504748934509137825444 710.62790403885594515
nan nan nan nan

