Time Pressure difference Time.1 Pressure.1 difference.1
(hr) (psi) (hr) (psi)
0.000200000000020850166 0.42916706174929609 0.000200000000020850166 0.34206842476138610
0.000399999999999067768 0.85818149168297309 0.000399999999999067768 0.89580912824809300
0.000600000000019917934 1.28706721834182614 0.000600000000019917934 1.31085954517499004
0.000799999999998135536 1.71583445785721245 0.000799999999998135536 1.73352860511923534
0.001007140329434719206 2.15979231399623472 0.001007140329434719206 2.17737055127460755
0.001267914553977789183 2.71854019703068550 0.001267914553977789183 2.74026874949514676
0.001596209851982166583 3.42171614328144713 0.001596209851982166583 3.44845932800312927
0.002009509145224797066 4.30658816160056723 0.002009509145224797066 4.33932267263389804
0.002529822128153114136 5.42000650943535867 0.002529822128153114136 5.45979112673327460
0.003184857364431081805 6.82084904182363339 0.003184857364431081805 6.86875471022251016
0.004009497869034817086 8.58308065615076288 0.004009497869034817086 8.64005363174729624
0.005047658755856332391 10.79957562802721327 0.005047658755856332391 10.86619019449602419
0.006354625877790454069 13.58688469138208710 0.006354625877790454069 13.66291671107647687
0.008000000000009777068 17.09116741032059750 0.008000000000009777068 17.17488080745141232
0.010071403294361402914 21.49555464204517463 0.010071403294361402914 21.58253236860912594
0.012679145539692626699 27.02925479183214108 0.012679145539692626699 27.11051262646915561
0.015962098519750611558 33.97876878225178388 0.015962098519750611558 34.03774744929975071
0.020095091452091651263 42.70162749346967956 0.020095091452091651263 42.70944066912197457
0.025298221281360611101 53.64310337047056265 0.025298221281360611101 53.55108860740595134
0.031848573644296607199 67.35636050331966374 0.031848573644296607199 67.08448216820470122
0.040094978690191851456 84.52647138086560119 0.040094978690191851456 83.94538088255345087
0.050476587558435426217 105.99860717614046735 0.050476587558435426217 104.90206635847668792
0.063546258777947173257 132.81044671800177071 0.063546258777947173257 130.87321701031044086
0.080000000000012505552 166.22836693220219217 0.080000000000012505552 162.94236870571464237
0.100714032943542974863 207.78616209143541482 0.100714032943542974863 202.36448693864633697
0.126791455396883634421 259.32374091907433922 0.126791455396883634421 250.55771234185942831
0.159620985197506115583 323.02128258447856979 0.159620985197506115583 309.07001274090373499
0.200950914520774404082 401.42148345584661229 0.200950914520774404082 379.50623719643976983
0.252982212813464002465 497.42859626565899589 0.252982212813464002465 463.39610922078730937
0.318485736442809752589 614.26784350140189872 0.318485736442809752589 561.97870670482859623
0.400949786901833249431 755.38262561251633542 0.400949786901833249431 675.87570068569436899
0.504765875584169521062 924.24049077800111718 0.504765875584169521062 804.62801637574784763
0.635462587779443310865 1124.01413655726173602 0.635462587779443310865 946.08683874390089841
0.800000000000011368684 1357.10539875362951534 0.800000000000011368684 1095.69476341377685458
1.007140329435344483500 1624.49714493586020581 1.007140329435344483500 1245.78644401709948397
1.267914553968907398485 1924.96391695364263796 1.267914553968907398485 1385.19159373236266219
1.596209851975117999245 2254.26042941135892761 1.596209851975117999245 1499.60202880469614684
2.009509145207687197399 2604.53377256684552776 2.009509145207687197399 1573.23822319181908824
2.529822128134725289783 2964.32155250106598032 2.529822128134725289783 1592.09432352527142029
3.184857364427983839050 3319.49583573005565995 3.184857364427983839050 1548.28681171056655330
4.009497869018204596614 3655.27015330478752730 4.009497869018204596614 1444.22537364211689237
5.009497869018190385759 3949.50410216663613028 5.009497869018190385759 1299.19320963190330076
6.009497869018190385759 4162.26255850281813764 6.009497869018190385759 1160.89346483843064561
7.009497869018204596614 4321.29995384400626790 7.009497869018204596614 1039.64516040459943724
8.009497869018190385759 4443.81662636570308678 8.009497869018190385759 937.79236630728394175
9.009497869018204596614 4540.78998493261406111 9.009497869018204596614 854.86707972100214192
10.009497869018190385759 4619.41764255193538702 10.009497869018190385759 788.09963775893936599
11.009497869018190385759 4684.54682733527351957 11.009497869018190385759 731.68329699541413902
12.009497869018204596614 4739.51659773862411384 12.009497869018204596614 685.41891589097053838
13.009497869018190385759 4786.68014907019551174 13.009497869018190385759 647.36185045257548154
14.009497869018204596614 4827.73013942449051683 14.009497869018204596614 615.91254192378028165
15.009497869018190385759 4863.90749341001446737 15.009497869018190385759 589.77886903091712156
16.009497869018190385759 4896.13822680432895140 16.009497869018190385759 567.92901447938209003
17.009497869018204596614 4925.12490984684518480 17.009497869018204596614 550.02997106699069718
18.009497869018190385759 4951.40897445920381870 18.009497869018190385759 534.37725848082220637
19.009497869018204596614 4975.41487400621372217 19.009497869018204596614 521.67059885187086365
20.009497869018190385759 4997.47721414995430678 20.009497869018190385759 510.12451643220782671
21.009497869018190385759 5017.86493909662294755 21.009497869018190385759 500.16784808246001148
22.009497869018204596614 5036.79808835072162765 22.009497869018204596614 491.52357113285256673
23.009497869018190385759 5054.45482875616471574 23.009497869018190385759 484.20567553232825730
24.009497869018204596614 5070.98462955775357841 24.009497869018204596614 477.54326336803154618
25.009497869018204596614 5086.51211407873233838 25.009497869018204596614 471.65746532240342503
26.009497869018190385759 5101.14224535269477201 26.009497869018190385759 466.68177163995494539
27.009497869018204596614 5114.96510703022158850 27.009497869018204596614 461.98071931050645844
28.009497869018190385759 5128.05718236841221369 28.009497869018190385759 457.76794859639522883
29.009497869018190385759 5140.48522866298935696 29.009497869018190385759 454.08320935318749889
30.009497869018190385759 5152.30697704453268670 30.009497869018190385759 450.63245856116316190
31.009497869018218807469 5163.57282221250807197 31.009497869018218807469 447.49477148606433730
32.009497869018190385759 5174.32778608339049242 32.009497869018190385759 444.63321442710366682
33.009497869018190385759 5184.61057718992924492 33.009497869018190385759 442.11814810314456281
34.009497869018218807469 5194.45694676623861596 34.009497869018218807469 439.68978807477026294
35.009497869018190385759 5203.89767752662919520 35.009497869018190385759 437.50827799389674055
36.009497869018190385759 5212.96085505639621260 36.009497869018190385759 435.42694941369370554
37.009497869018190385759 5221.67214217228774942 37.009497869018190385759 433.49310467661371149
38.009497869018218807469 5230.05390573326440062 38.009497869018218807469 431.69262804483867058
39.009497869018190385759 5238.12703746154420514 39.009497869018190385759 430.04187737595310637
40.009497869018190385759 5245.91054295264439133 40.009497869018190385759 428.55604212324959690
41.009497869018218807469 5253.42132027514344372 41.009497869018218807469 427.02877713273704785
42.009497869018190385759 5260.67521061476691102 42.009497869018190385759 425.65294420427539990
43.009497869018190385759 5267.68682424732105574 43.009497869018190385759 424.29927647384511147
44.009497869018218807469 5274.46919068339502701 44.009497869018218807469 423.06890831425050692
46.009497869018190385759 5287.39450450165804796 46.009497869018190385759 420.78591956284680009
48.009497869018218807469 5299.53856723105946003 48.009497869018218807469 418.68184614738606797
50.009497869018190385759 5310.97652308979377267 50.009497869018190385759 416.79513682671910146
52.009497869018190385759 5321.77339079957710055 52.009497869018190385759 415.06178292914427175
54.009497869018218807469 5331.98607393502697960 54.009497869018218807469 413.44067633546472962
56.009497869018190385759 5341.66430388820663211 56.009497869018190385759 411.94204540077470256
58.009497869018218807469 5350.85214262064710056 58.009497869018218807469 410.60110145170153828
60.009497869018190385759 5359.58854679645628494 60.009497869018190385759 409.29686236532506882
62.009497869018190385759 5367.90823501004069840 62.009497869018190385759 408.07843269716943269
64.009497869018218807469 5375.84231962755620771 64.009497869018218807469 406.93574539255536138
66.009497869018190385759 5383.41859226820361073 66.009497869018190385759 405.87229835822995483
68.009497869018190385759 5390.66227472138507437 68.009497869018190385759 404.87783664061578293
70.009497869018190385759 5397.59599296789201617 70.009497869018190385759 403.91706976040228483
72.009497869018190385759 5404.24035420852942480 72.009497869018190385759 403.01632115566803805
74.009497869018218807469 5410.61412024028140877 74.009497869018218807469 402.15645280880505652
76.009497869018190385759 5416.73429637817207549 76.009497869018190385759 401.33853339499449930
78.009497869018190385759 5422.61651356336915342 78.009497869018190385759 400.56296845459655742
80.009497869018218807469 5428.27507246562527143 80.009497869018218807469 399.81996437834988001
82.009497869018190385759 5433.72305343684274703 82.009497869018190385759 399.10860031663463587
84.009497869018218807469 5438.97256014401318680 84.009497869018218807469 398.42178924002962503
86.009497869018190385759 5444.03474370530693704 86.009497869018190385759 397.77203880614615628
88.009497869018190385759 5448.91985546629985038 88.009497869018190385759 397.14140930757560000
91.009497869018218807469 5455.93616895324248617 91.009497869018218807469 396.24569935787349095
94.009497869018218807469 5462.60463415567937773 94.009497869018218807469 395.39891330241391643
97.009497869018218807469 5468.95141383317240980 97.009497869018218807469 394.60371174194904142
99.504748934509137825444 5474.00236171440337785 99.504748934509137825444 393.86036357040779876
nan nan nan nan

