Time Pressure difference Time.1 Pressure.1 difference.1
(hr) (psi) (hr) (psi)
0.000200000000020850166 0.06154721428187580 0.000200000000020850166 0.04905632448128406
0.000399999999999067768 0.12307253950492252 0.000399999999999067768 0.12846875095030791
0.000600000000019917934 0.18457940728157976 0.000600000000019917934 0.18799148516075440
0.000799999999998135536 0.24606928271595685 0.000799999999998135536 0.24860681546283611
0.001007140329434719206 0.30973765743356863 0.001007140329434719206 0.31225856743085462
0.001267914553977789183 0.38986816779122230 0.001267914553977789183 0.39298427802837377
0.001596209851982166583 0.49071122985044008 0.001596209851982166583 0.49454649277564255
0.002009509145224797066 0.61761148053961623 0.002009509145224797066 0.62230596468005517
0.002529822128153114136 0.77728775522910176 0.002529822128153114136 0.78299330112066345
0.003184857364431081805 0.97818377731579242 0.003184857364431081805 0.98505397007067008
0.004009497869034817086 1.23090691580456690 0.004009497869034817086 1.23907745881647280
0.005047658755856332391 1.54877634975584044 0.005047658755856332391 1.55832960153625155
0.006354625877790454069 1.94850671930673336 0.006354625877790454069 1.95941053608461080
0.008000000000009777068 2.45105889217776030 0.008000000000009777068 2.46306430184380698
0.010071403294361402914 3.08269582075841697 0.010071403294361402914 3.09516937069200671
0.012679145539692626699 3.87628847789840858 0.012679145539692626699 3.88794173325332881
0.015962098519750611558 4.87292420520665104 0.015962098519750611558 4.88138238613988751
0.020095091452091651263 6.12387681107898540 0.020095091452091651263 6.12499730526167951
0.025298221281360611101 7.69300319654035203 0.025298221281360611101 7.67980728090705522
0.031848573644296607199 9.65963309543731619 0.031848573644296607199 9.62064279156423829
0.040094978690191851456 12.12201333756599908 0.040094978690191851456 12.03867865369952561
0.050476587558435426217 15.20135064153952698 0.050476587558435426217 15.04409478784355514
0.063546258777947173257 19.04645941304676882 0.063546258777947173257 18.76863964876545054
0.080000000000012505552 23.83895184686620539 0.080000000000012505552 23.36770403919163641
0.100714032943542974863 29.79879068753143301 0.100714032943542974863 29.02126363073610449
0.126791455396883634421 37.18983881397578273 0.126791455396883634421 35.93269518080930425
0.159620985197506115583 46.32475757994459542 0.159620985197506115583 44.32399407524588497
0.200950914520774404082 57.56819723979195658 0.200950914520774404082 54.42531308631112807
0.252982212813464002465 71.33665915437745753 0.252982212813464002465 66.45603116732220883
0.318485736442809752589 88.09267523082118601 0.318485736442809752589 80.59384553518859207
0.400949786901833249431 108.33006646381048199 0.400949786901833249431 96.92791056345228640
0.504765875584169521062 132.54611689451954248 0.504765875584169521062 115.39238994535918437
0.635462587779443310865 161.19582578534374306 0.635462587779443310865 135.67912028497804044
0.800000000000011368684 194.62364245691586007 0.800000000000011368684 157.13452033453384615
1.007140329435344483500 232.97052078537532793 1.007140329435344483500 178.65929623501040169
1.267914553968907398485 276.06071677242164242 1.267914553968907398485 198.65150762828460529
1.596209851975117999245 323.28541041945845791 1.596209851975117999245 215.05920568129363346
2.009509145207687197399 373.51840924408253386 2.009509145207687197399 225.61943510890429820
2.529822128134725289783 425.11588156023043439 2.529822128134725289783 228.32360453656994537
3.184857364427983839050 476.05172837989169921 3.184857364427983839050 222.04113191198050004
4.009497869018204596614 524.20540958246954233 4.009497869018204596614 207.11759234402450147
5.009497869018190385759 566.40175108591290609 5.009497869018190385759 186.31840603248227239
6.009497869018190385759 596.91362273102413383 6.009497869018190385759 166.48472170163540795
7.009497869018204596614 619.72131121018685462 7.009497869018204596614 149.09639897275260978
8.009497869018190385759 637.29153168810455554 8.009497869018190385759 134.48960292003681616
9.009497869018204596614 651.19856373064624222 9.009497869018204596614 122.59721685921348922
10.009497869018190385759 662.47462315667291932 10.009497869018190385759 113.02204107395641586
11.009497869018190385759 671.81485508296566422 11.009497869018190385759 104.93132553810202978
12.009497869018204596614 679.69811672995786012 12.009497869018204596614 98.29651119366631917
13.009497869018190385759 686.46188184340007865 13.009497869018190385759 92.83871498738484718
14.009497869018204596614 692.34889596397727018 14.009497869018204596614 88.32854283403050033
15.009497869018190385759 697.53712114794780064 15.009497869018190385759 84.58069051993773257
16.009497869018190385759 702.15935810759754077 16.009497869018190385759 81.44718424704316817
17.009497869018204596614 706.31636304005132843 17.009497869018204596614 78.88026716852192521
18.009497869018190385759 710.08578315887803001 18.009497869018190385759 76.63549830926518780
19.009497869018204596614 713.52848968306159350 19.009497869018204596614 74.81322541674116167
20.009497869018190385759 716.69246869592359417 20.009497869018190385759 73.15739189144065335
21.009497869018190385759 719.61628971540710609 21.009497869018190385759 71.72949759322101215
22.009497869018204596614 722.33150879448328396 22.009497869018204596614 70.48981446478893531
23.009497869018190385759 724.86367699216305027 23.009497869018190385759 69.44034881665172065
24.009497869018204596614 727.23422982029796913 24.009497869018204596614 68.48488660704327913
25.009497869018204596614 729.46103961594224074 25.009497869018204596614 67.64079929042220840
26.009497869018190385759 731.55915921724692907 26.009497869018190385759 66.92723081658269280
27.009497869018204596614 733.54150759735739484 27.009497869018204596614 66.25304889336720748
28.009497869018190385759 735.41905328539235143 28.009497869018190385759 65.64889185297141694
29.009497869018190385759 737.20137000205659206 29.009497869018190385759 65.12046025607727984
30.009497869018190385759 738.89673701801427796 30.009497869018190385759 64.62558514249239749
31.009497869018218807469 740.51238148008837925 31.009497869018218807469 64.17560676350534266
32.009497869018190385759 742.05476001971101141 32.009497869018190385759 63.76522842559239024
33.009497869018190385759 743.52942386057122803 33.009497869018190385759 63.40454061944320330
34.009497869018218807469 744.94150011763883867 34.009497869018218807469 63.05628743707946171
35.009497869018190385759 746.29540336622198993 35.009497869018190385759 62.74343521617898745
36.009497869018190385759 747.59516138405683705 36.009497869018190385759 62.44495010971576932
37.009497869018190385759 748.84445449757606639 37.009497869018190385759 62.16761578695623314
38.009497869018218807469 750.04649035709610416 38.009497869018218807469 61.90940789790322896
39.009497869018190385759 751.20426506231456187 39.009497869018190385759 61.67267233686148842
40.009497869018190385759 752.32050422189081473 40.009497869018190385759 61.45958743627998189
41.009497869018218807469 753.39763120224915838 41.009497869018218807469 61.24056106167159896
42.009497869018190385759 754.43791780134256442 42.009497869018190385759 61.04325168821004155
43.009497869018190385759 755.44345929128246553 43.009497869018190385759 60.84912104469871252
44.009497869018218807469 756.41612424529307646 44.009497869018218807469 60.67267289778011730
46.009497869018190385759 758.26975452155556923 46.009497869018190385759 60.34526753420671241
48.009497869018218807469 760.01134491298125795 48.009497869018218807469 60.04352057152436117
50.009497869018190385759 761.65167191597822693 50.009497869018190385759 59.77294597902560724
52.009497869018190385759 763.20005992086964852 52.009497869018190385759 59.52436421852068804
54.009497869018218807469 764.66466951781399075 54.009497869018218807469 59.29187993958215230
56.009497869018190385759 766.05263272815363962 56.009497869018190385759 59.07695999933590514
58.009497869018218807469 767.37026851536415961 58.009497869018218807469 58.88465408415874691
60.009497869018190385759 768.62316368786389376 60.009497869018190385759 58.69761204463964788
62.009497869018190385759 769.81629726888172627 62.009497869018190385759 58.52287600695841263
64.009497869018218807469 770.95413110937829515 64.009497869018218807469 58.35900224621917687
66.009497869018190385759 772.04065082916099527 66.009497869018190385759 58.20649240021127468
68.009497869018190385759 773.07947350655513219 68.009497869018190385759 58.06387579729761228
70.009497869018190385759 774.07384395275971656 70.009497869018190385759 57.92609139974761945
72.009497869018190385759 775.02671746401392738 72.009497869018190385759 57.79691427426246264
74.009497869018218807469 775.94078468562190665 74.009497869018218807469 57.67359982141777408
76.009497869018190385759 776.81848436431141636 76.009497869018190385759 57.55630130083255125
78.009497869018190385759 777.66205814668467156 78.009497869018190385759 57.44507687139562790
80.009497869018218807469 778.47355690398501338 80.009497869018218807469 57.33852202325172698
82.009497869018190385759 779.25485650063251342 82.009497869018190385759 57.23650469657162887
84.009497869018218807469 780.00769273383127711 84.009497869018218807469 57.13800853442285188
86.009497869018190385759 780.73366479494723080 86.009497869018190385759 57.04482727064886660
88.009497869018190385759 781.43424283819024367 88.009497869018190385759 56.95438815651278475
91.009497869018218807469 782.44045833825566660 91.009497869018218807469 56.82593362884232135
94.009497869018218807469 783.39678861922527631 94.009497869018218807469 56.70449531856323944
97.009497869018218807469 784.30698570475738052 97.009497869018218807469 56.59045478469811741
99.504748934509137825444 785.03134644741442116 99.504748934509137825444 56.48385058955460636
nan nan nan nan

