Time Pressure difference Time.1 Pressure.1 difference.1
(hr) (psi) (hr) (psi)
0.000200000000020850166 0.11893583300416539 0.000200000000020850166 0.09479803244356244
0.000399999999999067768 0.23782936688113401 0.000399999999999067768 0.24825718089045987
0.000600000000019917934 0.35668723299007976 0.000600000000019917934 0.36328084294578217
0.000799999999998135536 0.47551226254570034 0.000799999999998135536 0.48041587312412920
0.001007140329434719206 0.59854709477027446 0.001007140329434719206 0.60341858300827300
0.001267914553977789183 0.75339389181276750 0.001267914553977789183 0.75941556429807378
0.001596209851982166583 0.94826629552179631 0.001596209851982166583 0.95567768198536329
0.002009509145224797066 1.19349245563736650 0.002009509145224797066 1.20256422904389026
0.002529822128153114136 1.50205606753731846 0.002529822128153114136 1.51308164946290380
0.003184857364431081805 1.89027405616430144 0.003184857364431081805 1.90355023946088941
0.004009497869034817086 2.37864444540612219 0.004009497869034817086 2.39443346771291354
0.005047658755856332391 2.99290564885250276 0.005047658755856332391 3.01136666242816187
0.006354625877790454069 3.76535757920084979 0.006354625877790454069 3.78642846837972114
0.008000000000009777068 4.73650569704621205 0.008000000000009777068 4.75970534004951951
0.010071403294361402914 5.95710138335748063 0.010071403294361402914 5.98120567579671469
0.012679145539692626699 7.49066557215503170 0.012679145539692626699 7.51318470074629641
0.015962098519750611558 9.41659677492636682 0.015962098519750611558 9.43294163808113240
0.020095091452091651263 11.83397816194993091 0.020095091452091651263 11.83614344124892170
0.025298221281360611101 14.86620887980095063 0.025298221281360611101 14.84070866445552461
0.031848573644296607199 18.66658827902076112 0.031848573644296607199 18.59124215126603019
0.040094978690191851456 23.42497171989105453 0.040094978690191851456 23.26393307404097399
0.050476587558435426217 29.37558299648854288 0.050476587558435426217 29.07169668461660095
0.063546258777947173257 36.80599589277956341 0.063546258777947173257 36.26912796991161514
0.080000000000012505552 46.06716370407929162 0.080000000000012505552 45.15650915681627708
0.100714032943542974863 57.58414957185128458 0.100714032943542974863 56.08163107020625660
0.126791455396883634421 71.86685068106130814 0.126791455396883634421 69.43750555210445441
0.159620985197506115583 89.51946397205509243 0.159620985197506115583 85.65312368594813108
0.200950914520774404082 111.24665142284121089 0.200950914520774404082 105.17324015327690745
0.252982212813464002465 137.85327377129698334 0.252982212813464002465 128.42178995847399392
0.318485736442809752589 170.23314267577609371 0.318485736442809752589 155.74216096664824249
0.400949786901833249431 209.34053384222838190 0.400949786901833249431 187.30663798072538384
0.504765875584169521062 256.13641507994992708 0.504765875584169521062 222.98799678630220455
0.635462587779443310865 311.50004172032640781 0.635462587779443310865 262.19073244259266176
0.800000000000011368684 376.09703880187794311 0.800000000000011368684 303.65184334916682474
1.007140329435344483500 450.19979016633340052 1.007140329435344483500 345.24701840008759746
1.267914553968907398485 533.46868241157153534 1.267914553968907398485 383.88061609249587036
1.596209851975117999245 624.72721202679133512 1.596209851975117999245 415.58738395168904844
2.009509145207687197399 721.79908813383508459 2.009509145207687197399 435.99431379153128319
2.529822128134725289783 821.50771706909392833 2.529822128134725289783 441.21993849634458229
3.184857364427983839050 919.93779943681772693 3.184857364427983839050 429.07948464071904482
4.009497869018204596614 1012.99153473369096901 4.009497869018204596614 400.24075277291223074
5.009497869018190385759 1094.53311358493965599 5.009497869018190385759 360.04773057628329980
6.009497869018190385759 1153.49524392616854129 6.009497869018190385759 321.72047572072784760
7.009497869018204596614 1197.56956085211777463 7.009497869018204596614 288.11871693383278625
8.009497869018190385759 1231.52282474863454809 8.009497869018190385759 259.89207050763872076
9.009497869018204596614 1258.39722450651925101 9.009497869018204596614 236.91083798469634303
10.009497869018190385759 1280.18744745140838859 10.009497869018190385759 218.40745775102388393
11.009497869018190385759 1298.23681455221731085 11.009497869018190385759 202.77269664795389303
12.009497869018204596614 1313.47068503221566971 12.009497869018204596614 189.95136622559840589
13.009497869018190385759 1326.54120410278642339 13.009497869018190385759 179.40454382697345181
14.009497869018204596614 1337.91746111957763787 14.009497869018204596614 170.68894088197785663
15.009497869018190385759 1347.94335573184503119 15.009497869018190385759 163.44646951825805559
16.009497869018190385759 1356.87551634306009873 16.009497869018190385759 157.39118036928610422
17.009497869018204596614 1364.90864749631555242 17.009497869018204596614 152.43078655538695898
18.009497869018190385759 1372.19279718539928581 18.009497869018190385759 148.09292240844490607
19.009497869018204596614 1378.84559492807829884 19.009497869018204596614 144.57150317018903252
20.009497869018190385759 1384.95977058806874993 20.009497869018190385759 141.37171676318936875
21.009497869018190385759 1390.60985715274614449 21.009497869018190385759 138.61240751122437587
22.009497869018204596614 1395.85683456231231503 22.009497869018204596614 136.21680362790291952
23.009497869018190385759 1400.75007851188274799 23.009497869018190385759 134.18878217271887365
24.009497869018204596614 1405.33101167976496981 24.009497869018204596614 132.34241601090795371
25.009497869018204596614 1409.63417114972617128 25.009497869018204596614 130.71127430446452422
26.009497869018190385759 1413.68864551440947253 26.009497869018190385759 129.33235144285572460
27.009497869018204596614 1417.51939981651503331 27.009497869018204596614 128.02954042907444432
28.009497869018190385759 1421.14762999744743865 28.009497869018190385759 126.86204776993125165
29.009497869018190385759 1424.59183662559576078 29.009497869018190385759 125.84088941377095239
30.009497869018190385759 1427.86801883210864617 30.009497869018190385759 124.88457669427583596
31.009497869018218807469 1430.99014258990041526 31.009497869018218807469 124.01502388082789707
32.009497869018190385759 1433.97068490295509946 32.009497869018190385759 123.22199547107717876
33.009497869018190385759 1436.82037313596879358 33.009497869018190385759 122.52499065649161025
34.009497869018218807469 1439.54911509219391519 34.009497869018218807469 121.85201491219407899
35.009497869018190385759 1442.16544164013157570 35.009497869018190385759 121.24744913396750690
36.009497869018190385759 1444.67713618810989828 36.009497869018190385759 120.67064683363992117
37.009497869018190385759 1447.09131071828915083 37.009497869018190385759 120.13471699371271484
38.009497869018218807469 1449.41416379817201232 38.009497869018218807469 119.63574769459677327
39.009497869018190385759 1451.65148518798628174 39.009497869018190385759 119.17827221852964215
40.009497869018190385759 1453.80854194230255416 40.009497869018190385759 118.76650004578428366
41.009497869018218807469 1455.89001705299483547 41.009497869018218807469 118.34324637593293517
42.009497869018190385759 1457.90030061610787016 42.009497869018190385759 117.96195934343292322
43.009497869018190385759 1459.84344160342448049 43.009497869018190385759 117.58681499178264573
44.009497869018218807469 1461.72305090644476877 44.009497869018218807469 117.24584087003455579
46.009497869018190385759 1465.30506617003288738 46.009497869018190385759 116.61315212691297916
48.009497869018218807469 1468.67057192643687813 48.009497869018218807469 116.03004650983761792
50.009497869018190385759 1471.84039302682276684 50.009497869018190385759 115.50717939190082006
52.009497869018190385759 1474.83254822546427931 52.009497869018190385759 115.02681193578997920
54.009497869018218807469 1477.66280731145138816 54.009497869018218807469 114.57755177513848821
56.009497869018190385759 1480.34495243413471144 56.009497869018190385759 114.16223351223020188
58.009497869018218807469 1482.89119456347384585 58.009497869018218807469 113.79061532479325081
60.009497869018190385759 1485.31232982925052966 60.009497869018190385759 113.42916922139824010
62.009497869018190385759 1487.61797985743373829 62.009497869018190385759 113.09150363506827830
64.009497869018218807469 1489.81676687352819499 64.009497869018218807469 112.77482866499110514
66.009497869018190385759 1491.91639281851394117 66.009497869018190385759 112.48011369230016498
68.009497869018190385759 1493.92384745185654538 68.009497869018190385759 112.20451674342646697
70.009497869018190385759 1495.84540115195454746 70.009497869018190385759 111.93825770491768878
72.009497869018190385759 1497.68676482910791492 72.009497869018190385759 111.68863163810178207
74.009497869018218807469 1499.45313797356675423 74.009497869018218807469 111.45033479003706134
76.009497869018190385759 1501.14923329860175727 76.009497869018190385759 111.22366332458180693
78.009497869018190385759 1502.77938263480973546 78.009497869018190385759 111.00872962985913261
80.009497869018218807469 1504.34754915229541439 80.009497869018218807469 110.80281958547293186
82.009497869018190385759 1505.85735783230347806 82.009497869018190385759 110.60567799472626405
84.009497869018218807469 1507.31216298564709177 84.009497869018218807469 110.41534081651984422
86.009497869018190385759 1508.71505494158714100 86.009497869018190385759 110.23527432030793705
88.009497869018190385759 1510.06887467379988266 88.009497869018190385759 110.06050684299091813
91.009497869018218807469 1512.01331814014292831 91.009497869018218807469 109.81227714762772507
94.009497869018218807469 1513.86136179120580891 94.009497869018218807469 109.57760581830463309
97.009497869018218807469 1515.62025615919310439 97.009497869018218807469 109.35723019205177309
99.504748934509137825444 1517.02003435108463236 99.504748934509137825444 109.15122478792309835
nan nan nan nan

