Time Pressure difference Time.1 Pressure.1 difference.1
(hr) (psi) (hr) (psi)
0.000200000000020850166 0.28195277893994453 0.000200000000020850166 0.22473099998858509
0.000399999999999067768 0.56380528232660443 0.000399999999999067768 0.58852576448857263
0.000600000000019917934 0.84557323065480450 0.000600000000019917934 0.86120423607426688
0.000799999999998135536 1.12726333568526171 0.000799999999998135536 1.13888797894461402
0.001007140329434719206 1.41893332256729421 0.001007140329434719206 1.43048181566296906
0.001267914553977789183 1.78601768758411317 0.001267914553977789183 1.80029284123809075
0.001596209851982166583 2.24798793134188069 0.001596209851982166583 2.26555758176949773
0.002009509145224797066 2.82932826895851219 0.002009509145224797066 2.85083408143971218
0.002529822128153114136 3.56081823003602072 0.002529822128153114136 3.58695579837709344
0.003184857364431081805 4.48113919608180478 0.003184857364431081805 4.51261210613455610
0.004009497869034817086 5.63888438456416452 0.004009497869034817086 5.67631430457816588
0.005047658755856332391 7.09507003469229680 0.005047658755856332391 7.13883425568634156
0.006354625877790454069 8.92626726817544025 0.006354625877790454069 8.97621853692815108
0.008000000000009777068 11.22849951957108949 0.008000000000009777068 11.28349727466284591
0.010071403294361402914 14.12207950320409822 0.010071403294361402914 14.17922184681878583
0.012679145539692626699 17.75759181091297734 0.012679145539692626699 17.81097631855240948
0.015962098519750611558 22.32326088601425340 0.015962098519750611558 22.36200849866786200
0.020095091452091651263 28.05397620210508336 0.020095091452091651263 28.05910927680688260
0.025298221281360611101 35.24227140036728656 0.025298221281360611101 35.18181984091204839
0.031848573644296607199 44.25156242369256887 0.031848573644296607199 44.07294468027401280
0.040094978690191851456 55.53192596533612857 0.040094978690191851456 55.15016302167755669
0.050476587558435426217 69.63861983083646123 0.050476587558435426217 68.91821801458060293
0.063546258777947173257 87.25337487868722519 0.063546258777947173257 85.98066001258767699
0.080000000000012505552 109.20817129848168747 0.080000000000012505552 107.04934688224277295
0.100714032943542974863 136.51067625774535941 0.100714032943542974863 132.94876176783162691
0.126791455396883634421 170.36966699915933532 0.126791455396883634421 164.61059008505881707
0.159620985197506115583 212.21747053515159109 0.159620985197506115583 203.05181069605885114
0.200950914520774404082 263.72457924715502031 0.200950914520774404082 249.32677211161450259
0.252982212813464002465 326.79901963964800871 0.252982212813464002465 304.44046710435446812
0.318485736442809752589 403.55968788173498751 0.318485736442809752589 369.20694103282346532
0.400949786901833249431 496.26881798961829872 0.400949786901833249431 444.03461731095035248
0.504765875584169521062 607.20450847624499602 0.504765875584169521062 528.62189447941568687
0.635462587779443310865 738.45114785448015482 0.635462587779443310865 621.55705103523723665
0.800000000000011368684 891.58668639046595672 0.800000000000011368684 719.84597828928349372
1.007140329435344483500 1067.25684521948960537 1.007140329435344483500 818.45272194146650691
1.267914553968907398485 1264.65652683582356985 1.267914553968907398485 910.03866332416862406
1.596209851975117999245 1480.99667746211366648 1.596209851975117999245 985.20365845889921275
2.009509145207687197399 1711.11811802356714907 2.009509145207687197399 1033.58092570160215473
2.529822128134725289783 1947.49032228267719802 2.529822128134725289783 1045.96894510671904754
3.184857364427983839050 2180.83156649707143515 3.184857364427983839050 1017.18842862380245151
4.009497869018204596614 2401.42748443861000851 4.009497869018204596614 948.82248384627439464
5.009497869018190385759 2594.73234619087088504 5.009497869018190385759 853.53972493258766008
6.009497869018190385759 2734.50970413266486503 6.009497869018190385759 762.68000887641085228
7.009497869018204596614 2838.99357432774786503 7.009497869018204596614 683.02269259139382029
8.009497869018190385759 2919.48417894956037344 8.009497869018190385759 616.10777553908769733
9.009497869018204596614 2983.19342033363591327 9.009497869018204596614 561.62779074693753500
10.009497869018190385759 3034.84996283935288375 10.009497869018190385759 517.76313410907062007
11.009497869018190385759 3077.63832260980188948 11.009497869018190385759 480.69891023535927843
12.009497869018204596614 3113.75218339804996504 12.009497869018204596614 450.30428776557948822
13.009497869018190385759 3144.73753979611637988 13.009497869018190385759 425.30168082058736445
14.009497869018204596614 3171.70642880795003293 14.009497869018204596614 404.64021649643700584
15.009497869018190385759 3195.47410904262551412 15.009497869018190385759 387.47100116566070938
16.009497869018190385759 3216.64895133075060585 16.009497869018190385759 373.11615486145450404
17.009497869018204596614 3235.69252798077604893 17.009497869018204596614 361.35689959633697299
18.009497869018190385759 3252.96054717377910492 18.009497869018190385759 351.07343144379598243
19.009497869018204596614 3268.73186489943100241 19.009497869018204596614 342.72545157128729443
20.009497869018190385759 3283.22630929619072049 20.009497869018190385759 335.13994393511325143
21.009497869018190385759 3296.62057045301389735 21.009497869018190385759 328.59864437975568308
22.009497869018204596614 3309.05920920716016553 22.009497869018204596614 322.91955545356012180
23.009497869018190385759 3320.65927703166607898 23.009497869018190385759 318.11186822763426107
24.009497869018204596614 3331.51897174433815962 24.009497869018204596614 313.73481837550906448
25.009497869018204596614 3341.72016797033029434 25.009497869018204596614 309.86798593855570516
26.009497869018190385759 3351.33182398171220484 26.009497869018190385759 306.59907090299367383
27.009497869018204596614 3360.41312264194812087 27.009497869018204596614 303.51058884934434445
28.009497869018190385759 3369.01431167227065089 28.009497869018190385759 300.74289646158524647
29.009497869018190385759 3377.17924906347570868 29.009497869018190385759 298.32210847040812496
30.009497869018190385759 3384.94586282576801750 30.009497869018190385759 296.05504545006647277
31.009497869018218807469 3392.34726110472911387 31.009497869018218807469 293.99365801119347452
32.009497869018190385759 3399.41302225245999580 32.009497869018190385759 292.11368157129481915
33.009497869018190385759 3406.16857687477886429 33.009497869018190385759 290.46134148636821237
34.009497869018218807469 3412.63741270107493619 34.009497869018218807469 288.86596542121537823
35.009497869018190385759 3418.83975325877372597 35.009497869018190385759 287.43276403087401150
36.009497869018190385759 3424.79405012426059329 36.009497869018190385759 286.06537955667090500
37.009497869018190385759 3430.51716317132877521 37.009497869018190385759 284.79488853754276079
38.009497869018218807469 3436.02378690615614687 38.009497869018218807469 283.61201726201613837
39.009497869018190385759 3441.32764670438655230 39.009497869018190385759 282.52751246210868885
40.009497869018190385759 3446.44122880028362488 40.009497869018190385759 281.55135325539072255
41.009497869018218807469 3451.37563483192525382 41.009497869018218807469 280.54797567441448791
42.009497869018190385759 3456.14127208993431850 42.009497869018190385759 279.64408543652979233
43.009497869018190385759 3460.74773918574055642 43.009497869018190385759 278.75475721828189535
44.009497869018218807469 3465.20359620478893703 44.009497869018218807469 277.94643395064133529
46.009497869018190385759 3473.69522679469355353 46.009497869018190385759 276.44656343373071650
48.009497869018218807469 3481.67359358784688084 48.009497869018218807469 275.06423613171295983
50.009497869018190385759 3489.18806458806238879 50.009497869018190385759 273.82471198499570164
52.009497869018190385759 3496.28135558344365563 52.009497869018190385759 272.68593878484477955
54.009497869018218807469 3502.99085089917480218 54.009497869018218807469 271.62090945295068423
56.009497869018190385759 3509.34922290329859607 56.009497869018190385759 270.63634378074146980
58.009497869018218807469 3515.38541927984351787 58.009497869018218807469 269.75537479094339233
60.009497869018190385759 3521.12503365116026544 60.009497869018190385759 268.89852004233563321
62.009497869018190385759 3526.59087532636385731 62.009497869018190385759 268.09804008593107483
64.009497869018218807469 3531.80338440647619791 64.009497869018218807469 267.34732110092301127
66.009497869018190385759 3536.78081933899420619 66.009497869018190385759 266.64866113069763287
68.009497869018190385759 3541.53975025300269408 68.009497869018190385759 265.99532290924179279
70.009497869018190385759 3546.09504189169638266 70.009497869018190385759 265.36412141235734907
72.009497869018190385759 3550.46023270676641914 72.009497869018190385759 264.77235052668885373
74.009497869018218807469 3554.64764876251092574 74.009497869018218807469 264.20743701973822226
76.009497869018190385759 3558.66846215542636855 76.009497869018190385759 263.67008298624637064
78.009497869018190385759 3562.53294205035263076 78.009497869018190385759 263.16055485679891035
80.009497869018218807469 3566.25048365474231105 80.009497869018218807469 262.67241845786941212
82.009497869018190385759 3569.82968045560028258 82.009497869018190385759 262.20506881267277777
84.009497869018218807469 3573.27848428065954067 84.009497869018218807469 261.75384990769390470
86.009497869018190385759 3576.60422115523078901 86.009497869018190385759 261.32697898310760820
88.009497869018190385759 3579.81362597495217415 88.009497869018190385759 260.91267006834908670
91.009497869018218807469 3584.42318076579294939 91.009497869018218807469 260.32420946185874300
94.009497869018218807469 3588.80420732320772004 94.009497869018218807469 259.76789071612074622
97.009497869018218807469 3592.97389397179358639 97.009497869018218807469 259.24546178395490870
99.504748934509137825444 3596.29224926585811772 99.504748934509137825444 258.75709932241909428
nan nan nan nan

