Time Pressure difference Time.1 Pressure.1 difference.1
(hr) (psi) (hr) (psi)
0.000200000000020850166 0.85583896616284050 0.000200000000020850166 0.68214807961136892
0.000399999999999067768 1.71137355608871955 0.000399999999999067768 1.78641006389009238
0.000600000000019917934 2.56665148773980478 0.000600000000019917934 2.61409781392454432
0.000799999999998135536 3.42169313398269681 0.000799999999998135536 3.45697855555754519
0.001007140329434719206 4.30702769593435253 0.001007140329434719206 4.34208197143715324
0.001267914553977789183 5.42127492779956466 0.001267914553977789183 5.46460570393508949
0.001596209851982166583 6.82353858805544355 0.001596209851982166583 6.87686947386670600
0.002009509145224797066 8.58813801993601622 0.002009509145224797066 8.65341672507806337
0.002529822128153114136 10.80850135311818683 0.002529822128153114136 10.88783928179949712
0.003184857364431081805 13.60204198456689717 0.003184857364431081805 13.69757480003675099
0.004009497869034817086 17.11625968057972003 0.004009497869034817086 17.22987439354257333
0.005047658755856332391 21.53636302565891825 0.005047658755856332391 21.66920486460544382
0.006354625877790454069 27.09477586711660280 0.006354625877790454069 27.24639785987925222
0.008000000000009777068 34.08296756825561147 0.008000000000009777068 34.24990765671996940
0.010071403294361402914 42.86613512919474545 0.010071403294361402914 43.03958489786587194
0.012679145539692626699 53.90136275347921924 0.012679145539692626699 54.06340599348209253
0.015962098519750611558 67.75998658321141477 0.015962098519750611558 67.87760101808032687
0.020095091452091651263 85.15498971081454727 0.020095091452091651263 85.17057063667930095
0.025298221281360611101 106.97432823297326365 0.025298221281360611101 106.79083367639674407
0.031848573644296607199 134.32111425952697914 0.031848573644296607199 133.77893827729192822
0.040094978690191851456 168.56150978858664757 0.040094978690191851456 167.40270722509202983
0.050476587558435426217 211.38094338032664155 0.050476587558435426217 209.19423698231108233
0.063546258777947173257 264.84873967601515687 0.063546258777947173257 260.98554322404936556
0.080000000000012505552 331.49028987061251428 0.080000000000012505552 324.93739805848912283
0.100714032943542974863 414.36426510094383957 0.100714032943542974863 403.55243616253312666
0.126791455396883634421 517.13978567001470310 0.126791455396883634421 499.65869379801046080
0.159620985197506115583 644.16453445625654695 0.159620985197506115583 616.34310680308135488
0.200950914520774404082 800.50912107764759185 0.200950914520774404082 756.80604278127236739
0.252982212813464002465 991.96516580884326686 0.252982212813464002465 924.09805501587231902
0.318485736442809752589 1224.96436233128406457 0.318485736442809752589 1120.69009534741985590
0.400949786901833249431 1506.37349177379701359 0.400949786901833249431 1347.82189148368115639
0.504765875584169521062 1843.10749033054889878 0.504765875584169521062 1604.57796288884605929
0.635462587779443310865 2241.49330720430680230 0.635462587779443310865 1886.67317261138373397
0.800000000000011368684 2706.32064984008684405 0.800000000000011368684 2185.01920843561310903
1.007140329435344483500 3239.54953902907027441 1.007140329435344483500 2484.32994359223903302
1.267914553968907398485 3838.73618322732272645 1.267914553968907398485 2762.32974796628150216
1.596209851975117999245 4495.41469353544289334 1.596209851975117999245 2990.48544116285347627
2.009509145207687197399 5193.92490692109367956 2.009509145207687197399 3137.32971252787183403
2.529822128134725289783 5911.40867737131156900 2.529822128134725289783 3174.93228470446592837
3.184857364427983839050 6619.69227706633228081 3.184857364427983839050 3087.57195591118806988
4.009497869018204596614 7289.28873595082586689 4.009497869018204596614 2880.05408813515168731
5.009497869018190385759 7876.04597118113997567 5.009497869018190385759 2590.83297037059810464
6.009497869018190385759 8300.32591608410803019 6.009497869018190385759 2315.03754906733547614
7.009497869018204596614 8617.47607074705774721 7.009497869018204596614 2073.24587220219518713
8.009497869018190385759 8861.79710955486189050 8.009497869018190385759 1870.13245141510674330
9.009497869018204596614 9055.18002809236531903 9.009497869018204596614 1704.76400200176612998
10.009497869018190385759 9211.97820578670689429 10.009497869018190385759 1571.61730087974524395
11.009497869018190385759 9341.85791730231903784 11.009497869018190385759 1459.11262133387822360
12.009497869018204596614 9451.47786642062965257 12.009497869018204596614 1366.85283808490044066
13.009497869018190385759 9545.53076238998255576 13.009497869018190385759 1290.95996921647338240
14.009497869018204596614 9627.39208036395393719 14.009497869018204596614 1228.24419697591065415
15.009497869018190385759 9699.53645488159781962 15.009497869018190385759 1176.12879114886391108
16.009497869018190385759 9763.81053368537504866 16.009497869018190385759 1132.55611608388426248
17.009497869018204596614 9821.61537254341783409 17.009497869018204596614 1096.86209346498731065
18.009497869018190385759 9874.03068743899348192 18.009497869018190385759 1065.64767243559299459
19.009497869018204596614 9921.90291734960010217 19.009497869018204596614 1040.30822910576557661
20.009497869018190385759 9965.89932821763977699 20.009497869018190385759 1017.28319265260040538
21.009497869018190385759 10006.55624482640450879 21.009497869018190385759 997.42774355978951917
22.009497869018204596614 10044.31246688545070356 22.009497869018204596614 980.18944708470030491
23.009497869018190385759 10079.52329222886146454 23.009497869018190385759 965.59620178830573423
24.009497869018204596614 10112.48679033900953073 24.009497869018204596614 952.31011241415581026
25.009497869018204596614 10143.45148330817028182 25.009497869018204596614 940.57273607897900547
26.009497869018190385759 10172.62668695333923097 26.009497869018190385759 930.65027716572410554
27.009497869018204596614 10200.19204483352405077 27.009497869018204596614 921.27550420641694018
28.009497869018190385759 10226.30007879282129579 28.009497869018190385759 912.87445563118353675
29.009497869018190385759 10251.08391529886830540 29.009497869018190385759 905.52640004734496415
30.009497869018190385759 10274.65868096671147214 30.009497869018190385759 898.64496096790094271
31.009497869018218807469 10297.12487220285038347 31.009497869018218807469 892.38782918441893344
32.009497869018190385759 10318.57227108489860257 32.009497869018190385759 886.68135202614280388
33.009497869018190385759 10339.07806962875474710 33.009497869018190385759 881.66584185685223929
34.009497869018218807469 10358.71356244662638346 34.009497869018218807469 876.82324017236169311
35.009497869018190385759 10377.54013599786958366 35.009497869018190385759 872.47290320875913494
36.009497869018190385759 10395.61379816478984139 36.009497869018190385759 868.32234679591249460
37.009497869018190385759 10412.98572537845757324 37.009497869018190385759 864.46590060510766307
38.009497869018218807469 10429.70052131691591057 38.009497869018218807469 860.87541522895162416
39.009497869018190385759 10445.79984796110329626 39.009497869018190385759 857.58351127879029718
40.009497869018190385759 10461.32160600439965492 40.009497869018190385759 854.62047935043381131
41.009497869018218807469 10476.29949333938384370 41.009497869018218807469 851.57482881702787836
42.009497869018190385759 10490.76510023758783063 42.009497869018190385759 848.83116198875859482
43.009497869018190385759 10504.74756230715865968 43.009497869018190385759 846.13169668912121324
44.009497869018218807469 10518.27286281630586018 44.009497869018218807469 843.67811367318563498
46.009497869018190385759 10544.04834327946809935 46.009497869018190385759 839.12540936079324183
48.009497869018218807469 10568.26586372240308265 48.009497869018218807469 834.92949551484548465
50.009497869018190385759 10591.07527569650665100 50.009497869018190385759 831.16704611374791511
52.009497869018190385759 10612.60623862938882667 52.009497869018190385759 827.71041595753774800
54.009497869018218807469 10632.97222883554786677 54.009497869018218807469 824.47762780851394382
56.009497869018190385759 10652.27241996311022376 56.009497869018190385759 821.48907890968439460
58.009497869018218807469 10670.59467976094128971 58.009497869018218807469 818.81498719728847391
60.009497869018190385759 10688.01669506502730655 60.009497869018190385759 816.21409180992156962
62.009497869018190385759 10704.60770121188397752 62.009497869018190385759 813.78431636702975993
64.009497869018218807469 10720.42974204797610582 64.009497869018218807469 811.50558528864235086
66.009497869018190385759 10735.53823923252275563 66.009497869018190385759 809.38487405158650745
68.009497869018190385759 10749.98348970601728070 68.009497869018190385759 807.40173237053033972
70.009497869018190385759 10763.81061388364469167 70.009497869018190385759 805.48578446405804243
72.009497869018190385759 10777.06070635770629451 72.009497869018190385759 803.68952416508204806
74.009497869018218807469 10789.77118164195780992 74.009497869018218807469 801.97478670593102379
76.009497869018190385759 10801.97595149833068717 76.009497869018190385759 800.34370322373911222
78.009497869018190385759 10813.70618693160213297 78.009497869018190385759 798.79708244143387219
80.009497869018218807469 10824.99040613784563902 80.009497869018218807469 797.31539408008143255
82.009497869018190385759 10835.85469377230947430 82.009497869018190385759 795.89680179421907269
84.009497869018218807469 10846.32318679881609569 84.009497869018218807469 794.52717272866368603
86.009497869018190385759 10856.41812262163148262 86.009497869018190385759 793.23144947969842633
88.009497869018190385759 10866.15994433105151984 88.009497869018190385759 791.97385693313049160
91.009497869018218807469 10880.15177878466420225 91.009497869018218807469 790.18764464971275174
94.009497869018218807469 10893.44993904301190923 94.009497869018218807469 788.49899571353478223
97.009497869018218807469 10906.10659851615127991 97.009497869018218807469 786.91321585749142287
99.504748934509137825444 10916.17912830255954759 99.504748934509137825444 785.43084130610395732
nan nan nan nan

