Time Pressure difference Time.1 Pressure.1 difference.1
(hr) (psi) (hr) (psi)
0.000200000000020850166 0.78846971809754407 0.000200000000020850166 0.62845129200347682
0.000399999999999067768 1.57665901960360189 0.000399999999999067768 1.64578886352556619
0.000600000000019917934 2.36461186625591369 0.000600000000019917934 2.40832335043777235
0.000799999999998135536 3.15234702722604121 0.000799999999998135536 3.18485487917254861
0.001007140329434719206 3.96799053036517613 0.001007140329434719206 4.00028543141148862
0.001267914553977789183 4.99452733873079424 0.001267914553977789183 5.03444723744457256
0.001596209851982166583 6.28640872835428688 0.001596209851982166583 6.33554155609877245
0.002009509145224797066 7.91210383177778631 0.002009509145224797066 7.97224397995529976
0.002529822128153114136 9.95768637779984545 0.002529822128153114136 10.03077904678903920
0.003184857364431081805 12.53132730939690731 0.003184857364431081805 12.61934004901345041
0.004009497869034817086 15.76891562409093694 0.004009497869034817086 15.87358690483805645
0.005047658755856332391 19.84108080498022986 0.005047658755856332391 19.96346570616711347
0.006354625877790454069 24.96195094463220698 0.006354625877790454069 25.10163767848933958
0.008000000000009777068 31.40005175384482072 0.008000000000009777068 31.55385078578283142
0.010071403294361402914 39.49183294701322922 0.010071403294361402914 39.65162923535165618
0.012679145539692626699 49.65839833848230711 0.012679145539692626699 49.80768598816426618
0.015962098519750611558 62.42611008832304975 0.015962098519750611558 62.53446624406234378
0.020095091452091651263 78.45182725544430014 0.020095091452091651263 78.46618169443341628
0.025298221281360611101 98.55360851784126908 0.025298221281360611101 98.38455813918767490
0.031848573644296607199 123.74773208749425635 0.031848573644296607199 123.24823468112026603
0.040094978690191851456 155.29281951368335513 0.040094978690191851456 154.22523464469122700
0.050476587558435426217 194.74162713756041398 0.050476587558435426217 192.72705214696881626
0.063546258777947173257 244.00058815632888809 0.063546258777947173257 240.44149171661686637
0.080000000000012505552 305.39630203823190868 0.080000000000012505552 299.35923552910367107
0.100714032943542974863 381.74666988891618757 0.100714032943542974863 371.78591786402466823
0.126791455396883634421 476.43198913039248055 0.126791455396883634421 460.32695988388132946
0.159620985197506115583 593.45770521334429759 0.159620985197506115583 567.82630247747431440
0.200950914520774404082 737.49528355841584926 0.200950914520774404082 697.23238926787780656
0.252982212813464002465 913.88044430202467083 0.252982212813464002465 851.35564252191147716
0.318485736442809752589 1128.53859620024991273 0.318485736442809752589 1032.47250766701063185
0.400949786901833249431 1387.79598659043699627 0.400949786901833249431 1241.72512451557804525
0.504765875584169521062 1698.02322724330451820 0.504765875584169521062 1478.27007659730406886
0.635462587779443310865 2065.04922762845762918 0.635462587779443310865 1738.15954094809717390
0.800000000000011368684 2493.28666282643553131 0.800000000000011368684 2013.02061185321758785
1.007140329435344483500 2984.54126627751111300 1.007140329435344483500 2288.77044365932215442
1.267914553968907398485 3536.56161486832024821 1.267914553968907398485 2544.88688150829466394
1.596209851975117999245 4141.54823077900891803 1.596209851975117999245 2755.08279710630222326
2.009509145207687197399 4785.07367518094906700 2.009509145207687197399 2890.36789842217967816
2.529822128134725289783 5446.07913133916827064 2.529822128134725289783 2925.01050136038247729
3.184857364427983839050 6098.60862843428731139 3.184857364427983839050 2844.52693314266934976
4.009497869018204596614 6715.49632816460962204 4.009497869018204596614 2653.34429110993596623
5.009497869018190385759 7256.06567607358647365 5.009497869018190385759 2386.88985025396186757
6.009497869018190385759 7646.94749120284996025 6.009497869018190385759 2132.80427261014028772
7.009497869018204596614 7939.13247334131210664 7.009497869018204596614 1910.04575981310131283
8.009497869018190385759 8164.22124378815169621 8.009497869018190385759 1722.92085902966096000
9.009497869018204596614 8342.38160022503507207 9.009497869018204596614 1570.56975111532960909
10.009497869018190385759 8486.83706422332215880 10.009497869018190385759 1447.90398565014425003
11.009497869018190385759 8606.49300836015390814 11.009497869018190385759 1344.25535959622584414
12.009497869018204596614 8707.48398189188992546 12.009497869018204596614 1259.25800826480622163
13.009497869018190385759 8794.13329712896120327 13.009497869018190385759 1189.33921362217370188
14.009497869018204596614 8869.55072126824961742 14.009497869018204596614 1131.56025144136378913
15.009497869018190385759 8936.01609254397953919 15.009497869018190385759 1083.54722449866176248
16.009497869018190385759 8995.23069575679073751 16.009497869018190385759 1043.40446846212057608
17.009497869018204596614 9048.48529948606301332 17.009497869018204596614 1010.52017940214591363
18.009497869018190385759 9096.77462749481492210 18.009497869018190385759 981.76287023220811534
19.009497869018204596614 9140.87848945327459660 19.009497869018204596614 958.41807696041394138
20.009497869018190385759 9181.41162599642666464 20.009497869018190385759 937.20550693359098204
21.009497869018190385759 9218.86814392170163046 21.009497869018190385759 918.91302322126375657
22.009497869018204596614 9253.65230185364998761 22.009497869018204596614 903.03167719756629594
23.009497869018190385759 9286.09142957527910767 23.009497869018190385759 889.58717132683557338
24.009497869018204596614 9316.46013337354816031 24.009497869018204596614 877.34692572266260413
25.009497869018204596614 9344.98737237720524718 25.009497869018204596614 866.53348280162492756
26.009497869018190385759 9371.86598564797350264 26.009497869018190385759 857.39209208270790441
27.009497869018204596614 9397.26147570668763365 27.009497869018204596614 848.75527501232579652
28.009497869018190385759 9421.31435830475675175 28.009497869018190385759 841.01553346779587628
29.009497869018190385759 9444.14728056688727520 29.009497869018190385759 834.24589625353053179
30.009497869018190385759 9465.86630666320888849 30.009497869018190385759 827.90614479841610773
31.009497869018218807469 9486.56402220437485084 31.009497869018218807469 822.14155691625774125
32.009497869018190385759 9506.32314187413430773 32.009497869018190385759 816.88427766839981814
33.009497869018190385759 9525.21478134893914103 33.009497869018190385759 812.26357442205630832
34.009497869018218807469 9543.30462312866984576 34.009497869018218807469 807.80216878853138951
35.009497869018190385759 9560.64922150241181953 35.009497869018190385759 803.79427817483349372
36.009497869018190385759 9577.30017556872917339 36.009497869018190385759 799.97044194608849921
37.009497869018190385759 9593.30463329327358224 37.009497869018190385759 796.41756440587175803
38.009497869018218807469 9608.70368727739332826 38.009497869018218807469 793.10971198935476423
39.009497869018190385759 9623.53571998748884653 39.009497869018190385759 790.07693750465807625
40.009497869018190385759 9637.83564868043868046 40.009497869018190385759 787.34714715666791562
41.009497869018218807469 9651.63451864502894750 41.009497869018218807469 784.54124170898194279
42.009497869018190385759 9664.96143345503696764 42.009497869018190385759 782.01354865436644559
43.009497869018190385759 9677.84323524507999537 43.009497869018190385759 779.52657770776181678
44.009497869018218807469 9690.30386195321443665 44.009497869018218807469 777.26613387966961000
46.009497869018190385759 9714.05036873560311506 46.009497869018190385759 773.07180570848595380
48.009497869018218807469 9736.36155375008456758 48.009497869018218807469 769.20618245682567249
50.009497869018190385759 9757.37547265334069380 50.009497869018190385759 765.73990254211173578
52.009497869018190385759 9777.21157844573463080 52.009497869018190385759 762.55536863726501906
54.009497869018218807469 9795.97441490388700913 54.009497869018218807469 759.57705652329570967
56.009497869018190385759 9813.75534900391357951 56.009497869018190385759 756.82375782933024766
58.009497869018218807469 9830.63533179141995788 58.009497869018218807469 754.36016313219579388
60.009497869018190385759 9846.68593481209427409 60.009497869018190385759 751.96400295024852767
62.009497869018190385759 9861.97094339054092416 62.009497869018190385759 749.72549262968334460
64.009497869018218807469 9876.54751745527755702 64.009497869018218807469 747.62613688399699186
66.009497869018190385759 9890.46671602763126430 66.009497869018190385759 745.67236210000385199
68.009497869018190385759 9903.77487681370621431 68.009497869018190385759 743.84532778159643840
70.009497869018190385759 9916.51356847589340759 70.009497869018190385759 742.08019793190192104
72.009497869018190385759 9928.72065075520549726 72.009497869018190385759 740.42533421622727019
74.009497869018218807469 9940.43059299958804331 74.009497869018218807469 738.84557609059527294
76.009497869018190385759 9951.67463753198899212 76.009497869018190385759 737.34288693498990597
78.009497869018190385759 9962.48150166293271468 78.009497869018190385759 735.91801181193318371
80.009497869018218807469 9972.87745871591687319 80.009497869018218807469 734.55295781138704569
82.009497869018190385759 9982.88654003513147472 82.009497869018190385759 733.24603313986358444
84.009497869018218807469 9992.53098259016405791 84.009497869018218807469 731.98421744098470754
86.009497869018190385759 10001.83127331905234314 86.009497869018190385759 730.79048989966383942
88.009497869018190385759 10010.80624608924699714 88.009497869018190385759 729.63189151856920489
91.009497869018218807469 10023.69668249549249595 91.009497869018218807469 727.98628486679081107
94.009497869018218807469 10035.94804879764342331 94.009497869018218807469 726.43056164862093738
97.009497869018218807469 10047.60841146094389842 97.009497869018218807469 724.96960994451103488
99.504748934509137825444 10056.88805989390493778 99.504748934509137825444 723.60392376888876242
nan nan nan nan

