Time Pressure difference Time.1 Pressure.1 difference.1
(hr) (psi) (hr) (psi)
0.000200000000020850166 0.09897457431815163 0.000200000000020850166 0.07888787315233518
0.000399999999999067768 0.19791394866332132 0.000399999999999067768 0.20659164004171135
0.000600000000019917934 0.29682364143929713 0.000600000000019917934 0.30231063154229426
0.000799999999998135536 0.39570600869187650 0.000799999999998135536 0.39978663567672290
0.001007140329434719206 0.49809163830533332 0.001007140329434719206 0.50214553411177965
0.001267914553977789183 0.62695016171831697 0.001267914553977789183 0.63196120385643895
0.001596209851982166583 0.78911670746219409 0.001596209851982166583 0.79528422486893879
0.002009509145224797066 0.99318602951640977 0.002009509145224797066 1.00073526752603459
0.002529822128153114136 1.24996274151706910 0.002529822128153114136 1.25913787612647243
0.003184857364431081805 1.57302526352134175 0.003184857364431081805 1.58407327619472627
0.004009497869034817086 1.97943139163166837 0.004009497869034817086 1.99257050809675995
0.005047658755856332391 2.49059980568844663 0.005047658755856332391 2.50596246733532357
0.006354625877790454069 3.13340945402028748 0.006354625877790454069 3.15094397019011785
0.008000000000009777068 3.94156767796153318 0.008000000000009777068 3.96087367458666284
0.010071403294361402914 4.95730814419258969 0.010071403294361402914 4.97736696097768583
0.012679145539692626699 6.23349093067446702 0.012679145539692626699 6.25223062509656824
0.015962098519750611558 7.83618892458907457 0.015962098519750611558 7.84979059392765688
0.020095091452091651263 9.84785595295134186 0.020095091452091651263 9.84965782873161899
0.025298221281360611101 12.37118081605813380 0.025298221281360611101 12.34996035713431795
0.031848573644296607199 15.53373430212216810 0.031848573644296607199 15.47103367832627541
0.040094978690191851456 19.49350793473451304 0.040094978690191851456 19.35949675392220826
0.050476587558435426217 24.44541522085410179 0.050476587558435426217 24.19253080747814977
0.063546258777947173257 30.62876581287250488 0.063546258777947173257 30.18200159733903831
0.080000000000012505552 38.33561175374430263 0.080000000000012505552 37.57779433329466201
0.100714032943542974863 47.91967691643568372 0.100714032943542974863 46.66932935212967948
0.126791455396883634421 59.80528133598809148 0.126791455396883634421 57.78365846643657733
0.159620985197506115583 74.49521827045143141 0.159620985197506115583 71.27777425613865603
0.200950914520774404082 92.57588475047626275 0.200950914520774404082 87.52178726041924506
0.252982212813464002465 114.71705999149887134 0.252982212813464002465 106.86848255285597986
0.318485736442809752589 141.66254530361788966 0.318485736442809752589 129.60361646874923736
0.400949786901833249431 174.20645823234389127 0.400949786901833249431 155.87055887906515750
0.504765875584169521062 213.14848527632196351 0.504765875584169521062 185.56343788510463355
0.635462587779443310865 259.22031443859333422 0.635462587779443310865 218.18669343124847160
0.800000000000011368684 312.97585746449982480 0.800000000000011368684 252.68929621364227955
1.007140329435344483500 374.64178342513059761 1.007140329435344483500 287.30346286440857284
1.267914553968907398485 443.93547697186721734 1.267914553968907398485 319.45310010494415565
1.596209851975117999245 519.87788972858857051 1.596209851975117999245 345.83845237937759975
2.009509145207687197399 600.65798243305164306 2.009509145207687197399 362.82044294540014562
2.529822128134725289783 683.63229602253261419 2.529822128134725289783 367.16903972772735187
3.184857364427983839050 765.54264428658257202 3.184857364427983839050 357.06614456115784151
4.009497869018204596614 842.97896946370099158 4.009497869018204596614 333.06747958025567868
5.009497869018190385759 910.83524836788694756 5.009497869018190385759 299.62013943061333521
6.009497869018190385759 959.90163655394428588 6.009497869018190385759 267.72543084452178164
7.009497869018204596614 996.57886532448958405 7.009497869018204596614 239.76312807780490743
8.009497869018190385759 1024.83367933627641833 8.009497869018190385759 216.27382091195113389
9.009497869018204596614 1047.19769032360682104 9.009497869018204596614 197.14957846278926468
10.009497869018190385759 1065.33081291410917402 10.009497869018190385759 181.75166064595691751
11.009497869018190385759 1080.35091560639057207 11.009497869018190385759 168.74091539235325854
12.009497869018204596614 1093.02805257925638216 12.009497869018204596614 158.07141664927419811
13.009497869018190385759 1103.90491809952163749 13.009497869018190385759 149.29469031755132846
14.009497869018204596614 1113.37187323936905159 14.009497869018204596614 142.04184590877878236
15.009497869018190385759 1121.71510022440247667 15.009497869018190385759 136.01489421449446127
16.009497869018190385759 1129.14815695681227226 16.009497869018190385759 130.97587737024508669
17.009497869018204596614 1135.83307029413663258 17.009497869018204596614 126.84799720343391982
18.009497869018190385759 1141.89470535008763363 18.009497869018190385759 123.23816620003458411
19.009497869018204596614 1147.43094962546388160 19.009497869018204596614 120.30775438638106323
20.009497869018190385759 1152.51896992993124513 20.009497869018190385759 117.64499506866806655
21.009497869018190385759 1157.22079021801960153 21.009497869018190385759 115.34878667017972020
22.009497869018204596614 1161.58715603437190111 22.009497869018204596614 113.35524217986328210
23.009497869018190385759 1165.65915624415424645 23.009497869018190385759 111.66758796191291481
24.009497869018204596614 1169.47126146777645772 24.009497869018204596614 110.13110143565067744
25.009497869018204596614 1173.05221235536646418 25.009497869018204596614 108.77371777784109952
26.009497869018190385759 1176.42621549800514913 26.009497869018190385759 107.62622252936944278
27.009497869018204596614 1179.61404600115588437 27.009497869018204596614 106.54206511230673016
28.009497869018190385759 1182.63334244542829765 28.009497869018190385759 105.57051527707564276
29.009497869018190385759 1185.49950040871249257 29.009497869018190385759 104.72074014152967436
30.009497869018190385759 1188.22583385329312478 30.009497869018190385759 103.92492745887290084
31.009497869018218807469 1190.82396481257455889 31.009497869018218807469 103.20131357915049364
32.009497869018190385759 1193.30427624791354901 32.009497869018190385759 102.54138084656072749
33.009497869018190385759 1195.67569512713475888 33.009497869018190385759 101.96135586099651960
34.009497869018218807469 1197.94646640539212967 34.009497869018218807469 101.40132709476290529
35.009497869018190385759 1200.12368919703249048 35.009497869018190385759 100.89822690169323494
36.009497869018190385759 1202.21384060409150152 36.009497869018190385759 100.41823058184021988
37.009497869018190385759 1204.22283898934529134 37.009497869018190385759 99.97224700875393921
38.009497869018218807469 1206.15584260127616290 38.009497869018218807469 99.55702080879031257
39.009497869018190385759 1208.01766949210036728 39.009497869018190385759 99.17632443360159300
40.009497869018190385759 1209.81270273520271985 40.009497869018190385759 98.83366087726103899
41.009497869018218807469 1211.54483936577912573 41.009497869018218807469 98.48144278836377907
42.009497869018190385759 1213.21773268053743777 42.009497869018190385759 98.16414798509453021
43.009497869018190385759 1214.83475210354890805 43.009497869018190385759 97.85196492323170503
44.009497869018218807469 1216.39890250256576110 44.009497869018218807469 97.56821722751126913
46.009497869018190385759 1219.37974037925800985 46.009497869018190385759 97.04171400771079448
48.009497869018218807469 1222.18040600871313472 48.009497869018218807469 96.55647227042430814
50.009497869018190385759 1224.81822916218129649 50.009497869018190385759 96.12135907437901494
52.009497869018190385759 1227.30820446734423967 52.009497869018190385759 95.72161272978325997
54.009497869018218807469 1229.66345503540355821 54.009497869018218807469 95.34775287581454961
56.009497869018190385759 1231.89544992770652243 56.009497869018190385759 95.00213837731044464
58.009497869018218807469 1234.01435072065305576 58.009497869018218807469 94.69288967587689854
60.009497869018190385759 1236.02914160615955552 60.009497869018190385759 94.39210585556915589
62.009497869018190385759 1237.94782939185051873 62.009497869018190385759 94.11111141659527846
64.009497869018218807469 1239.77758921643248868 64.009497869018218807469 93.84758469324435737
66.009497869018190385759 1241.52483038743457655 66.009497869018190385759 93.60233237331273415
68.009497869018190385759 1243.19536955783860321 68.009497869018190385759 93.37298945781643056
70.009497869018190385759 1244.79442473484323273 70.009497869018190385759 93.15141725094548519
72.009497869018190385759 1246.32674835429247651 72.009497869018190385759 92.94368646807072309
74.009497869018218807469 1247.79666726471623406 74.009497869018218807469 92.74538349660426206
76.009497869018190385759 1249.20810323450086798 76.009497869018190385759 92.55675479458206212
78.009497869018190385759 1250.56466107372261831 78.009497869018190385759 92.37789388778487876
80.009497869018218807469 1251.86963880505686575 80.009497869018218807469 92.20654217252642582
82.009497869018190385759 1253.12605302128736184 82.009497869018190385759 92.04248728232464316
84.009497869018218807469 1254.33669507197214443 84.009497869018218807469 91.88409480535567297
86.009497869018190385759 1255.50413662971232043 86.009497869018190385759 91.73424925955696096
88.009497869018190385759 1256.63074186141398059 88.009497869018190385759 91.58881338682462570
91.009497869018218807469 1258.24884516557335701 91.009497869018218807469 91.38224461935453746
94.009497869018218807469 1259.78672764442990228 94.009497869018218807469 91.18695868795981596
97.009497869018218807469 1261.25042295765024392 97.009497869018218807469 91.00356918079832269
99.504748934509137825444 1262.41527334111242453 99.504748934509137825444 90.83213811022970674
nan nan nan nan

