Time Pressure difference Time.1 Pressure.1 difference.1
(hr) (psi) (hr) (psi)
0.000200000000020850166 0.59135228857315802 0.000200000000020850166 0.47133846900260767
0.000399999999999067768 1.18249426470270125 0.000399999999999067768 1.23434164764417464
0.000600000000019917934 1.77345889969193515 0.000600000000019917934 1.80624251282832948
0.000799999999998135536 2.36426027041953102 0.000799999999998135536 2.38864115937941168
0.001007140329434719206 2.97599289777388210 0.001007140329434719206 3.00021407355861625
0.001267914553977789183 3.74589550404809524 0.001267914553977789183 3.77583542808342898
0.001596209851982166583 4.71480654626571472 0.001596209851982166583 4.75165616707407956
0.002009509145224797066 5.93407787383334018 0.002009509145224797066 5.97918298496647527
0.002529822128153114136 7.46826478334988320 0.002529822128153114136 7.52308428509178029
0.003184857364431081805 9.39849548204768048 0.003184857364431081805 9.46450503676008559
0.004009497869034817086 11.82668671806820271 0.004009497869034817086 11.90519017862854234
0.005047658755856332391 14.88081060373517062 0.005047658755856332391 14.97259927962533688
0.006354625877790454069 18.72146320847415524 0.006354625877790454069 18.82622825886700824
0.008000000000009777068 23.55003881538361199 0.008000000000009777068 23.66538808933712090
0.010071403294361402914 29.61887471025992369 0.010071403294361402914 29.73872192651373680
0.012679145539692626699 37.24379875386173211 0.012679145539692626699 37.35576449112319608
0.015962098519750611558 46.81958256624228909 0.015962098519750611558 46.90084968304675073
0.020095091452091651263 58.83887044158323221 0.020095091452091651263 58.84963627082505155
0.025298221281360611101 73.91520638838095181 0.025298221281360611101 73.78841860439075617
0.031848573644296607199 92.81079906562068516 0.031848573644296607199 92.43617601084019952
0.040094978690191851456 116.46961463526250213 0.040094978690191851456 115.66892598351842025
0.050476587558435426217 146.05622035317028917 0.050476587558435426217 144.54528911022660509
0.063546258777947173257 183.00044111724665186 0.063546258777947173257 180.33111878746265688
0.080000000000012505552 229.04722652867394572 0.080000000000012505552 224.51942664682775330
0.100714032943542974863 286.31000241668715489 0.100714032943542974863 278.83943839801850118
0.126791455396883634421 357.32399184779438883 0.126791455396883634421 345.24521991291095446
0.159620985197506115583 445.09327891000816635 0.159620985197506115583 425.86972685810570738
0.200950914520774404082 553.12146266881188694 0.200950914520774404082 522.92429195090824123
0.252982212813464002465 685.41033322651855997 0.252982212813464002465 638.51673189143366471
0.318485736442809752589 846.40394715018749139 0.318485736442809752589 774.35438075025808757
0.400949786901833249431 1040.84698994282780404 0.400949786901833249431 931.29384338668342025
0.504765875584169521062 1273.51742043247827496 0.504765875584169521062 1108.70255744797805164
0.635462587779443310865 1548.78692072134322189 0.635462587779443310865 1303.61965571107270989
0.800000000000011368684 1869.96499711982664849 0.800000000000011368684 1509.76545888991336142
1.007140329435344483500 2238.40594970813299369 1.007140329435344483500 1716.57783274449184319
1.267914553968907398485 2652.42121115124018615 1.267914553968907398485 1908.66516113122088427
1.596209851975117999245 3106.16117308425600640 1.596209851975117999245 2066.31209782972655375
2.009509145207687197399 3588.80525638571134550 2.009509145207687197399 2167.77592381663453125
2.529822128134725289783 4084.55934850437643036 2.529822128134725289783 2193.75787602028685797
3.184857364427983839050 4573.95647132571593829 3.184857364427983839050 2133.39519985700189864
4.009497869018204596614 5036.62224612345744390 4.009497869018204596614 1990.00821833245163361
5.009497869018190385759 5442.04925705518962786 5.009497869018190385759 1790.16738769047151436
6.009497869018190385759 5735.21061840213769756 6.009497869018190385759 1599.60320445760498842
7.009497869018204596614 5954.34935500598385261 7.009497869018204596614 1432.53431985982592778
8.009497869018190385759 6123.16593284111331741 8.009497869018190385759 1292.19064427224589053
9.009497869018204596614 6256.78620016877630405 9.009497869018204596614 1177.92731333649726366
10.009497869018190385759 6365.12779816749207384 10.009497869018190385759 1085.92798923760824437
11.009497869018190385759 6454.86975627011543111 11.009497869018190385759 1008.19151969716938311
12.009497869018204596614 6530.61298641891880834 12.009497869018204596614 944.44350619860472307
13.009497869018190385759 6595.59997284672226669 13.009497869018190385759 892.00441021663016272
14.009497869018204596614 6652.16304095118721307 14.009497869018204596614 848.67018858102278500
15.009497869018190385759 6702.01206940798510914 15.009497869018190385759 812.66041837399643555
16.009497869018190385759 6746.42302181759168889 16.009497869018190385759 782.55335134659048890
17.009497869018204596614 6786.36397461454725999 17.009497869018204596614 757.89013455160932153
18.009497869018190385759 6822.58097062111119158 18.009497869018190385759 736.32215267415608650
19.009497869018204596614 6855.65886708995640220 19.009497869018204596614 718.81355772031042761
20.009497869018190385759 6886.05871949732045323 20.009497869018190385759 702.90413020019332180
21.009497869018190385759 6914.15110794127667759 21.009497869018190385759 689.18476741594781743
22.009497869018204596614 6940.23922639023840020 22.009497869018204596614 677.27375789817483565
23.009497869018190385759 6964.56857218145887600 23.009497869018190385759 667.19037849512676530
24.009497869018204596614 6987.34510003016021074 24.009497869018204596614 658.01019429199686783
25.009497869018204596614 7008.74052928290439013 25.009497869018204596614 649.90011210121872409
26.009497869018190385759 7028.89948923598058173 26.009497869018190385759 643.04406906203098515
27.009497869018204596614 7047.94610678001481574 27.009497869018204596614 636.56645625924431897
28.009497869018190385759 7065.98576872856665432 28.009497869018190385759 630.76165010084685036
29.009497869018190385759 7083.11046042516591115 29.009497869018190385759 625.68442219014798411
30.009497869018190385759 7099.39972999740803061 30.009497869018190385759 620.92960859881202396
31.009497869018218807469 7114.92301665328159288 31.009497869018218807469 616.60616768719330594
32.009497869018190385759 7129.74235640560164029 32.009497869018190385759 612.66320825129992045
33.009497869018190385759 7143.91108601170435577 33.009497869018190385759 609.19768081654217440
34.009497869018218807469 7157.47846734650283906 34.009497869018218807469 605.85162659139848529
35.009497869018190385759 7170.48691612680795515 35.009497869018190385759 602.84570863112514871
36.009497869018190385759 7182.97513167654597055 36.009497869018190385759 599.97783145956634598
37.009497869018190385759 7194.97847496995382244 37.009497869018190385759 597.31317330440390378
38.009497869018218807469 7206.52776545804408670 38.009497869018218807469 594.83228399201607317
39.009497869018190385759 7217.65178999061663490 39.009497869018190385759 592.55770312849347192
40.009497869018190385759 7228.37673651032946509 40.009497869018190385759 590.51036036750087987
41.009497869018218807469 7238.72588898377216537 41.009497869018218807469 588.40593128173657078
42.009497869018190385759 7248.72107509127818048 42.009497869018190385759 586.51016149077497630
43.009497869018190385759 7258.38242643380908703 43.009497869018190385759 584.64493328082141943
44.009497869018218807469 7267.72789646491128224 44.009497869018218807469 582.94960040975217908
46.009497869018190385759 7285.53777655170142680 46.009497869018190385759 579.80385428136446535
48.009497869018218807469 7302.27116531256342569 48.009497869018218807469 576.90463684261919752
50.009497869018190385759 7318.03160449000642984 50.009497869018190385759 574.30492690658388710
52.009497869018190385759 7332.90868383430188260 52.009497869018190385759 571.91652647794876430
54.009497869018218807469 7346.98081117791480210 54.009497869018218807469 569.68279239247169699
56.009497869018190385759 7360.31651175293609413 56.009497869018190385759 567.61781837199771417
58.009497869018218807469 7372.97649884356542316 58.009497869018218807469 565.77012234914684541
60.009497869018190385759 7385.01445110907116032 60.009497869018190385759 563.97300221268642417
62.009497869018190385759 7396.47820754290387413 62.009497869018190385759 562.29411947226253687
64.009497869018218807469 7407.41063809145907726 64.009497869018218807469 560.71960266299777231
66.009497869018190385759 7417.85003702072299347 66.009497869018190385759 559.25427157500291742
68.009497869018190385759 7427.83115761027966073 68.009497869018190385759 557.88399583619730038
70.009497869018190385759 7437.38517635692096519 70.009497869018190385759 556.56014844892638394
72.009497869018190385759 7446.54048806640366820 72.009497869018190385759 555.31900066217042422
74.009497869018218807469 7455.32294474969057774 74.009497869018218807469 554.13418206794653997
76.009497869018190385759 7463.75597814899174409 76.009497869018190385759 553.00716520124240105
78.009497869018190385759 7471.86112624720044550 78.009497869018190385759 551.93850885894994462
80.009497869018218807469 7479.65809403693674540 80.009497869018218807469 550.91471835854019901
82.009497869018190385759 7487.16490502634769655 82.009497869018190385759 549.93452485489774517
84.009497869018218807469 7494.39823694262213394 84.009497869018218807469 548.98816308073855907
86.009497869018190385759 7501.37345498929062160 86.009497869018190385759 548.09286742474796483
88.009497869018190385759 7508.10468456693615735 88.009497869018190385759 547.22391863892698893
91.009497869018218807469 7517.77251187161982671 91.009497869018218807469 545.98971365009310830
94.009497869018218807469 7526.96103659823256748 94.009497869018218807469 544.82292123646573145
97.009497869018218807469 7535.70630859570883331 97.009497869018218807469 543.72720745838330458
99.504748934509137825444 7542.66604492042733909 99.504748934509137825444 542.70294282666657182
nan nan nan nan

