Time Pressure difference Time.1 Pressure.1 difference.1
(hr) (psi) (hr) (psi)
0.000200000000020850166 0.66870216598146137 0.000200000000020850166 0.53299033625611325
0.000399999999999067768 1.33716651029672562 0.000399999999999067768 1.39579561843307509
0.000600000000019917934 2.00543031695121776 0.000600000000019917934 2.04250208201684469
0.000799999999998135536 2.67350950410309851 0.000799999999998135536 2.70107945448811115
0.001007140329434719206 3.36525779157552885 0.001007140329434719206 3.39264713803252826
0.001267914553977789183 4.23586495816409059 0.001267914553977789183 4.26972107479476382
0.001596209851982166583 5.33151119999667333 0.001596209851982166583 5.37318081340022502
0.002009509145224797066 6.71026527505204662 0.002009509145224797066 6.76127021084816615
0.002529822128153114136 8.44512642167834926 0.002529822128153114136 8.50711640677045189
0.003184857364431081805 10.62783455353914874 0.003184857364431081805 10.70247826941647062
0.004009497869034817086 13.37363730144421403 0.004009497869034817086 13.46240914714113579
0.005047658755856332391 16.82724574599588863 0.005047658755856332391 16.93104053561008371
0.006354625877790454069 21.17026219354883310 0.006354625877790454069 21.28873068935171986
0.008000000000009777068 26.63042363933674395 0.008000000000009777068 26.76086079300568699
0.010071403294361402914 33.49307351202388361 0.010071403294361402914 33.62859694643747588
0.012679145539692626699 42.11535048959891725 0.012679145539692626699 42.24196153426589717
0.015962098519750611558 52.94366298629929446 0.015962098519750611558 53.03555997914147468
0.020095091452091651263 66.53509400145276231 0.020095091452091651263 66.54726801932959290
0.025298221281360611101 83.58344013538436457 0.025298221281360611101 83.44006829526044555
0.031848573644296607199 104.95060822610273021 0.031848573644296607199 104.52698384348174443
0.040094978690191851456 131.70403680274409908 0.040094978690191851456 130.79861672397862549
0.050476587558435426217 165.16062048375374616 0.050476587558435426217 163.45205688413807366
0.063546258777947173257 206.93720767688651563 0.063546258777947173257 203.91873348118139120
0.080000000000012505552 259.00699033622203160 0.080000000000012505552 253.88694658797402326
0.100714032943542974863 323.75983395642259666 0.100714032943542974863 315.31210755556526237
0.126791455396883634421 404.06257305995313800 0.126791455396883634421 390.40387736987401013
0.159620985197506115583 503.31223100372233148 0.159620985197506115583 481.57420589861749249
0.200950914520774404082 625.47068352422604676 0.200950914520774404082 591.32367191073183221
0.252982212813464002465 775.06316162323605568 0.252982212813464002465 722.03579808820347807
0.318485736442809752589 957.11501196730057472 0.318485736442809752589 875.64124067961665787
0.400949786901833249431 1176.99153293113022301 0.400949786901833249431 1053.10864990561685772
0.504765875584169521062 1440.09564842153690734 0.504765875584169521062 1253.72272319011858599
0.635462587779443310865 1751.37086393805907392 0.635462587779443310865 1474.13530688003174873
0.800000000000011368684 2114.55957480216693511 0.800000000000011368684 1707.24532904007082834
1.007140329435344483500 2531.19322583029406815 1.007140329435344483500 1941.10911044524800673
1.267914553968907398485 2999.36238223009468129 1.267914553968907398485 2158.32178558298392090
1.596209851975117999245 3512.45229698979164823 1.596209851975117999245 2336.58920767243353112
2.009509145207687197399 4058.22704097624819042 2.009509145207687197399 2451.32467334539251169
2.529822128134725289783 4618.82660505980038579 2.529822128134725289783 2480.70510874867841267
3.184857364427983839050 5172.23769753287706408 3.184857364427983839050 2412.44689266530167515
4.009497869018204596614 5695.42093654466862063 4.009497869018204596614 2250.30465195399619915
5.009497869018190385759 6153.87848477126954094 5.009497869018190385759 2024.32430337994242109
6.009497869018190385759 6485.38584696950601938 6.009497869018190385759 1808.83400335290343719
7.009497869018204596614 6733.18830017554319056 7.009497869018204596614 1619.91222667693409676
8.009497869018190385759 6924.08637131400246290 8.009497869018190385759 1461.21136145553532515
9.009497869018204596614 7075.18439512756140175 9.009497869018204596614 1332.00219398388730951
10.009497869018190385759 7197.69725699952687137 10.009497869018190385759 1227.96920301974250833
11.009497869018190385759 7299.17761468519347545 11.009497869018190385759 1140.06467206262209402
12.009497869018204596614 7384.82818717413556442 12.009497869018204596614 1067.97831080686114547
13.009497869018190385759 7458.31558110937294259 13.009497869018190385759 1008.68009256564096177
14.009497869018204596614 7522.27719398699628073 14.009497869018204596614 959.67768160216917295
15.009497869018190385759 7578.64655949932512158 15.009497869018190385759 918.95777267608025340
16.009497869018190385759 7628.86653943930286914 16.009497869018190385759 884.91265046787452775
17.009497869018204596614 7674.03183627299040381 17.009497869018204596614 857.02344329042750815
18.009497869018190385759 7714.98607648294546379 18.009497869018190385759 832.63433298174618358
19.009497869018204596614 7752.39061763758763846 19.009497869018204596614 812.83558425756621091
20.009497869018190385759 7786.76682204760254535 20.009497869018190385759 794.84517676646328255
21.009497869018190385759 7818.53374231334237265 21.009497869018190385759 779.33129817499582259
22.009497869018204596614 7848.03423068600841361 22.009497869018204596614 765.86230850932849989
23.009497869018190385759 7875.54589596890673420 23.009497869018190385759 754.46000606199982030
24.009497869018204596614 7901.30163210161663301 24.009497869018204596614 744.07903827111886130
25.009497869018204596614 7925.49561961104882357 25.009497869018204596614 734.90814364188440777
26.009497869018190385759 7948.29140554954756226 26.009497869018190385759 727.15531860179021351
27.009497869018204596614 7969.82935281453137577 27.009497869018204596614 719.83042311171936944
28.009497869018190385759 7990.22863299264190573 28.009497869018190385759 713.26633851066230818
29.009497869018190385759 8009.59326326558857545 29.009497869018190385759 707.52500062008289206
30.009497869018190385759 8028.01319679031621490 30.009497869018190385759 702.14824938599838333
31.009497869018218807469 8045.56695554041925789 31.009497869018218807469 697.25929510619323537
32.009497869018190385759 8062.32468994388636929 32.009497869018190385759 692.80058992130113893
33.009497869018190385759 8078.34671329593584232 33.009497869018190385759 688.88176564908565069
34.009497869018218807469 8093.68873100785913266 34.009497869018218807469 685.09804188394434732
35.009497869018190385759 8108.39870684381821775 35.009497869018190385759 681.69894478118794723
36.009497869018190385759 8122.52040206461788330 36.009497869018190385759 678.45594443529023465
37.009497869018190385759 8136.09380291961133480 37.009497869018190385759 675.44274449611918953
38.009497869018218807469 8149.15376009601641272 38.009497869018218807469 672.63735067451602845
39.009497869018190385759 8161.73282581217517873 39.009497869018190385759 670.06525079508980980
40.009497869018190385759 8173.86061343784058408 40.009497869018190385759 667.75011214552841921
41.009497869018218807469 8185.56345252173377958 41.009497869018218807469 665.37042018356703466
42.009497869018190385759 8196.86602584161300911 42.009497869018190385759 663.22668050433605913
43.009497869018190385759 8207.79109824582701549 43.009497869018190385759 661.11747729645628624
44.009497869018218807469 8218.35897152994220960 44.009497869018218807469 659.20039202452994687
46.009497869018190385759 8238.49841399095384986 46.009497869018190385759 655.64317699327295941
48.009497869018218807469 8257.42055824374256190 48.009497869018218807469 652.36473702034572852
50.009497869018190385759 8275.24248946549414541 50.009497869018190385759 649.42498063698087662
52.009497869018190385759 8292.06551589701666671 52.009497869018190385759 646.72417340122478890
54.009497869018218807469 8307.97830124760002946 54.009497869018218807469 644.19826312735199281
56.009497869018190385759 8323.05833396534399071 56.009497869018190385759 641.86318701981178947
58.009497869018218807469 8337.37426873449658160 58.009497869018218807469 639.77380923869770868
60.009497869018190385759 8350.98680547354888404 60.009497869018190385759 637.74162275527396559
62.009497869018190385759 8363.95004059703933308 62.009497869018190385759 635.84313931884548765
64.009497869018218807469 8376.31245151270377391 64.009497869018218807469 634.06267305351639152
66.009497869018190385759 8388.11734144115325762 66.009497869018190385759 632.40567418607918171
68.009497869018190385759 8399.40400944959947083 68.009497869018190385759 630.85616406793621991
70.009497869018190385759 8410.20770997322688345 70.009497869018190385759 629.35915520806872792
72.009497869018190385759 8420.56055190631377627 72.009497869018190385759 627.95566319604085948
74.009497869018218807469 8430.49176874648765079 74.009497869018218807469 626.61586832999853414
76.009497869018190385759 8440.02785714738274692 76.009497869018190385759 625.34143575499149392
78.009497869018190385759 8449.19317229641274025 78.009497869018190385759 624.13299735948771740
80.009497869018218807469 8458.00999663248694560 80.009497869018218807469 622.97529333370789573
82.009497869018190385759 8466.49871116903523216 82.009497869018190385759 621.86688886545391597
84.009497869018218807469 8474.67817510811437387 84.009497869018218807469 620.79674137399968004
86.009497869018190385759 8482.56576344780478394 86.009497869018190385759 619.78433953515798294
88.009497869018190385759 8490.17744921493067523 88.009497869018190385759 618.80173078157133659
91.009497869018218807469 8501.10984464807552285 91.009497869018218807469 617.40608969715162857
94.009497869018218807469 8511.50024391698934778 94.009497869018218807469 616.08667886655189250
97.009497869018218807469 8521.38941225168673554 97.009497869018218807469 614.84764387699033250
99.504748934509137825444 8529.25949383406987181 99.504748934509137825444 613.68940370272844120
nan nan nan nan

