Time Pressure difference Time.1 Pressure.1 difference.1
(hr) (psi) (hr) (psi)
0.000200000000020850166 0.54311258008195806 0.000200000000020850166 0.43288891738214175
0.000399999999999067768 1.08603200400965405 0.000399999999999067768 1.13364992392636577
0.000600000000019917934 1.62878855344421036 0.000600000000019917934 1.65889783526990020
0.000799999999998135536 2.17139515693945651 0.000799999999998135536 2.19378716888151315
0.001007140329434719206 2.73322554465027423 0.001007140329434719206 2.75547087205875751
0.001267914553977789183 3.44032315631983998 0.001267914553977789183 3.46782072368281202
0.001596209851982166583 4.33019504178834236 0.001596209851982166583 4.36403864570938627
0.002009509145224797066 5.45000401070769414 0.002009509145224797066 5.49142966129832377
0.002529822128153114136 6.85903924546761434 0.002529822128153114136 6.90938683286207134
0.003184857364431081805 8.63181089982719563 0.003184857364431081805 8.69243570886686001
0.004009497869034817086 10.86192183811327183 0.004009497869034817086 10.93402135955617283
0.005047658755856332391 13.66690481608870122 0.005047658755856332391 13.75120580815097604
0.006354625877790454069 17.19425523928779498 0.006354625877790454069 17.29047405490879541
0.008000000000009777068 21.62893860259564249 0.008000000000009777068 21.73487823113521600
0.010071403294361402914 27.20270771561143519 0.010071403294361402914 27.31277836570108164
0.012679145539692626699 34.20562670361703539 0.012679145539692626699 34.30845880830301553
0.015962098519750611558 43.00026359459382519 0.015962098519750611558 43.07490132634251978
0.020095091452091651263 54.03907510316997076 0.020095091452091651263 54.04896270724157148
0.025298221281360611101 67.88555523433581129 0.025298221281360611101 67.76911019503117473
0.031848573644296607199 85.23973528811578149 0.031848573644296607199 84.89567220123578295
0.040094978690191851456 106.96857715446753900 0.040094978690191851456 106.23320487656474143
0.050476587558435426217 134.14164822872041327 0.050476587558435426217 132.75397157380865565
0.063546258777947173257 168.07213509080457925 0.063546258777947173257 165.62056338707893133
0.080000000000012505552 210.36264264869771523 0.080000000000012505552 206.20419915665053168
0.100714032943542974863 262.95419349943279030 0.100714032943542974863 256.09304257933348481
0.126791455396883634421 328.17519926386739826 0.126791455396883634421 317.08175612254694897
0.159620985197506115583 408.78468513113273275 0.159620985197506115583 391.12929906939950797
0.200950914520774404082 508.00044321059658614 0.200950914520774404082 480.26661412650230432
0.252982212813464002465 629.49781659200641570 0.252982212813464002465 586.42957232785681754
0.318485736442809752589 777.35833683413841300 0.318485736442809752589 711.18623154700208033
0.400949786901833249431 955.93964055227354493 0.400949786901833249431 855.32331889100464650
0.504765875584169521062 1169.62992340704431626 0.504765875584169521062 1018.25987343675069496
0.635462587779443310865 1422.44424645715503175 0.635462587779443310865 1197.27656143365766184
0.800000000000011368684 1717.42214222116285782 0.800000000000011368684 1386.60596997906236538
1.007140329435344483500 2055.80743341689321824 1.007140329435344483500 1576.54757353326726843
1.267914553968907398485 2436.04929800528816486 1.267914553968907398485 1752.96533082797077441
1.596209851975117999245 2852.77531086359977053 1.596209851975117999245 1897.75217986330744679
2.009509145207687197399 3296.04758427548495092 2.009509145207687197399 1990.93906927181751598
2.529822128134725289783 3751.36041430851946643 2.529822128134725289783 2014.80153732946178025
3.184857364427983839050 4200.83484637931451289 3.184857364427983839050 1959.36296133139535414
4.009497869018204596614 4625.75854672098103038 4.009497869018204596614 1827.67280811686509878
5.009497869018190385759 4998.11274944731212599 5.009497869018190385759 1644.13404242176920889
6.009497869018190385759 5267.35940058592950663 6.009497869018190385759 1469.11517934010703357
7.009497869018204596614 5468.62184081421673909 7.009497869018204596614 1315.67498012442524669
8.009497869018190385759 5623.66716476124838664 8.009497869018190385759 1186.77987441600066632
9.009497869018204596614 5746.38732589340543200 9.009497869018204596614 1081.83760282522189300
10.009497869018190385759 5845.89093136901828984 10.009497869018190385759 997.34314623369652963
11.009497869018190385759 5928.31216715103437309 11.009497869018190385759 925.94804832946795159
12.009497869018204596614 5997.87662465759967745 12.009497869018204596614 867.40029472248784259
13.009497869018190385759 6057.56228167216522706 13.009497869018190385759 819.23893090219337410
14.009497869018204596614 6109.51120357401578076 14.009497869018204596614 779.43970906245829156
15.009497869018190385759 6155.29378526499931468 15.009497869018190385759 746.36744472323437094
16.009497869018190385759 6196.08190330082652508 16.009497869018190385759 718.71636909890787592
17.009497869018204596614 6232.76466304261521145 17.009497869018204596614 696.06506028438946032
18.009497869018190385759 6266.02724868577479356 18.009497869018190385759 676.25649183716450352
19.009497869018204596614 6296.40680760863870091 19.009497869018204596614 660.17616482610787898
20.009497869018190385759 6324.32678457348811207 20.009497869018190385759 645.56455277176678464
21.009497869018190385759 6350.12752951568745630 21.009497869018190385759 632.96435038342326607
22.009497869018204596614 6374.08750328104815708 22.009497869018204596614 622.02498439874557334
23.009497869018190385759 6396.43217670111516782 23.009497869018190385759 612.76415915234554177
24.009497869018204596614 6417.35070368452124967 24.009497869018204596614 604.33285073512513463
25.009497869018204596614 6437.00079552986881026 25.009497869018204596614 596.88435049521217479
26.009497869018190385759 6455.51528336300270894 26.009497869018190385759 590.58759085443921322
27.009497869018204596614 6473.00816839289655036 27.009497869018204596614 584.63839091038892093
28.009497869018190385759 6489.57624047785429866 28.009497869018190385759 579.30711324311255339
29.009497869018190385759 6505.30398123436407332 29.009497869018190385759 574.64406144889812822
30.009497869018190385759 6520.26444963193625881 30.009497869018190385759 570.27712294658817882
31.009497869018218807469 6534.52142035807719367 31.009497869018218807469 566.30636779147300786
32.009497869018190385759 6548.13186882258469268 32.009497869018190385759 562.68505624205170079
33.009497869018190385759 6561.14478082368896139 33.009497869018190385759 559.50223006076237198
34.009497869018218807469 6573.60539968673219846 34.009497869018218807469 556.42913103260661956
35.009497869018190385759 6585.55268105598588591 35.009497869018190385759 553.66842156979566880
36.009497869018190385759 6597.02216734850208013 36.009497869018190385759 551.03449218438379376
37.009497869018190385759 6608.04633495834059431 37.009497869018190385759 548.58720417408676440
38.009497869018218807469 6618.65348923221245059 38.009497869018218807469 546.30869401798383933
39.009497869018190385759 6628.87006872555957671 39.009497869018190385759 544.21966264825073267
40.009497869018190385759 6638.72012509317119111 40.009497869018190385759 542.33933237690303031
41.009497869018218807469 6648.22504290633332857 41.009497869018218807469 540.40657261177773307
42.009497869018190385759 6657.40486924698234361 42.009497869018190385759 538.66545070812378526
43.009497869018190385759 6666.27809347577658627 43.009497869018190385759 536.95237894849003624
44.009497869018218807469 6674.86120448887049861 44.009497869018218807469 535.39534327365436184
46.009497869018190385759 6691.21823922399653384 46.009497869018190385759 532.50621215995920466
48.009497869018218807469 6706.58659767806420859 48.009497869018218807469 529.84349909737034068
50.009497869018190385759 6721.06137515045611508 50.009497869018190385759 527.45586113923945959
52.009497869018190385759 6734.72485308551222261 52.009497869018190385759 525.26229506343247522
54.009497869018218807469 6747.64904317746641027 54.009497869018218807469 523.21077838577218699
56.009497869018190385759 6759.89688069573458051 56.009497869018190385759 521.31425512927489763
58.009497869018218807469 6771.52412622341489623 58.009497869018218807469 519.61728536426562641
60.009497869018190385759 6782.58007956993424159 60.009497869018190385759 517.96676574526600234
62.009497869018190385759 6793.10867725107800652 62.009497869018190385759 516.42483827761952853
64.009497869018218807469 6803.14929208681041928 64.009497869018218807469 514.97876306460966589
66.009497869018190385759 6812.73709447894816549 66.009497869018190385759 513.63296672078320171
68.009497869018190385759 6821.90400269973724789 68.009497869018190385759 512.37447156263976922
70.009497869018190385759 6830.67865001556856441 70.009497869018190385759 511.15861735182699022
72.009497869018190385759 6839.08711491893336643 72.009497869018190385759 510.01871650126196300
74.009497869018218807469 6847.15314053663587401 74.009497869018218807469 508.93054977548382567
76.009497869018190385759 6854.89824716074781463 76.009497869018190385759 507.89546958707643398
78.009497869018190385759 6862.34221580790654116 78.009497869018190385759 506.91398914893710526
80.009497869018218807469 6869.50314403111133288 80.009497869018218807469 505.97371461058617115
82.009497869018190385759 6876.39758506639282132 82.009497869018190385759 505.07348063326048759
84.009497869018218807469 6883.04085615124131436 84.009497869018218807469 504.20431855375841224
86.009497869018190385759 6889.44706906892679399 86.009497869018190385759 503.38205686126633509
88.009497869018190385759 6895.62919693700314383 88.009497869018190385759 502.58399278652495923
91.009497869018218807469 6904.50836884974341956 91.009497869018218807469 501.45046837343284096
94.009497869018218807469 6912.94733741019081208 94.009497869018218807469 500.37885733813237721
97.009497869018218807469 6920.97921169197979907 97.009497869018218807469 499.37252668118742349
99.504748934509137825444 6927.37120581299495825 99.504748934509137825444 498.43181668890758829
nan nan nan nan

