Time Pressure difference Time.1 Pressure.1 difference.1
(hr) (psi) (hr) (psi)
0.000200000000020850166 0.18713680018137910 0.000200000000020850166 0.14915774335525558
0.000399999999999067768 0.37420704579199410 0.000399999999999067768 0.39061444545701729
0.000600000000019917934 0.56122117078858702 0.000600000000019917934 0.57159573190769919
0.000799999999998135536 0.74818362987959841 0.000799999999998135536 0.75589910106943414
0.001007140329434719206 0.94176990435882346 0.001007140329434719206 0.94943483340462542
0.001267914553977789183 1.18540996963547318 0.001267914553977789183 1.19488462914032567
0.001596209851982166583 1.49202738805877066 0.001596209851982166583 1.50368866046648098
0.002009509145224797066 1.87787274488396827 0.002009509145224797066 1.89214651422989721
0.002529822128153114136 2.36337493143983668 0.002529822128153114136 2.38072287502904434
0.003184857364431081805 2.97420743102774709 0.003184857364431081805 2.99509653062028081
0.004009497869034817086 3.74262237913550733 0.004009497869034817086 3.76746524640143710
0.005047658755856332391 4.70911727966302873 0.005047658755856332391 4.73816432899535922
0.006354625877790454069 5.92451367356777059 0.006354625877790454069 5.95766717052753414
0.008000000000009777068 7.45254392891886486 0.008000000000009777068 7.48904686371427886
0.010071403294361402914 9.37306161717086184 0.010071403294361402914 9.41098795142839784
0.012679145539692626699 11.78601226388029488 0.012679145539692626699 11.82144445921620068
0.015962098519750611558 14.81632359691211676 0.015962098519750611558 14.84204103893884685
0.020095091452091651263 18.61989570936178140 0.020095091452091651263 18.62330261734970094
0.025298221281360611101 23.39088809758890974 0.025298221281360611101 23.35076538113631628
0.031848573644296607199 29.37050603342427024 0.031848573644296607199 29.25195443381019089
0.040094978690191851456 36.85747298584256271 0.040094978690191851456 36.60409050111341855
0.050476587558435426217 46.22032289657288118 0.050476587558435426217 45.74218009817297315
0.063546258777947173257 57.91153199912869098 0.063546258777947173257 57.06680974286792463
0.080000000000012505552 72.48329953439048268 0.080000000000012505552 71.05045147051511378
0.100714032943542974863 90.60443114452124291 0.100714032943542974863 88.24032860696789271
0.126791455396883634421 113.07721261006150826 0.126791455396883634421 109.25481642813639382
0.159620985197506115583 140.85230345253424389 0.159620985197506115583 134.76890090446383397
0.200950914520774404082 175.03843755342148825 0.200950914520774404082 165.48237087054059202
0.252982212813464002465 216.90200418560712592 0.252982212813464002465 202.06225692766886937
0.318485736442809752589 267.84935036398337616 0.318485736442809752589 245.04885466780316960
0.400949786901833249431 329.38195884266696112 0.400949786901833249431 294.71324157806441235
0.504765875584169521062 403.01184190901216198 0.504765875584169521062 350.85523969872724592
0.635462587779443310865 490.12244326624784208 0.635462587779443310865 412.53786573135215576
0.800000000000011368684 591.76107503791979525 0.800000000000011368684 477.77387939554216700
1.007140329435344483500 708.35631319877631995 1.007140329435344483500 543.22083314699102630
1.267914553968907398485 839.37380099722804516 1.267914553968907398485 604.00796238329769494
1.596209851975117999245 982.96239654565079036 1.596209851975117999245 653.89623349041983147
2.009509145207687197399 1135.69786594484548914 2.009509145207687197399 686.00503918247932233
2.529822128134725289783 1292.58207231151141059 2.529822128134725289783 694.22717595578694727
3.184857364427983839050 1447.45457953345430724 3.184857364427983839050 675.12506324588662210
4.009497869018204596614 1593.86779940615724627 4.009497869018204596614 629.74943618115560184
5.009497869018190385759 1722.16748640987020735 5.009497869018190385759 566.50866699065556986
6.009497869018190385759 1814.94006911460041920 6.009497869018190385759 506.20354571443198211
7.009497869018204596614 1884.28777057151387453 7.009497869018204596614 453.33364552526137459
8.009497869018190385759 1937.71073824085874548 8.009497869018190385759 408.92108995957147499
9.009497869018204596614 1979.99563296480255303 9.009497869018204596614 372.76180801787887731
10.009497869018190385759 2014.28094878718138716 10.009497869018190385759 343.64809786000262193
11.009497869018190385759 2042.68030261712510764 11.009497869018190385759 319.04794927125618642
12.009497869018204596614 2066.64967924649317865 12.009497869018204596614 298.87452727803946573
13.009497869018190385759 2087.21518128060824893 13.009497869018190385759 282.27987665083230695
14.009497869018204596614 2105.11488637695811121 14.009497869018204596614 268.56651537374136751
15.009497869018190385759 2120.88989538227406229 15.009497869018190385759 257.17101847278371451
16.009497869018190385759 2134.94399424607354376 16.009497869018190385759 247.64346561600962104
17.009497869018204596614 2147.58353627042652079 17.009497869018204596614 239.83865017455991619
18.009497869018190385759 2159.04461095604801812 18.009497869018190385759 233.01333945384689628
19.009497869018204596614 2169.51229971201155422 19.009497869018204596614 227.47264484819950781
20.009497869018190385759 2179.13250617003814114 20.009497869018190385759 222.43801588613712283
21.009497869018190385759 2188.02250251306213613 21.009497869018190385759 218.09644538479361131
22.009497869018204596614 2196.27823619944228994 22.009497869018204596614 214.32713857537174817
23.009497869018190385759 2203.97739625995518509 23.009497869018190385759 211.13619572630591392
24.009497869018204596614 2211.18515823739244297 24.009497869018204596614 208.23107414303700580
25.009497869018204596614 2217.95586369712145824 25.009497869018204596614 205.66459243709454086
26.009497869018190385759 2224.33528140379121396 26.009497869018190385759 203.49495856393383519
27.009497869018204596614 2230.36269201899176551 27.009497869018204596614 201.44508109469757073
28.009497869018190385759 2236.07144580017939006 28.009497869018190385759 199.60811712052117173
29.009497869018190385759 2241.49065203328018470 29.009497869018190385759 198.00139942726198683
30.009497869018190385759 2246.64548417639480249 30.009497869018190385759 196.49671158190253095
31.009497869018218807469 2251.55791666243067084 31.009497869018218807469 195.12853407822572649
32.009497869018190385759 2256.24758114101314277 32.009497869018190385759 193.88076210484172179
33.009497869018190385759 2260.73135633281799528 33.009497869018190385759 192.78407620776653175
34.009497869018218807469 2265.02483143876634131 34.009497869018218807469 191.72519828841726053
35.009497869018190385759 2269.14142915405318490 35.009497869018190385759 190.77395842757124456
36.009497869018190385759 2273.09339610017286759 36.009497869018190385759 189.86640236062225995
37.009497869018190385759 2276.89192245884623844 37.009497869018190385759 189.02315610898855880
38.009497869018218807469 2280.54676122089995260 38.009497869018218807469 188.23806455443548202
39.009497869018190385759 2284.06702214892948177 39.009497869018190385759 187.51826048370048738
40.009497869018190385759 2287.46099256655998033 40.009497869018190385759 186.87036720490533526
41.009497869018218807469 2290.73604081764960938 41.009497869018218807469 186.20440863346092897
42.009497869018190385759 2293.89907439597391203 42.009497869018190385759 185.60448148442242200
43.009497869018190385759 2296.95646406133209894 43.009497869018190385759 185.01421939266501226
44.009497869018218807469 2299.91389128636410533 44.009497869018218807469 184.47772164865577338
46.009497869018190385759 2305.54992928851334000 46.009497869018190385759 183.48223236752039611
48.009497869018218807469 2310.84530547865961125 48.009497869018218807469 182.56475849449972770
50.009497869018190385759 2315.83278623101477933 50.009497869018190385759 181.74206547676703849
52.009497869018190385759 2320.54072273237397894 52.009497869018190385759 180.98624255631290225
54.009497869018218807469 2324.99392758794783731 54.009497869018218807469 180.27936468116195101
56.009497869018190385759 2329.21408599776441406 56.009497869018190385759 179.62589188987269040
58.009497869018218807469 2333.22041102644516286 58.009497869018218807469 179.04117795859076523
60.009497869018190385759 2337.02988959147796777 60.009497869018190385759 178.47246905464757560
62.009497869018190385759 2340.65766061484328020 62.009497869018190385759 177.94117704818432912
64.009497869018218807469 2344.11729053527187716 64.009497869018218807469 177.44291223512587408
66.009497869018190385759 2347.42089779136767902 66.009497869018190385759 176.97919986550726890
68.009497869018190385759 2350.57948025641780987 68.009497869018190385759 176.54556830259409139
70.009497869018190385759 2353.60290391041780822 70.009497869018190385759 176.12662925598937136
72.009497869018190385759 2356.50015445139342773 72.009497869018190385759 175.73386096904127385
74.009497869018218807469 2359.27941289547152337 74.009497869018218807469 175.35891837593243281
76.009497869018190385759 2361.94809435094703076 76.009497869018190385759 175.00226746874761830
78.009497869018190385759 2364.51301463518984747 78.009497869018190385759 174.66408508194618321
80.009497869018218807469 2366.98040950535960292 80.009497869018218807469 174.34010074637347998
82.009497869018190385759 2369.35598260327469688 82.009497869018190385759 174.02991292876507146
84.009497869018218807469 2371.64501169070354081 84.009497869018218807469 173.73043135466409126
86.009497869018190385759 2373.85235917382578918 86.009497869018190385759 173.44710994454047182
88.009497869018190385759 2375.98249511611902562 88.009497869018190385759 173.17212615155915501
91.009497869018218807469 2379.04193413658822465 91.009497869018218807469 172.78155495256109475
94.009497869018218807469 2381.94969512602301620 94.009497869018218807469 172.41231684698280446
97.009497869018218807469 2384.71718626446499911 97.009497869018218807469 172.06557198050103352
99.504748934509137825444 2386.91963446849013053 99.504748934509137825444 171.74143760337551612
nan nan nan nan

