Time Pressure difference Time.1 Pressure.1 difference.1
(hr) (psi) (hr) (psi)
0.000200000000020850166 0.51483413027677183 0.000200000000020850166 0.41034952505290317
0.000399999999999067768 1.02948516153441938 0.000399999999999067768 1.07462374105730540
0.000600000000019917934 1.54398179874726837 0.000600000000019917934 1.57252336911495916
0.000799999999998135536 2.05833629731320622 0.000799999999998135536 2.07956241583102086
0.001007140329434719206 2.59091364799160795 0.001007140329434719206 2.61200071945539181
0.001267914553977789183 3.26119453868603548 0.001267914553977789183 3.28726037972382956
0.001596209851982166583 4.10473312537057300 0.001596209851982166583 4.13681458146111858
0.002009509145224797066 5.16623657370300648 0.002009509145224797066 5.20550529914802862
0.002529822128153114136 6.50190703360559485 0.002529822128153114136 6.54963315396879242
0.003184857364431081805 8.18237511024966935 0.003184857364431081805 8.23984334423979448
0.004009497869034817086 10.29637001193279566 0.004009497869034817086 10.36471550009995468
0.005047658755856332391 12.95530487160628752 0.005047658755856332391 13.03521653176945527
0.006354625877790454069 16.29899539528199881 0.006354625877790454069 16.39020434914019120
0.008000000000009777068 20.50277640889234476 0.008000000000009777068 20.60320003839617087
0.010071403294361402914 25.78633396012783763 0.010071403294361402914 25.89067351970745889
0.012679145539692626699 32.42462929485289891 0.012679145539692626699 32.52210720113257025
0.015962098519750611558 40.76135247328267042 0.015962098519750611558 40.83210401379175636
0.020095091452091651263 51.22540197375530369 0.020095091452091651263 51.23477475617539767
0.025298221281360611101 64.35093214403347872 0.025298221281360611101 64.24055009299279106
0.031848573644296607199 80.80152548750943708 0.031848573644296607199 80.47537686457113182
0.040094978690191851456 101.39900345882909960 0.040094978690191851456 100.70192008972982478
0.050476587558435426217 127.15724387990493938 0.050476587558435426217 125.84181991452919647
0.063546258777947173257 159.32105914426958293 0.063546258777947173257 156.99713435926776128
0.080000000000012505552 199.40961071905650215 0.080000000000012505552 195.46768648999491802
0.100714032943542974863 249.26285723759400526 0.100714032943542974863 242.75894847872496030
0.126791455396883634421 311.08797602501363144 0.126791455396883634421 300.57213941785079214
0.159620985197506115583 387.50033705386090332 0.159620985197506115583 370.76422071050274099
0.200950914520774404082 481.55019042474623348 0.200950914520774404082 455.26038919495391610
0.252982212813464002465 596.72151373729252555 0.252982212813464002465 555.89572016989791337
0.318485736442809752589 736.88332389024753866 0.318485736442809752589 674.15662684164510665
0.400949786901833249431 906.16636677160386171 0.400949786901833249431 810.78887349698607068
0.504765875584169521062 1108.73035618523772428 0.504765875584169521062 965.24174832672076718
0.635462587779443310865 1348.38129947469951730 0.635462587779443310865 1134.93750616758643446
0.800000000000011368684 1628.00046865987746969 0.800000000000011368684 1314.40902820373594295
1.007140329435344483500 1948.76692386685567726 1.007140329435344483500 1494.46086985772217304
1.267914553968907398485 2309.21059029904017734 1.267914553968907398485 1661.69301651227237926
1.596209851975117999245 2704.23877094114595820 1.596209851975117999245 1798.94119346919933378
2.009509145207687197399 3124.43101786604165682 2.009509145207687197399 1887.27608557313192250
2.529822128134725289783 3556.03690115922427140 2.529822128134725289783 1909.89609740725404663
3.184857364427983839050 3982.10837658314812870 3.184857364427983839050 1857.34406288535046770
4.009497869018204596614 4384.90741258849448059 4.009497869018204596614 1732.51067109393466126
5.009497869018190385759 4737.87410705648744624 5.009497869018190385759 1558.52828829873692484
6.009497869018190385759 4993.10179014194545744 6.009497869018190385759 1392.62219909881491731
7.009497869018204596614 5183.88502215007702034 7.009497869018204596614 1247.17122924505247283
8.009497869018190385759 5330.85754209374044876 8.009497869018190385759 1124.98735415544319949
9.009497869018204596614 5447.18798580094608042 9.009497869018204596614 1025.50915183585334489
10.009497869018190385759 5541.51069910784462991 10.009497869018190385759 945.41410033485169606
11.009497869018190385759 5619.64047697777914436 11.009497869018190385759 877.73635821736695561
12.009497869018204596614 5685.58289534924097097 12.009497869018204596614 822.23703282269525516
13.009497869018190385759 5742.16087650087320071 13.009497869018190385759 776.58330509717870882
14.009497869018204596614 5791.40495407705293474 14.009497869018204596614 738.85632451709295765
15.009497869018190385759 5834.80375662945607473 15.009497869018190385759 707.50604637623587223
16.009497869018190385759 5873.46814417030873301 16.009497869018190385759 681.29468985026653627
17.009497869018204596614 5908.24092867286162800 17.009497869018204596614 659.82277536912260985
18.009497869018190385759 5939.77161858574982034 18.009497869018190385759 641.04558720858324250
19.009497869018204596614 5968.56939342993427999 19.009497869018204596614 625.80252071571339911
20.009497869018190385759 5995.03565030779373046 20.009497869018190385759 611.95169703786166338
21.009497869018190385759 6019.49301802482477797 21.009497869018190385759 600.00755419194331353
22.009497869018204596614 6042.20545869980014686 22.009497869018204596614 589.63777234735607635
23.009497869018190385759 6063.38670348849973379 23.009497869018190385759 580.85913402037044762
24.009497869018204596614 6083.21605755087057332 24.009497869018204596614 572.86682175351074875
25.009497869018204596614 6101.84302057119202800 25.009497869018204596614 565.80614541582895072
26.009497869018190385759 6119.39350750643006904 26.009497869018190385759 559.83724156033360941
27.009497869018204596614 6135.97558382113857078 27.009497869018204596614 554.19780087830133652
28.009497869018190385759 6151.68099977916062926 28.009497869018190385759 549.14410887823373741
29.009497869018190385759 6166.58983826044641319 29.009497869018190385759 544.72384997988967825
30.009497869018190385759 6180.77135424528114527 30.009497869018190385759 540.58428652976738249
31.009497869018218807469 6194.28600184019887820 31.009497869018218807469 536.82027819742995689
32.009497869018190385759 6207.18778989460952289 32.009497869018190385759 533.38751885732006031
33.009497869018190385759 6219.52315364450805646 33.009497869018190385759 530.37041410047766021
34.009497869018218807469 6231.33498071376197913 34.009497869018218807469 527.45732329124575699
35.009497869018190385759 6242.66019842826153763 35.009497869018190385759 524.84035674074038980
36.009497869018190385759 6253.53249860447613173 36.009497869018190385759 522.34356916100080070
37.009497869018190385759 6263.98266667567077093 37.009497869018190385759 520.02370502872850011
38.009497869018218807469 6274.03753420327575441 38.009497869018218807469 517.86383092975813724
39.009497869018190385759 6283.72216315638797823 39.009497869018190385759 515.88356995293599994
40.009497869018190385759 6293.05935288311320619 40.009497869018190385759 514.10114355482846804
41.009497869018218807469 6302.06937451611156575 41.009497869018218807469 512.26901752938806567
42.009497869018190385759 6310.77123133825716650 42.009497869018190385759 510.61855128381102986
43.009497869018190385759 6319.18245001761988533 43.009497869018190385759 508.99467468470953690
44.009497869018218807469 6327.31866091670872265 44.009497869018218807469 507.51870978007963231
46.009497869018190385759 6342.82402768706560892 46.009497869018190385759 504.78000815775618548
48.009497869018218807469 6357.39219596128987178 48.009497869018218807469 502.25593559153486467
50.009497869018190385759 6371.11330967554749805 50.009497869018190385759 499.99261568941693668
52.009497869018190385759 6384.06536609484192013 52.009497869018190385759 497.91326285492311854
54.009497869018218807469 6396.31662745306584839 54.009497869018218807469 495.96856327839668666
56.009497869018190385759 6407.92675214496102853 56.009497869018190385759 494.17078702147193781
58.009497869018218807469 6418.94859744608584151 58.009497869018218807469 492.56217402830077390
60.009497869018190385759 6429.42889625388852437 60.009497869018190385759 490.99759264367492051
62.009497869018190385759 6439.40929742483513110 62.009497869018190385759 489.53594930144942055
64.009497869018218807469 6448.92712373925951397 64.009497869018218807469 488.16516743796853461
66.009497869018190385759 6458.01571436825179262 66.009497869018190385759 486.88944318555098789
68.009497869018190385759 6466.70532568321141298 68.009497869018190385759 485.69647457469221763
70.009497869018190385759 6475.02310009132725099 70.009497869018190385759 484.54392670869964377
72.009497869018190385759 6482.99375824627804832 72.009497869018190385759 483.46337751038470287
74.009497869018218807469 6490.63980703243123571 74.009497869018218807469 482.43186877645405275
76.009497869018190385759 6497.98164623660522921 76.009497869018190385759 481.45068250291006962
78.009497869018190385759 6505.03802692970020871 78.009497869018190385759 480.52030518099860501
80.009497869018218807469 6511.82610437252333213 80.009497869018218807469 479.62898827557864934
82.009497869018190385759 6518.36156991745338019 82.009497869018190385759 478.77562712402487932
84.009497869018218807469 6524.65894327353453264 84.009497869018218807469 477.95172003794255033
86.009497869018190385759 6530.73160146043665009 86.009497869018190385759 477.17227135853579512
88.009497869018190385759 6536.59184211945648713 88.009497869018190385759 476.41576039028939249
91.009497869018218807469 6545.00869880243681109 91.009497869018218807469 475.34125562504590334
94.009497869018218807469 6553.00827236892564542 94.009497869018218807469 474.32544057014388272
97.009497869018218807469 6560.62194798979362531 97.009497869018218807469 473.37150691524510648
99.504748934509137825444 6566.68112771553387574 99.504748934509137825444 472.47977722884195373
nan nan nan nan

