Time Pressure difference Time.1 Pressure.1 difference.1
(hr) (psi) (hr) (psi)
0.000200000000020850166 0.79096487543329574 0.000200000000020850166 0.63044006191488022
0.000399999999999067768 1.58164844688082851 0.000399999999999067768 1.65099705613165981
0.000600000000019917934 2.37209481519976118 0.000600000000019917934 2.41594462686320854
0.000799999999998135536 3.16232280895776929 0.000799999999998135536 3.19493353385347456
0.001007140329434719206 3.98054746242329394 0.001007140329434719206 4.01294456252354959
0.001267914553977789183 5.01033280499259970 0.001267914553977789183 5.05037903249977660
0.001596209851982166583 6.30630242686173670 0.001596209851982166583 6.35559073823832588
0.002009509145224797066 7.93714213504290633 0.002009509145224797066 7.99747260014503247
0.002529822128153114136 9.98919804355237595 0.002529822128153114136 10.06252201845609484
0.003184857364431081805 12.57098340847727869 0.003184857364431081805 12.65927466942171975
0.004009497869034817086 15.81881725581274445 0.004009497869034817086 15.92381977479007382
0.005047658755856332391 19.90386903537573460 0.005047658755856332391 20.02664123055371803
0.006354625877790454069 25.04094446027977483 0.006354625877790454069 25.18107324076304110
0.008000000000009777068 31.49941900623040780 0.008000000000009777068 31.65370474396568312
0.010071403294361402914 39.61680710190884724 0.010071403294361402914 39.77710907470402901
0.012679145539692626699 49.81554516866738425 0.012679145539692626699 49.96530524762047776
0.015962098519750611558 62.62366106961520984 0.015962098519750611558 62.73236012458153255
0.020095091452091651263 78.70009253156912621 0.020095091452091651263 78.71449239599806447
0.025298221281360611101 98.86548702580911652 0.025298221281360611101 98.69590167760281929
0.031848573644296607199 124.13933883460659047 0.031848573644296607199 123.63826074023772605
0.040094978690191851456 155.78425248682790993 0.040094978690191851456 154.71328918470604208
0.050476587558435426217 195.35789810951470713 0.050476587558435426217 193.33694788161110978
0.063546258777947173257 244.77274191631727263 0.063546258777947173257 241.20238251318843936
0.080000000000012505552 306.36274603202383560 0.080000000000012505552 300.30657488204388983
0.100714032943542974863 382.95472897084312081 0.100714032943542974863 372.96245557878421550
0.126791455396883634421 477.93968529852662641 0.126791455396883634421 461.78369076958978212
0.159620985197506115583 595.33573592604466285 0.159620985197506115583 569.62322115620054319
0.200950914520774404082 739.82912939246148198 0.200950914520774404082 699.43882087948497883
0.252982212813464002465 916.77247102449939575 0.252982212813464002465 854.04980594761377688
0.318485736442809752589 1132.10992087176987297 0.318485736442809752589 1035.73982572924819578
0.400949786901833249431 1392.18774604167265352 0.400949786901833249431 1245.65463440328562683
0.504765875584169521062 1703.39671846875808114 0.504765875584169521062 1482.94814645995370483
0.635462587779443310865 2071.58419353867429891 0.635462587779443310865 1743.66004582451500937
0.800000000000011368684 2501.17681049360771794 0.800000000000011368684 2019.39093024515841535
1.007140329435344483500 2993.98601712016125020 1.007140329435344483500 2296.01338810128208934
1.267914553968907398485 3547.75326554828370718 1.267914553968907398485 2552.94032100673848618
1.596209851975117999245 4154.65439606628387992 1.596209851975117999245 2763.80141355284104066
2.009509145207687197399 4800.21631339354644297 2.009509145207687197399 2899.51463227794556587
2.529822128134725289783 5463.31355896998775279 2.529822128134725289783 2934.26686370645938950
3.184857364427983839050 6117.90802282806725998 3.184857364427983839050 2853.52860065261438649
4.009497869018204596614 6736.74789882335790026 4.009497869018204596614 2661.74095025901806366
5.009497869018190385759 7279.02790922571784904 5.009497869018190385759 2394.44329914717081920
6.009497869018190385759 7671.14669212437820534 6.009497869018190385759 2139.55365321966564807
7.009497869018204596614 7964.25631028226689523 7.009497869018204596614 1916.09020842010477281
8.009497869018190385759 8190.05738696469597926 8.009497869018190385759 1728.37314022912210021
9.009497869018204596614 8368.78154199789969425 9.009497869018204596614 1575.53990855556799033
10.009497869018190385759 8513.69414354048421956 10.009497869018190385759 1452.48596028827773807
11.009497869018190385759 8633.72874572838190943 11.009497869018190385759 1348.50933225317589859
12.009497869018204596614 8735.03931094851031958 12.009497869018204596614 1263.24300196184685774
13.009497869018190385759 8821.96283287936967099 13.009497869018190385759 1193.10294531085150993
14.009497869018204596614 8897.61891975327671389 14.009497869018204596614 1135.14113831301347091
15.009497869018190385759 8964.29462448241065431 15.009497869018190385759 1086.97617141163232191
16.009497869018190385759 9023.69661568007177266 16.009497869018190385759 1046.70638133700072103
17.009497869018204596614 9077.11974663633554883 17.009497869018204596614 1013.71802807113999734
18.009497869018190385759 9125.56188897422907758 18.009497869018190385759 984.86971475825953348
19.009497869018204596614 9169.80532011610375775 19.009497869018204596614 961.45104555838986471
20.009497869018190385759 9210.46672607869550120 20.009497869018190385759 940.17134714540611640
21.009497869018190385759 9248.04177728854301677 21.009497869018190385759 921.82097582639437405
22.009497869018204596614 9282.93601166964253935 22.009497869018204596614 905.88937237857135187
23.009497869018190385759 9315.47779485874343663 23.009497869018190385759 892.40232060318635376
24.009497869018204596614 9345.94260215004578640 24.009497869018204596614 880.12334004456965886
25.009497869018204596614 9374.56011722650146112 25.009497869018204596614 869.27567736745288585
26.009497869018190385759 9401.52378940002381569 26.009497869018190385759 860.10535819689368964
27.009497869018204596614 9426.99964493360675988 27.009497869018204596614 851.44120942692188692
28.009497869018190385759 9451.12864424875806435 28.009497869018190385759 843.67697502940291088
29.009497869018190385759 9474.03382259399768373 29.009497869018190385759 836.88591491256067911
30.009497869018190385759 9495.82157978556278977 30.009497869018190385759 830.52610095284137515
31.009497869018218807469 9516.58479442654243030 31.009497869018218807469 824.74327070396736872
32.009497869018190385759 9536.40644295601669000 32.009497869018190385759 819.46935449646434790
33.009497869018190385759 9555.35786610004470276 33.009497869018190385759 814.83402877149319465
34.009497869018218807469 9573.50495421452069422 34.009497869018218807469 810.35850476571033596
35.009497869018190385759 9590.90444055779880728 35.009497869018190385759 806.33793095386783989
36.009497869018190385759 9607.60808751673175720 36.009497869018190385759 802.50199397756352937
37.009497869018190385759 9623.66319225939150783 37.009497869018190385759 798.93787315399163163
38.009497869018218807469 9639.11097742700439994 38.009497869018218807469 795.61955285008059491
39.009497869018190385759 9653.98994694947577955 39.009497869018190385759 792.57718097777410549
40.009497869018190385759 9668.33512858132780821 40.009497869018190385759 789.83875205273318443
41.009497869018218807469 9682.17766585593199125 41.009497869018218807469 787.02396715742816014
42.009497869018190385759 9695.54675444698295905 42.009497869018190385759 784.48827507415876426
43.009497869018190385759 9708.46932143256344716 43.009497869018190385759 781.99343396633071279
44.009497869018218807469 9720.96938050370044948 44.009497869018218807469 779.72583683498498885
46.009497869018190385759 9744.79103445945111162 46.009497869018190385759 775.51823547338631215
48.009497869018218807469 9767.17282448980040499 48.009497869018218807469 771.64037923675221009
50.009497869018190385759 9788.25324313642340712 50.009497869018190385759 768.16313008180202360
52.009497869018190385759 9808.15212141550000524 52.009497869018190385759 764.96851853801592824
54.009497869018218807469 9826.97433393839310156 54.009497869018218807469 761.98078138571122508
56.009497869018190385759 9844.81153681721843896 56.009497869018190385759 759.21876972119514448
58.009497869018218807469 9861.74493727177286928 58.009497869018218807469 756.74737883831028284
60.009497869018190385759 9877.84633333998135640 60.009497869018190385759 754.34363587097709569
62.009497869018190385759 9893.17971219873652444 62.009497869018190385759 752.09804165699256373
64.009497869018218807469 9907.80241466241568560 64.009497869018218807469 749.99204238046536375
66.009497869018190385759 9921.76566133151391114 66.009497869018190385759 748.03208476487725420
68.009497869018190385759 9935.11593655045908235 68.009497869018190385759 746.19926869229766453
70.009497869018190385759 9947.89494052803456725 70.009497869018190385759 744.42855298864844826
72.009497869018190385759 9960.14065281455623335 72.009497869018190385759 742.76845236248107085
74.009497869018218807469 9971.88765183819486992 74.009497869018218807469 741.18369500227447588
76.009497869018190385759 9983.16727879000063695 76.009497869018190385759 739.67625050123990604
78.009497869018190385759 9994.00834185806888854 78.009497869018190385759 738.24686627969254005
80.009497869018218807469 10004.43719750931995804 80.009497869018218807469 736.87749248800537316
82.009497869018190385759 10014.47795313650749449 82.009497869018190385759 735.56643197891389718
84.009497869018218807469 10024.15291607937251683 84.009497869018218807469 734.30062319238015789
86.009497869018190385759 10033.48263810803837259 86.009497869018190385759 733.10311803225772564
88.009497869018190385759 10042.48601269079517806 88.009497869018190385759 731.94085320058991329
91.009497869018218807469 10055.41724161731508502 91.009497869018218807469 730.29003893282492754
94.009497869018218807469 10067.70737806599026953 94.009497869018218807469 728.72939253991410169
97.009497869018218807469 10079.40464061113743810 97.009497869018218807469 727.26381757091769487
99.504748934509137825444 10088.71365502015032689 99.504748934509137825444 725.89380960360051631
nan nan nan nan

