Time Pressure difference Time.1 Pressure.1 difference.1
(hr) (psi) (hr) (psi)
0.000200000000020850166 0.02245641602176549 0.000200000000020850166 0.01789892920263067
0.000399999999999067768 0.04490484549503929 0.000399999999999067768 0.04687373345484207
0.000600000000019917934 0.06734654049463044 0.000600000000019917934 0.06859148782892391
0.000799999999998135536 0.08978203558555181 0.000799999999998135536 0.09070789212833208
0.001007140329434719206 0.11301238852305882 0.001007140329434719206 0.11393218000855505
0.001267914553977789183 0.14224919635625680 0.001267914553977789183 0.14338615549683909
0.001596209851982166583 0.17904328656705246 0.001596209851982166583 0.18044263925597770
0.002009509145224797066 0.22534472938607619 0.002009509145224797066 0.22705758170758766
0.002529822128153114136 0.28360499177278042 0.002529822128153114136 0.28568674500348534
0.003184857364431081805 0.35690489172332962 0.003184857364431081805 0.35941158367443371
0.004009497869034817086 0.44911468549626088 0.004009497869034817086 0.45209582956817246
0.005047658755856332391 0.56509407355956343 0.005047658755856332391 0.56857971947944319
0.006354625877790454069 0.71094164082813249 0.006354625877790454069 0.71492006046330403
0.008000000000009777068 0.89430527147026384 0.008000000000009777068 0.89868562364571347
0.010071403294361402914 1.12476739406050341 0.010071403294361402914 1.12931855417140770
0.012679145539692626699 1.41432147166563538 0.012679145539692626699 1.41857333510594419
0.015962098519750611558 1.77795883162945390 0.015962098519750611558 1.78104492467266162
0.020095091452091651263 2.23438748512341379 0.020095091452091651263 2.23479631408196422
0.025298221281360611101 2.80690657171066871 0.025298221281360611101 2.80209184573635772
0.031848573644296607199 3.52446072401091248 0.031848573644296607199 3.51023453205722280
0.040094978690191851456 4.42289675830110784 0.040094978690191851456 4.39249086013361012
0.050476587558435426217 5.54643874758874578 0.050476587558435426217 5.48906161178075624
0.063546258777947173257 6.94938383989544306 0.063546258777947173257 6.84801716914415159
0.080000000000012505552 8.69799594412685906 0.080000000000012505552 8.52605417646181429
0.100714032943542974863 10.87253173734255007 0.100714032943542974863 10.58883943283614570
0.126791455396883634421 13.56926551320738028 0.126791455396883634421 13.11057797137636705
0.159620985197506115583 16.90227641430410799 0.159620985197506115583 16.17226810853566121
0.200950914520774404082 21.00461250641057731 0.200950914520774404082 19.85788450446487019
0.252982212813464002465 26.02824050227285468 0.252982212813464002465 24.24747083132026759
0.318485736442809752589 32.14192204367800798 0.318485736442809752589 29.40586256013638433
0.400949786901833249431 39.52583506112004130 0.400949786901833249431 35.36558898936772977
0.504765875584169521062 48.36142102908145546 0.504765875584169521062 42.10262876384727093
0.635462587779443310865 58.81469319194974332 0.635462587779443310865 49.50454388776226011
0.800000000000011368684 71.01132900455039021 0.800000000000011368684 57.33286552746506004
1.007140329435344483500 85.00275758385315328 1.007140329435344483500 65.18649997763891690
1.267914553968907398485 100.72485611966735064 1.267914553968907398485 72.48095548599573590
1.596209851975117999245 117.95548758547808177 1.596209851975117999245 78.46754801885037978
2.009509145207687197399 136.28374391338144278 2.009509145207687197399 82.32060470189750845
2.529822128134725289783 155.10984867738136472 2.529822128134725289783 83.30726111469444106
3.184857364427983839050 173.69454954401453506 3.184857364427983839050 81.01500758950639636
4.009497869018204596614 191.26413592873888092 4.009497869018204596614 75.56993234173867791
5.009497869018190385759 206.66009836918442488 5.009497869018190385759 67.98104003887867464
6.009497869018190385759 217.79280829375207418 6.009497869018190385759 60.74442548573183132
7.009497869018204596614 226.11453246858167176 7.009497869018204596614 54.40003746303136722
8.009497869018190385759 232.52528858890303809 8.009497869018190385759 49.07053079514857075
9.009497869018204596614 237.59947595577634161 9.009497869018204596614 44.73141696214546670
10.009497869018190385759 241.71371385446173008 10.009497869018190385759 41.23777174320031236
11.009497869018190385759 245.12163631405499586 11.009497869018190385759 38.28575391255073868
12.009497869018204596614 247.99796150957914165 12.009497869018204596614 35.86494327336473731
13.009497869018190385759 250.46582175367296941 13.009497869018190385759 33.87358519809988167
14.009497869018204596614 252.61378636523494379 14.009497869018204596614 32.22798184484896211
15.009497869018190385759 254.50678744587284541 15.009497869018190385759 30.86052221673404361
16.009497869018190385759 256.19327930952880479 16.009497869018190385759 29.71721587392115538
17.009497869018204596614 257.71002435245117113 17.009497869018204596614 28.78063802094719037
18.009497869018190385759 259.08535331472575081 18.009497869018190385759 27.96160073446162642
19.009497869018204596614 260.34147596544136150 19.009497869018204596614 27.29671738178393881
20.009497869018190385759 261.49590074040457921 20.009497869018190385759 26.69256190633645431
21.009497869018190385759 262.56270030156747453 21.009497869018190385759 26.17157344617523407
22.009497869018204596614 263.55338834393313618 22.009497869018204596614 25.71925662904461163
23.009497869018190385759 264.47728755119464950 23.009497869018190385759 25.33634348715671081
24.009497869018204596614 265.34221898848710453 24.009497869018204596614 24.98772889716444112
25.009497869018204596614 266.15470364365461364 25.009497869018204596614 24.67975109245134036
26.009497869018190385759 266.92023376845497751 26.009497869018190385759 24.41939502767206349
27.009497869018204596614 267.64352304227901413 27.009497869018204596614 24.17340973136370863
28.009497869018190385759 268.32857349602153363 28.009497869018190385759 23.95297405446254047
29.009497869018190385759 268.97887824399361989 29.009497869018190385759 23.76016793127143956
30.009497869018190385759 269.59745810116737630 30.009497869018190385759 23.57960538982830556
31.009497869018218807469 270.18694999949173052 31.009497869018218807469 23.41542408938708775
32.009497869018190385759 270.74970973692154530 32.009497869018190385759 23.26569145258100590
33.009497869018190385759 271.28776275993811851 33.009497869018190385759 23.13408914493198054
34.009497869018218807469 271.80297977265200871 34.009497869018218807469 23.00702379461007396
35.009497869018190385759 272.29697149848635718 35.009497869018190385759 22.89287501130855063
36.009497869018190385759 272.77120753202075321 36.009497869018190385759 22.78396828327467105
37.009497869018190385759 273.22703069506155771 37.009497869018190385759 22.68277873307862436
38.009497869018218807469 273.66561134650800113 38.009497869018218807469 22.58856774653225585
39.009497869018190385759 274.08804265787154009 39.009497869018190385759 22.50219125804405707
40.009497869018190385759 274.49531910798719991 40.009497869018190385759 22.42444406458864137
41.009497869018218807469 274.88832489811795767 41.009497869018218807469 22.34452903601530949
42.009497869018190385759 275.26788892751687854 42.009497869018190385759 22.27253777813069036
43.009497869018190385759 275.63477568735987688 43.009497869018190385759 22.20170632711980119
44.009497869018218807469 275.98966695436371310 44.009497869018218807469 22.13732659783869039
46.009497869018190385759 276.66599151462156669 46.009497869018190385759 22.01786788410244711
48.009497869018218807469 277.30143665743912607 48.009497869018218807469 21.90777101933997173
50.009497869018190385759 277.89993434772173941 50.009497869018190385759 21.80904785721204320
52.009497869018190385759 278.46488672788484564 52.009497869018190385759 21.71834910675755026
54.009497869018218807469 278.99927131055369500 54.009497869018218807469 21.63352376173943270
56.009497869018190385759 279.50569031973174106 56.009497869018190385759 21.55510702678472157
58.009497869018218807469 279.98644932317336043 58.009497869018218807469 21.48494135503089097
60.009497869018190385759 280.44358675097737432 60.009497869018190385759 21.41669628655770907
62.009497869018190385759 280.87891927378120727 62.009497869018190385759 21.35294124578211949
64.009497869018218807469 281.29407486423258433 64.009497869018218807469 21.29314946821510546
66.009497869018190385759 281.69050773496411466 66.009497869018190385759 21.23750398386086857
68.009497869018190385759 282.06953763077012809 68.009497869018190385759 21.18546819631129097
70.009497869018190385759 282.43234846925014381 70.009497869018190385759 21.13519551071872371
72.009497869018190385759 282.78001853416719769 72.009497869018190385759 21.08806331628495201
74.009497869018218807469 283.11352954745660782 74.009497869018218807469 21.04307020511189208
76.009497869018190385759 283.43377132211361413 76.009497869018190385759 21.00027209624971292
78.009497869018190385759 283.74156175622277942 78.009497869018190385759 20.95969020983354270
80.009497869018218807469 284.03764914064316827 80.009497869018218807469 20.92081208956481930
82.009497869018190385759 284.32271791239293179 82.009497869018190385759 20.88358955145181284
84.009497869018218807469 284.59740140288442944 84.009497869018218807469 20.84765176255968910
86.009497869018190385759 284.86228310085908788 86.009497869018190385759 20.81365319334485875
88.009497869018190385759 285.11789941393425352 88.009497869018190385759 20.78065513818709675
91.009497869018218807469 285.48503209639062561 91.009497869018218807469 20.73378659430733251
94.009497869018218807469 285.83396341512275285 94.009497869018218807469 20.68947802163793881
97.009497869018218807469 286.16606235173571804 97.009497869018218807469 20.64786863766012459
99.504748934509137825444 286.43035613621879065 99.504748934509137825444 20.60897251240506023
nan nan nan nan

