Time Pressure difference Time.1 Pressure.1 difference.1
(hr) (psi) (hr) (psi)
0.000200000000020850166 0.76434986385194403 0.000200000000020850166 0.60922651619324397
0.000399999999999067768 1.52842788925707818 0.000399999999999067768 1.59544300166666164
0.000600000000019917934 2.29227669313205107 0.000600000000019917934 2.33465101165855771
0.000799999999998135536 3.05591447048600395 0.000799999999998135536 3.08742788392359957
0.001007140329434719206 3.84660685380337242 0.001007140329434719206 3.87791383066155904
0.001267914553977789183 4.84174116486666684 0.001267914553977789183 4.88043988524426364
0.001596209851982166583 6.09410297611560026 0.001596209851982166583 6.14173279541642625
0.002009509145224797066 7.67006690021496418 0.002009509145224797066 7.72836731812122490
0.002529822128153114136 9.65307360885871013 0.002529822128153114136 9.72393032067418517
0.003184857364431081805 12.14798501828666488 0.003184857364431081805 12.23330538506683496
0.004009497869034817086 15.28653318411347328 0.004009497869034817086 15.38800249530186903
0.005047658755856332391 19.23412791115699250 0.005047658755856332391 19.35276897042993483
0.006354625877790454069 24.19834696003902863 0.006354625877790454069 24.33376057651023672
0.008000000000009777068 30.43950164745082887 0.008000000000009777068 30.58859585668187364
0.010071403294361402914 38.28374944968898319 0.010071403294361402914 38.43865745494532149
0.012679145539692626699 48.13931231335995875 0.012679145539692626699 48.28403314675417590
0.015962098519750611558 60.51645060249882135 0.015962098519750611558 60.62149206571022830
0.020095091452091651263 76.05192958623767652 0.020095091452091651263 76.06584491264166559
0.025298221281360611101 95.53878294081869171 0.025298221281360611101 95.37490393450788417
0.031848573644296607199 119.96220019874181162 0.031848573644296607199 119.47798277631805774
0.040094978690191851456 150.54230077328585935 0.040094978690191851456 149.50737409121438759
0.050476587558435426217 188.78434107533544761 0.050476587558435426217 186.83139337875982733
0.063546258777947173257 236.53643514310783758 0.063546258777947173257 233.08621401642500359
0.080000000000012505552 296.05401009824385028 0.080000000000012505552 290.20162178401511710
0.100714032943542974863 370.06876543028897686 0.100714032943542974863 360.41271995468213163
0.126791455396883634421 461.85759283842901368 0.126791455396883634421 446.24522798869929829
0.159620985197506115583 575.30340832390652395 0.159620985197506115583 550.45608858312129996
0.200950914520774404082 714.93477382930814201 0.200950914520774404082 675.90355035567472441
0.252982212813464002465 885.92418598476865554 0.252982212813464002465 825.31206274012311042
0.318485736442809752589 1094.01579104222537353 0.318485736442809752589 1000.88843306538274192
0.400949786901833249431 1345.34231189515980986 0.400949786901833249431 1203.73986226773854469
0.504765875584169521062 1646.07947873058742516 0.504765875584169521062 1433.04873459169039052
0.635462587779443310865 2001.87789049636330674 0.635462587779443310865 1684.98799380938930881
0.800000000000011368684 2417.01523537710409073 0.800000000000011368684 1951.44086739779231721
1.007140329435344483500 2893.24200813189099790 1.007140329435344483500 2218.75531405371020810
1.267914553968907398485 3428.37565829534469231 1.267914553968907398485 2467.03696635666938164
1.596209851975117999245 4014.85529966867989060 1.596209851975117999245 2670.80283812309244240
2.009509145207687197399 4638.69483912583564234 2.009509145207687197399 2801.94947114977094316
2.529822128134725289783 5279.47966424123933393 2.529822128134725289783 2835.53233201497005211
3.184857364427983839050 5912.04781596108750819 3.184857364427983839050 2757.51081387986596383
4.009497869018204596614 6510.06447846337050578 4.009497869018204596614 2572.17658600214190301
5.009497869018190385759 7034.09742226964681322 5.009497869018190385759 2313.87317761961094220
6.009497869018190385759 7413.02188229474631953 6.009497869018190385759 2067.56026005139119661
7.009497869018204596614 7696.26871624542854988 7.009497869018204596614 1851.61608994540097228
8.009497869018190385759 7914.47185974821786658 8.009497869018190385759 1670.21547410153834790
9.009497869018204596614 8087.18216308734918130 9.009497869018204596614 1522.52489585969192376
10.009497869018190385759 8227.21863082408708578 10.009497869018190385759 1403.61156414818833582
11.009497869018190385759 8343.21421380061292439 11.009497869018190385759 1303.13362391237524207
12.009497869018204596614 8441.11580101123217901 12.009497869018204596614 1220.73640252674795192
13.009497869018190385759 8525.11445154168359295 13.009497869018190385759 1152.95647396495519388
14.009497869018204596614 8598.22480257966344652 14.009497869018204596614 1096.94501168208148556
15.009497869018190385759 8662.65695047248664196 15.009497869018190385759 1050.40073767328090071
16.009497869018190385759 8720.06013649840679136 16.009497869018190385759 1011.48597733827944012
17.009497869018204596614 8771.68564370009880804 17.009497869018204596614 979.60764226853586933
18.009497869018190385759 8818.49776652714717784 18.009497869018190385759 951.73003981371243754
19.009497869018204596614 8861.25245971261574596 19.009497869018204596614 929.09938051331266706
20.009497869018190385759 8900.54565853451094881 20.009497869018190385759 908.53571821937782715
21.009497869018190385759 8936.85635470890701981 21.009497869018190385759 890.80281470500142404
22.009497869018204596614 8970.57644029905532079 22.009497869018204596614 875.40729044785166479
23.009497869018190385759 9002.02323183510634408 23.009497869018190385759 862.37406165544507530
24.009497869018204596614 9031.46293520072686078 24.009497869018204596614 850.50825394422668069
25.009497869018204596614 9059.11750550068791199 25.009497869018204596614 840.02560199862159607
26.009497869018190385759 9085.17388271148593049 26.009497869018190385759 831.16385297891201844
27.009497869018204596614 9109.79250651312759146 27.009497869018204596614 822.79124233789821119
28.009497869018190385759 9133.10959417940102867 28.009497869018190385759 815.28826503892878463
29.009497869018190385759 9155.24404097148726578 29.009497869018190385759 808.72571588290566069
30.009497869018190385759 9176.29866648047573108 30.009497869018190385759 802.57990197230424201
31.009497869018218807469 9196.36322405677310599 31.009497869018218807469 796.99165696839759221
32.009497869018190385759 9215.51789808262583392 32.009497869018190385759 791.89520166377576516
33.009497869018190385759 9233.83162875493144384 33.009497869018190385759 787.41584904416640711
34.009497869018218807469 9251.36808929878498020 34.009497869018218807469 783.09092100913539980
35.009497869018190385759 9268.18210396699942066 35.009497869018190385759 779.20563464416875377
36.009497869018190385759 9284.32369340470722818 36.009497869018190385759 775.49877230849722309
37.009497869018190385759 9299.83856328746514919 37.009497869018190385759 772.05457984071324518
38.009497869018218807469 9314.76654916447660071 38.009497869018218807469 768.84791700233870415
39.009497869018190385759 9329.14485935495940794 39.009497869018190385759 765.90791726453664978
40.009497869018190385759 9343.00734297185954347 40.009497869018190385759 763.26163316136899084
41.009497869018218807469 9356.38409560631043860 41.009497869018218807469 760.54156237400252394
42.009497869018190385759 9369.30333053288995870 42.009497869018190385759 758.09119326304096376
43.009497869018190385759 9381.79106876606238075 43.009497869018190385759 755.68030054159612519
44.009497869018218807469 9393.87051596519449959 44.009497869018218807469 753.48900531162064453
46.009497869018190385759 9416.89060007175066858 46.009497869018190385759 749.42298464778343714
48.009497869018218807469 9438.51926993283632328 48.009497869018218807469 745.67561358420118722
50.009497869018190385759 9458.89035798356781015 50.009497869018190385759 742.31536965843952203
52.009497869018190385759 9478.11966307134025556 52.009497869018190385759 739.22825293000687452
54.009497869018218807469 9496.30853090366326796 54.009497869018218807469 736.34104951994595467
56.009497869018190385759 9513.54553347531327745 56.009497869018190385759 733.67197620796889623
58.009497869018218807469 9529.90914548134605866 58.009497869018218807469 731.28374463975524122
60.009497869018190385759 9545.46874904252581473 60.009497869018190385759 728.96088471653831675
62.009497869018190385759 9560.28617824462708086 62.009497869018190385759 726.79085203236184043
64.009497869018218807469 9574.41684445295322803 64.009497869018218807469 724.75571708480299549
66.009497869018190385759 9587.91024475674203131 66.009497869018190385759 722.86170967289410783
68.009497869018190385759 9600.81129935843637213 68.009497869018190385759 721.09056564481761598
70.009497869018190385759 9613.16030530521857145 70.009497869018190385759 719.37943238335208207
72.009497869018190385759 9624.99396418146898213 72.009497869018190385759 717.77519213577306800
74.009497869018218807469 9636.34569089306023670 74.009497869018218807469 716.24375994436400106
76.009497869018190385759 9647.24577203786793689 76.009497869018190385759 714.78703912790683717
78.009497869018190385759 9657.72204644328667200 78.009497869018190385759 713.40575195692690613
80.009497869018218807469 9667.79998371300280269 80.009497869018218807469 712.08245593740991808
82.009497869018190385759 9677.50288005515176337 82.009497869018190385759 710.81551102904495565
84.009497869018218807469 9686.85229219447319338 84.009497869018218807469 709.59229517749463412
86.009497869018190385759 9695.86808035887042934 86.009497869018190385759 708.43508461792305297
88.009497869018190385759 9704.56850227428185462 88.009497869018190385759 707.31192859236819004
91.009497869018218807469 9717.06461098455474712 91.009497869018218807469 705.71666222846067740
94.009497869018218807469 9728.94119920362209086 94.009497869018218807469 704.20852969945428868
97.009497869018218807469 9740.24486300908029079 97.009497869018218807469 702.79226955591309434
99.504748934509137825444 9749.24064034018738312 99.504748934509137825444 701.46836070000927066
nan nan nan nan

