Time Pressure difference Time.1 Pressure.1 difference.1
(hr) (psi) (hr) (psi)
0.000200000000020850166 0.60798667081150282 0.000200000000020850166 0.48459693507863039
0.000399999999999067768 1.21575711321754509 0.000399999999999067768 1.26906293168479833
0.000600000000019917934 1.82334522598425397 0.000600000000019917934 1.85705102233123598
0.000799999999998135536 2.43076548196438402 0.000799999999998135536 2.45583219058558377
0.001007140329434719206 3.05970577816133282 0.001007140329434719206 3.08460828097236073
0.001267914553977789183 3.85126527912680450 0.001267914553977789183 3.88204739511812491
0.001596209851982166583 4.84743120298205010 0.001596209851982166583 4.88531738133776638
0.002009509145224797066 6.10099989560080314 0.002009509145224797066 6.14737378623135555
0.002529822128153114136 7.67834255503342433 0.002529822128153114136 7.73470409620547272
0.003184857364431081805 9.66286947591681411 0.003184857364431081805 9.73073583948188947
0.004009497869034817086 12.15936426288024741 0.004009497869034817086 12.24007597830867056
0.005047658755856332391 15.29939880637188310 0.005047658755856332391 15.39376944220270182
0.006354625877790454069 19.24808664612462294 0.006354625877790454069 19.35579867402500653
0.008000000000009777068 24.21248716462084616 0.008000000000009777068 24.33108114388950227
0.010071403294361402914 30.45203574289732984 0.010071403294361402914 30.57525418886292456
0.012679145539692626699 38.29144428842887038 0.012679145539692626699 38.40655955416463740
0.015962098519750611558 48.13658910819003722 0.015962098519750611558 48.22014221984132121
0.020095091452091651263 60.49397228241538471 0.020095091452091651263 60.50504094792280085
0.025298221281360611101 75.99439644149995843 0.025298221281360611101 75.86404219382509950
0.031848573644296607199 95.42151071303618437 0.031848573644296607199 95.03634973828998511
0.040094978690191851456 119.74583445622627664 0.040094978690191851456 118.92262291695071497
0.050476587558435426217 150.16469349953234769 0.050476587558435426217 148.61126067450862820
0.063546258777947173257 188.14813285050254876 0.063546258777947173257 185.40372409793980069
0.080000000000012505552 235.49018648728642233 0.080000000000012505552 230.83502233309576468
0.100714032943542974863 294.36372962953345223 0.100714032943542974863 286.68302316308233912
0.126791455396883634421 367.37529963535536126 0.126791455396883634421 354.95675915096757080
0.159620985197506115583 457.61348366134456001 0.159620985197506115583 437.84918471628031966
0.200950914520774404082 568.68043489578269600 0.200950914520774404082 537.63383602828969288
0.252982212813464002465 704.69051137635028681 0.252982212813464002465 656.47782139611535968
0.318485736442809752589 870.21277829365271828 0.318485736442809752589 796.13650116517385413
0.400949786901833249431 1070.12538628439801869 0.400949786901833249431 957.49057597140040343
0.504765875584169521062 1309.34069526883490653 0.504765875584169521062 1139.88968986564282204
0.635462587779443310865 1592.35336012278730777 0.635462587779443310865 1340.28968822052638643
0.800000000000011368684 1922.56598156764198393 0.800000000000011368684 1552.23424816951705907
1.007140329435344483500 2301.37095532580178769 1.007140329435344483500 1764.86412902422421212
1.267914553968907398485 2727.03221568432718414 1.267914553968907398485 1962.35475778751401776
1.596209851975117999245 3193.53560833275832920 1.596209851975117999245 2124.43620747331942766
2.009509145207687197399 3689.75617780303127802 2.009509145207687197399 2228.75414952174378413
2.529822128134725289783 4199.45553270984328265 2.529822128134725289783 2255.46695832746809174
3.184857364427983839050 4702.61910061757862422 3.184857364427983839050 2193.40631658996926490
4.009497869018204596614 5178.29938384844808752 4.009497869018204596614 2045.98594599299872243
5.009497869018190385759 5595.13081140273334313 5.009497869018190385759 1840.52371364519649433
6.009497869018190385759 5896.53862454565751250 6.009497869018190385759 1644.59907518777686164
7.009497869018204596614 6121.84160127900759107 7.009497869018204596614 1472.83064390651588837
8.009497869018190385759 6295.40688735141156940 8.009497869018190385759 1328.53918560198553678
9.009497869018204596614 6432.78581198787014728 9.009497869018204596614 1211.06169627141980527
10.009497869018190385759 6544.17499361524096457 10.009497869018190385759 1116.47448682516392182
11.009497869018190385759 6636.44133872497059201 11.009497869018190385759 1036.55133741016993554
12.009497869018204596614 6714.31518012971810094 12.009497869018204596614 971.01013084554142551
13.009497869018190385759 6781.13021118277629284 13.009497869018190385759 917.09595480781524657
14.009497869018204596614 6839.28436418469482305 14.009497869018204596614 872.54276772535536111
15.009497869018190385759 6890.53561566418738948 15.009497869018190385759 835.52006446046596011
16.009497869018190385759 6936.19582130613162008 16.009497869018190385759 804.56610384579130368
17.009497869018204596614 6977.26028894969749672 17.009497869018204596614 779.20912567823688732
18.009497869018190385759 7014.49604715053828841 18.009497869018190385759 757.03444951449807832
19.009497869018204596614 7048.50440484213504533 19.009497869018204596614 739.03334837348370456
20.009497869018190385759 7079.75938671243511635 20.009497869018190385759 722.67639827896107363
21.009497869018190385759 7108.64199705354894832 21.009497869018190385759 708.57111811681841118
22.009497869018204596614 7135.46395849685541179 22.009497869018204596614 696.32505910487441270
23.009497869018190385759 7160.47767407123319572 23.009497869018190385759 685.95804033746503592
24.009497869018204596614 7183.89489187348408450 24.009497869018204596614 676.51962310471128603
25.009497869018204596614 7205.89216161153763096 25.009497869018204596614 668.18140920673818073
26.009497869018190385759 7226.61818091631812422 26.009497869018190385759 661.13250982326951544
27.009497869018204596614 7246.20056829281384125 27.009497869018204596614 654.47268568988420157
28.009497869018190385759 7264.74767502191662061 28.009497869018190385759 648.50459384489317927
29.009497869018190385759 7282.35407393923560448 29.009497869018190385759 643.28454658368229957
30.009497869018190385759 7299.10155081308766967 30.009497869018190385759 638.39598296164774638
31.009497869018218807469 7315.06149813438696583 31.009497869018218807469 633.95092627192445889
32.009497869018190385759 7330.29769695146933373 32.009497869018190385759 629.89705377173027046
33.009497869018190385759 7344.86498435239900573 33.009497869018190385759 626.33404314612141661
34.009497869018218807469 7358.81400791883788770 34.009497869018218807469 622.89386643925786302
35.009497869018190385759 7372.18837649605757179 35.009497869018190385759 619.80339382468707754
36.009497869018190385759 7385.02787799656198331 36.009497869018190385759 616.85484500273275899
37.009497869018190385759 7397.36886807740756922 37.009497869018190385759 614.11523162520279584
38.009497869018218807469 7409.24303312212487072 38.009497869018218807469 611.56455639685475489
39.009497869018190385759 7420.67996973718800291 39.009497869018190385759 609.22599294926681068
40.009497869018190385759 7431.70660251624576631 40.009497869018190385759 607.12105967460365719
41.009497869018218807469 7442.34687038978609053 41.009497869018218807469 604.95743427137756498
42.009497869018190385759 7452.62321503758721519 42.009497869018190385759 603.00833762272361582
43.009497869018190385759 7462.55633435037179879 43.009497869018190385759 601.09064167128053668
44.009497869018218807469 7472.16468680147681880 44.009497869018218807469 599.34762011185489428
46.009497869018190385759 7490.47554804401443107 46.009497869018190385759 596.11338604736636171
48.009497869018218807469 7507.67963691066597676 48.009497869018218807469 593.13261537546361524
50.009497869018190385759 7523.88340771054208744 50.009497869018190385759 590.45977717118535111
52.009497869018190385759 7539.17897029940195353 52.009497869018190385759 588.00419248295440866
54.009497869018218807469 7553.64693807462117547 54.009497869018218807469 585.70762480857501942
56.009497869018190385759 7567.35776384162545583 56.009497869018190385759 583.58456431776414775
58.009497869018218807469 7580.37386871258240717 58.009497869018218807469 581.68489372324370379
60.009497869018190385759 7592.75044129498019174 60.009497869018190385759 579.83722168421058996
62.009497869018190385759 7604.53666626422364061 62.009497869018190385759 578.11111298765672473
64.009497869018218807469 7615.77661947237174900 64.009497869018218807469 576.49230597278676669
66.009497869018190385759 7626.50967237995519099 66.009497869018190385759 574.98575600749245496
68.009497869018190385759 7636.77155585529544624 68.009497869018190385759 573.57693524087233072
70.009497869018190385759 7646.59432337117959833 70.009497869018190385759 572.21584882723664123
72.009497869018190385759 7656.00716846208251809 72.009497869018190385759 570.93978830386299705
74.009497869018218807469 7665.03667034039972350 74.009497869018218807469 569.72164147914043042
76.009497869018190385759 7673.70691986907604587 76.009497869018190385759 568.56292230957558331
78.009497869018190385759 7682.04006088143887609 78.009497869018190385759 567.46420531067849424
80.009497869018218807469 7690.05635265963610436 80.009497869018218807469 566.41161620266234422
82.009497869018190385759 7697.77432570219480112 82.009497869018190385759 565.40385044856577679
84.009497869018218807469 7705.21112687068489322 84.009497869018218807469 564.43086809004205406
86.009497869018190385759 7712.38255358251990401 86.009497869018190385759 563.51038830870697893
88.009497869018190385759 7719.30312857725766662 88.009497869018190385759 562.61699651906542385
91.009497869018218807469 7729.24290601709435578 91.009497869018218807469 561.34807409032077885
94.009497869018218807469 7738.68989838721245178 94.009497869018218807469 560.14846051175311459
97.009497869018218807469 7747.68116959699364088 97.009497869018218807469 559.02192496776115149
99.504748934509137825444 7754.83667909540508845 99.504748934509137825444 557.96884839141102930
nan nan nan nan

