Time Pressure difference Time.1 Pressure.1 difference.1
(hr) (psi) (hr) (psi)
0.000200000000020850166 0.08234019207980681 0.000200000000020850166 0.06562940707631246
0.000399999999999067768 0.16465110014847739 0.000399999999999067768 0.17187035600108760
0.000600000000019917934 0.24693731514697831 0.000600000000019917934 0.25150212203938765
0.000799999999998135536 0.32920079714702333 0.000799999999998135536 0.33259560447055103
0.001007140329434719206 0.41437875791788231 0.001007140329434719206 0.41775132669803516
0.001267914553977789183 0.52158038663960815 0.001267914553977789183 0.52574923682174335
0.001596209851982166583 0.65649205074585892 0.001596209851982166583 0.66162301060525153
0.002009509145224797066 0.82626400774894604 0.002009509145224797066 0.83254446626115486
0.002529822128153114136 1.03988496983352818 0.002529822128153114136 1.04751806501277933
0.003184857364431081805 1.30865126965220879 0.003184857364431081805 1.31784247347292371
0.004009497869034817086 1.64675384681962322 0.004009497869034817086 1.65768470841663240
0.005047658755856332391 2.07201160305173282 0.005047658755856332391 2.08479230475795818
0.006354625877790454069 2.60678601636981933 0.006354625877790454069 2.62137355503211467
0.008000000000009777068 3.27911932872430079 0.008000000000009777068 3.29518062003428280
0.010071403294361402914 4.12414711155517910 0.010071403294361402914 4.14083469862849540
0.012679145539692626699 5.18584539610732964 0.012679145539692626699 5.20143556205512869
0.015962098519750611558 6.51918238264133088 0.015962098519750611558 6.53049805713309262
0.020095091452091651263 8.19275411211918403 0.020095091452091651263 8.19425315163386792
0.025298221281360611101 10.29199076293911830 0.025298221281360611101 10.27433676769997817
0.031848573644296607199 12.92302265470667955 0.031848573644296607199 12.87085995087648271
0.040094978690191851456 16.21728811377072788 0.040094978690191851456 16.10579982048990644
0.050476587558435426217 20.33694207449206814 0.050476587558435426217 20.12655924319610889
0.063546258777947173257 25.48107407961662219 0.063546258777947173257 25.10939628686188740
0.080000000000012505552 31.89265179513181891 0.080000000000012505552 31.26219864702665419
0.100714032943542974863 39.86594970358934376 0.100714032943542974863 38.82574458706586995
0.126791455396883634421 49.75397354842706221 0.126791455396883634421 48.07211922838001072
0.159620985197506115583 61.97501351911505907 0.159620985197506115583 59.29831639796409348
0.200950914520774404082 77.01691252350545369 0.200950914520774404082 72.81224318303786447
0.252982212813464002465 95.43688184166713029 0.252982212813464002465 88.90739304817429911
0.318485736442809752589 117.85371416015269119 0.318485736442809752589 107.82149605383339974
0.400949786901833249431 144.92806189077347767 0.400949786901833249431 129.67382629434834485
0.504765875584169521062 177.32521043996536037 0.504765875584169521062 154.37630546744000526
0.635462587779443310865 215.65387503714907780 0.635462587779443310865 181.51666092179496559
0.800000000000011368684 260.37487301668477357 0.800000000000011368684 210.22050693403855348
1.007140329435344483500 311.67677780746157623 1.007140329435344483500 239.01716658467606180
1.267914553968907398485 369.32447243878033305 1.267914553968907398485 265.76350344865102215
1.596209851975117999245 432.50345448008630456 1.596209851975117999245 287.71434273578472585
2.009509145207687197399 499.70706101573199476 2.009509145207687197399 301.84221724029083589
2.529822128134725289783 568.73611181706507978 2.529822128134725289783 305.45995742054628863
3.184857364427983839050 636.88001499471999978 3.184857364427983839050 297.05502782819013419
4.009497869018204596614 701.30183173870921109 4.009497869018204596614 277.08975191970847618
5.009497869018190385759 757.75369402034289124 5.009497869018190385759 249.26381347588844051
6.009497869018190385759 798.57363041042424356 6.009497869018190385759 222.72956011435005053
7.009497869018204596614 829.08661905146618665 7.009497869018204596614 199.46680403111503210
8.009497869018190385759 852.59272482597793896 8.009497869018190385759 179.92527958221143081
9.009497869018204596614 871.19807850451309150 9.009497869018204596614 164.01519552786672307
10.009497869018190385759 886.28361746635971485 10.009497869018190385759 151.20516305840112636
11.009497869018190385759 898.77933315153495641 11.009497869018190385759 140.38109767935270611
12.009497869018204596614 909.32585886845697587 12.009497869018204596614 131.50479200233735355
13.009497869018190385759 918.37467976346761134 13.009497869018190385759 124.20314572636624462
14.009497869018204596614 926.25055000586155529 14.009497869018204596614 118.16926676444620625
15.009497869018190385759 933.19155396820042370 15.009497869018190385759 113.15524812802480881
16.009497869018190385759 939.37535746827234107 16.009497869018190385759 108.96312487104424349
17.009497869018204596614 944.93675595898764641 17.009497869018204596614 105.52900607680636824
18.009497869018190385759 949.97962882066121892 18.009497869018190385759 102.52586935969263493
19.009497869018204596614 954.58541187328512478 19.009497869018204596614 100.08796373320778628
20.009497869018190385759 958.81830271481669570 20.009497869018190385759 97.87272698990032893
21.009497869018190385759 962.72990110574744449 21.009497869018190385759 95.96243596930918329
22.009497869018204596614 966.36242392775477583 22.009497869018204596614 94.30394097316357715
23.009497869018190385759 969.75005435438038148 23.009497869018190385759 92.89992611957460156
24.009497869018204596614 972.92146962445258396 24.009497869018204596614 91.62167262293627346
25.009497869018204596614 975.90058002673345072 25.009497869018204596614 90.49242067232158604
26.009497869018190385759 978.70752381766817507 26.009497869018190385759 89.53778176813089829
27.009497869018204596614 981.35958448835640411 27.009497869018204596614 88.63583568166693283
28.009497869018190385759 983.87143615207901348 28.009497869018190385759 87.82757153302931385
29.009497869018190385759 986.25588689464325398 29.009497869018190385759 87.12061574799527364
30.009497869018190385759 988.52401303761371310 30.009497869018190385759 86.45855309603712158
31.009497869018218807469 990.68548333146952700 31.009497869018218807469 85.85655499441931227
32.009497869018190385759 992.74893570204585558 32.009497869018190385759 85.30753532613034906
33.009497869018190385759 994.72179678643976786 33.009497869018190385759 84.82499353141727738
34.009497869018218807469 996.61092583305742210 34.009497869018218807469 84.35908724690359861
35.009497869018190385759 998.42222882778344228 35.009497869018190385759 83.94054170813134874
36.009497869018190385759 1000.16109428407617088 36.009497869018190385759 83.54121703867379267
37.009497869018190385759 1001.83244588189234037 37.009497869018190385759 83.17018868795496189
38.009497869018218807469 1003.44057493719606100 38.009497869018218807469 82.82474840395160243
39.009497869018190385759 1004.98948974552888558 39.009497869018190385759 82.50803461282821161
40.009497869018190385759 1006.48283672928641863 40.009497869018190385759 82.22296157015834694
41.009497869018218807469 1007.92385795976588270 41.009497869018218807469 81.92993979872279908
42.009497869018190385759 1009.31559273422851675 42.009497869018190385759 81.66597185314586227
43.009497869018190385759 1010.66084418698619629 43.009497869018190385759 81.40625653277260199
44.009497869018218807469 1011.96211216600022453 44.009497869018218807469 81.17019752540852551
46.009497869018190385759 1014.44196888694591507 46.009497869018190385759 80.73218224170898338
48.009497869018218807469 1016.77193441061012891 48.009497869018218807469 80.32849373757989042
50.009497869018190385759 1018.96642594164654838 50.009497869018190385759 79.96650880977749409
52.009497869018190385759 1021.03791800224439612 52.009497869018190385759 79.63394672477768665
54.009497869018218807469 1022.99732813869707115 54.009497869018218807469 79.32292045971125560
56.009497869018190385759 1024.85419783901625124 56.009497869018190385759 79.03539243154396843
58.009497869018218807469 1026.61698085163561700 58.009497869018218807469 78.77811830177994068
60.009497869018190385759 1028.29315142025029672 60.009497869018190385759 78.52788638404493327
62.009497869018190385759 1029.88937067053097962 62.009497869018190385759 78.29411790120111903
64.009497869018218807469 1031.41160783551958957 64.009497869018218807469 78.07488138345539141
66.009497869018190385759 1032.86519502820192429 66.009497869018190385759 77.87084794082318240
68.009497869018190385759 1034.25497131282372720 68.009497869018190385759 77.68005005314140021
70.009497869018190385759 1035.58527772058391747 70.009497869018190385759 77.49571687263531317
72.009497869018190385759 1036.86006795861294449 72.009497869018190385759 77.32289882637816447
74.009497869018218807469 1038.08294167400754304 74.009497869018218807469 77.15792408541025793
76.009497869018190385759 1039.25716151441656621 76.009497869018190385759 77.00099768624895091
78.009497869018190385759 1040.38572643948350560 78.009497869018190385759 76.85219743605631493
80.009497869018218807469 1041.47138018235818890 80.009497869018218807469 76.70964432840433744
82.009497869018190385759 1042.51663234544071202 82.009497869018190385759 76.57316168865663997
84.009497869018218807469 1043.52380514390938515 84.009497869018218807469 76.44138979605219220
86.009497869018190385759 1044.49503803648349276 86.009497869018190385759 76.31672837559781897
88.009497869018190385759 1045.43229785109224395 88.009497869018190385759 76.19573550668602024
91.009497869018218807469 1046.77845102009905531 91.009497869018218807469 76.02388417912688112
94.009497869018218807469 1048.05786585545001799 94.009497869018218807469 75.86141941267243283
97.009497869018218807469 1049.27556195636452685 97.009497869018218807469 75.70885167142046157
99.504748934509137825444 1050.24463916613558467 99.504748934509137825444 75.56623254548522084
nan nan nan nan

