Time Pressure difference Time.1 Pressure.1 difference.1
(hr) (psi) (hr) (psi)
0.000200000000020850166 0.69282202022706130 0.000200000000020850166 0.55221511206634633
0.000399999999999067768 1.38539764064324933 0.000399999999999067768 1.44614148029197964
0.000600000000019917934 2.07776549007507993 0.000600000000019917934 2.11617442079605977
0.000799999999998135536 2.76994206084313532 0.000799999999998135536 2.79850644973706064
0.001007140329434719206 3.48664146813733300 0.001007140329434719206 3.51501873878245785
0.001267914553977789183 4.38865113202821799 0.001267914553977789183 4.42372842699507185
0.001596209851982166583 5.52381695223535907 0.001596209851982166583 5.56698957408257122
0.002009509145224797066 6.95230220661486964 0.002009509145224797066 7.00514687268224190
0.002529822128153114136 8.74973919061948457 0.002529822128153114136 8.81396513288530592
0.003184857364431081805 11.01117684464939295 0.003184857364431081805 11.08851293336308252
0.004009497869034817086 13.85601974142167947 0.004009497869034817086 13.94799355667732144
0.005047658755856332391 17.43419863981912599 0.005047658755856332391 17.54173727134726590
0.006354625877790454069 21.93386617814201500 0.006354625877790454069 22.05660779133082627
0.008000000000009777068 27.59097374573073225 0.008000000000009777068 27.72611572210664121
0.010071403294361402914 34.70115700934812963 0.010071403294361402914 34.84156872684380346
0.012679145539692626699 43.63443651472127272 0.012679145539692626699 43.76561437567598745
0.015962098519750611558 54.85332247212352286 0.015962098519750611558 54.94853415749359726
0.020095091452091651263 68.93499167065938593 0.020095091452091651263 68.94760480112134360
0.025298221281360611101 86.59826571240692772 0.025298221281360611101 86.44972249994022206
0.031848573644296607199 108.73614011485518915 0.031848573644296607199 108.29723574828393851
0.040094978690191851456 136.45455554314156643 0.040094978690191851456 135.51647727745546490
0.050476587558435426217 171.11790654597871253 0.050476587558435426217 169.34771565234703417
0.063546258777947173257 214.40136069010753772 0.063546258777947173257 211.27401118137325398
0.080000000000012505552 268.34928227621014685 0.080000000000012505552 263.04456033306263407
0.100714032943542974863 335.43773841504975053 0.100714032943542974863 326.68530546490774213
0.126791455396883634421 418.63696935191660486 0.126791455396883634421 404.48560926505604129
0.159620985197506115583 521.46652789316010512 0.159620985197506115583 498.94441979297056378
0.200950914520774404082 648.03119325333375400 0.200950914520774404082 612.65251082293468698
0.252982212813464002465 803.01941994049218465 0.252982212813464002465 748.07937786999184482
0.318485736442809752589 991.63781712532511392 0.318485736442809752589 907.22531528124466149
0.400949786901833249431 1219.44520762640718203 0.400949786901833249431 1091.09391215345635828
0.504765875584169521062 1492.03939693425400037 0.504765875584169521062 1298.94406519573249170
0.635462587779443310865 1814.54220107015316898 0.635462587779443310865 1527.30685401873938645
0.800000000000011368684 2190.83100225149883045 0.800000000000011368684 1768.82507349549609899
1.007140329435344483500 2622.49248397591418325 1.007140329435344483500 2011.12424005086018042
1.267914553968907398485 3107.54833880307069194 1.267914553968907398485 2236.17170073460874846
1.596209851975117999245 3639.14522810012067566 1.596209851975117999245 2420.86916665564331197
2.009509145207687197399 4204.60587703136116033 2.009509145207687197399 2539.74310061780079195
2.529822128134725289783 4785.42607215772841300 2.529822128134725289783 2570.18327809409174733
3.184857364427983839050 5358.79851000607777678 3.184857364427983839050 2499.46301192810506109
4.009497869018204596614 5900.85278624590682739 4.009497869018204596614 2331.47235706178935288
5.009497869018190385759 6375.84673857520829188 5.009497869018190385759 2097.34097601429357383
6.009497869018190385759 6719.31145587760966009 6.009497869018190385759 1874.07801591165275568
7.009497869018204596614 6976.05205727142765681 7.009497869018204596614 1678.34189654463443730
8.009497869018190385759 7173.83575535393447353 8.009497869018190385759 1513.91674638365793726
9.009497869018204596614 7330.38383226524729253 9.009497869018204596614 1380.04704923952499485
10.009497869018190385759 7457.31569039876376337 10.009497869018190385759 1272.26162452169842254
11.009497869018190385759 7562.45640924473445921 11.009497869018190385759 1181.18640774647292346
12.009497869018204596614 7651.19636805479422037 12.009497869018204596614 1106.49991654491941517
13.009497869018190385759 7727.33442669665237190 13.009497869018190385759 1045.06283222285924239
14.009497869018204596614 7793.60311267558245163 14.009497869018204596614 994.29292136145136283
15.009497869018190385759 7852.00570157081801881 15.009497869018190385759 952.10425950146134255
16.009497869018190385759 7904.03709869768499630 16.009497869018190385759 916.83114159171566371
17.009497869018204596614 7950.83149205895733758 17.009497869018204596614 887.93598042403743875
18.009497869018190385759 7993.26293745061411755 18.009497869018190385759 862.66716340024208876
19.009497869018204596614 8032.01664737824830809 19.009497869018204596614 842.15428070466748522
20.009497869018190385759 8067.63278950951917068 20.009497869018190385759 823.51496548067655112
21.009497869018190385759 8100.54553152613698330 21.009497869018190385759 807.44150669125815512
22.009497869018204596614 8131.11009224060308043 22.009497869018204596614 793.48669525904301736
23.009497869018190385759 8159.61409370908040728 23.009497869018190385759 781.67311573339043207
24.009497869018204596614 8186.29883027443520405 24.009497869018204596614 770.91771004955478475
25.009497869018204596614 8211.36548648756615876 25.009497869018204596614 761.41602444488773926
26.009497869018190385759 8234.98350848603695340 26.009497869018190385759 753.38355770558609947
27.009497869018204596614 8257.29832200809141796 27.009497869018204596614 745.79445578614706847
28.009497869018190385759 8278.43339711799853831 28.009497869018190385759 738.99360693952951351
29.009497869018190385759 8298.49650286098949437 29.009497869018190385759 733.04518099070776316
30.009497869018190385759 8317.58083697305301030 30.009497869018190385759 727.47449221211024906
31.009497869018218807469 8335.76775368802191224 31.009497869018218807469 722.40919505405338441
32.009497869018190385759 8353.12993373539575259 32.009497869018190385759 717.78966592592507823
33.009497869018190385759 8369.72986588994353951 33.009497869018190385759 713.72949102697555190
34.009497869018218807469 8385.62526483774490771 34.009497869018218807469 709.80928966334033703
35.009497869018190385759 8400.86582437922879762 35.009497869018190385759 706.28758831185268718
36.009497869018190385759 8415.49688422864164750 36.009497869018190385759 702.92761407288151077
37.009497869018190385759 8429.55987292541794886 37.009497869018190385759 699.80572906127758870
38.009497869018218807469 8443.09089820893314027 38.009497869018218807469 696.89914566153220221
39.009497869018190385759 8456.12368644470188883 39.009497869018190385759 694.23427103521112258
40.009497869018190385759 8468.68891914641972107 40.009497869018190385759 691.83562614082734399
41.009497869018218807469 8480.81387556045410747 41.009497869018218807469 689.37009951854645351
42.009497869018190385759 8492.52412876376183704 42.009497869018190385759 687.14903589566176834
43.009497869018190385759 8503.84326472484281112 43.009497869018190385759 684.96375446262197784
44.009497869018218807469 8514.79231751796214667 44.009497869018218807469 682.97752059257879864
46.009497869018190385759 8535.65818265480811533 46.009497869018190385759 679.29199805397558976
48.009497869018218807469 8555.26284206099262519 48.009497869018218807469 675.89530589297021379
50.009497869018190385759 8573.72760413526702905 50.009497869018190385759 672.84951352065309038
52.009497869018190385759 8591.15743127140922297 52.009497869018190385759 670.05128910848293344
54.009497869018218807469 8607.64418524782377062 54.009497869018218807469 667.43427013070186149
56.009497869018190385759 8623.26814949394429277 56.009497869018190385759 665.01496864117314090
58.009497869018218807469 8638.10045504457229981 58.009497869018218807469 662.85022773113826133
60.009497869018190385759 8652.20399124311734340 60.009497869018190385759 660.74474098898417651
62.009497869018190385759 8665.63480574295317638 62.009497869018190385759 658.77777991616699182
64.009497869018218807469 8678.44312451502810291 64.009497869018218807469 656.93309285271038789
66.009497869018190385759 8690.67381271204249060 66.009497869018190385759 655.21632661318903956
68.009497869018190385759 8702.36758690487113199 68.009497869018190385759 653.61092620471504233
70.009497869018190385759 8713.56097314390353858 70.009497869018190385759 652.05992075661845320
72.009497869018190385759 8724.28723848004665342 72.009497869018190385759 650.60580527649494798
74.009497869018218807469 8734.57667085301363841 74.009497869018218807469 649.21768447622991971
76.009497869018190385759 8744.45672264150562114 76.009497869018190385759 647.89728356207444904
78.009497869018190385759 8753.95262751605878293 78.009497869018190385759 646.64525721449410867
80.009497869018218807469 8763.08747163539737812 80.009497869018218807469 645.44579520768490966
82.009497869018190385759 8771.88237114901130553 82.009497869018190385759 644.29741097627254476
84.009497869018218807469 8780.35686550380523840 84.009497869018218807469 643.18866363748963977
86.009497869018190385759 8788.52895640798669774 86.009497869018190385759 642.13974481689876939
88.009497869018190385759 8796.41519302989763673 88.009497869018190385759 641.12169370777235144
91.009497869018218807469 8807.74191615901509067 91.009497869018218807469 639.67571233548176224
94.009497869018218807469 8818.50709351100886124 94.009497869018218807469 638.30871081571865489
97.009497869018218807469 8828.75296070355216216 97.009497869018218807469 637.02498426558827305
99.504748934509137825444 8836.90691338778742647 99.504748934509137825444 635.82496677160804666
nan nan nan nan

