Time Pressure difference Time.1 Pressure.1 difference.1
(hr) (psi) (hr) (psi)
0.000200000000020850166 0.02911016891710342 0.000200000000020850166 0.02320231563303976
0.000399999999999067768 0.05820998490097685 0.000399999999999067768 0.06076224707109158
0.000600000000019917934 0.08730107101155798 0.000600000000019917934 0.08891489163008653
0.000799999999998135536 0.11638412020349309 0.000799999999998135536 0.11758430461080085
0.001007140329434719206 0.14649754067803922 0.001007140329434719206 0.14768986297405284
0.001267914553977789183 0.18439710638774029 0.001267914553977789183 0.18587094231071732
0.001596209851982166583 0.23209314925358651 0.001596209851982166583 0.23390712496145255
0.002009509145224797066 0.29211353809306173 0.002009509145224797066 0.29433390221353956
0.002529822128153114136 0.36763610044619682 0.002529822128153114136 0.37033466944896248
0.003184857364431081805 0.46265448927098290 0.003184857364431081805 0.46590390476315480
0.004009497869034817086 0.58218570342107889 0.004009497869034817086 0.58605014944022360
0.005047658755856332391 0.73252935461424884 0.005047658755856332391 0.73704778451038921
0.006354625877790454069 0.92159101588831982 0.006354625877790454069 0.92674822652650524
0.008000000000009777068 1.15928461116515669 0.008000000000009777068 1.16496284546666540
0.010071403294361402914 1.45803180711546743 0.010071403294361402914 1.46393145911108413
0.012679145539692626699 1.83337968549249042 0.012679145539692626699 1.83889136032252032
0.015962098519750611558 2.30476144840855168 0.015962098519750611558 2.30876193939048724
0.020095091452091651263 2.89642822145627710 0.020095091452091651263 2.89695818492106483
0.025298221281360611101 3.63858259295827446 0.025298221281360611101 3.63234128151009328
0.031848573644296607199 4.56874538297710853 0.031848573644296607199 4.55030402303714077
0.040094978690191851456 5.73338468668662049 0.040094978690191851456 5.69396963350653262
0.050476587558435426217 7.18982800613355977 0.050476587558435426217 7.11545023749357419
0.063546258777947173257 9.00846053319779472 0.063546258777947173257 8.87705929333501054
0.080000000000012505552 11.27517992757185361 0.080000000000012505552 11.05229245096901813
0.100714032943542974863 14.09402262248108428 0.100714032943542974863 13.72627333886167023
0.126791455396883634421 17.58978862823179057 0.126791455396883634421 16.99519366659899333
0.159620985197506115583 21.91035831483866048 0.159620985197506115583 20.96405125180548623
0.200950914520774404082 27.22820139719889809 0.200950914520774404082 25.74170213541742669
0.252982212813464002465 33.74031176220555750 0.252982212813464002465 31.43190663319293421
0.318485736442809752589 41.66545450106408310 0.318485736442809752589 38.11871072610271227
0.400949786901833249431 51.23719359774820248 0.400949786901833249431 45.84428202325445767
0.504765875584169521062 62.69073096362411235 0.504765875584169521062 54.57748173091312793
0.635462587779443310865 76.24126895252744873 0.635462587779443310865 64.17255689154366394
0.800000000000011368684 92.05172278367642491 0.800000000000011368684 74.32038123930655615
1.007140329435344483500 110.18875983092075899 1.007140329435344483500 84.50101848953194406
1.267914553968907398485 130.56925793290213278 1.267914553968907398485 93.95679414851298361
1.596209851975117999245 152.90526168487900804 1.596209851975117999245 101.71719187628752934
2.009509145207687197399 176.66411248030928505 2.009509145207687197399 106.71189498394122097
2.529822128134725289783 201.06832235956841259 2.529822128134725289783 107.99089403756687489
3.184857364427983839050 225.15960126075955827 3.184857364427983839050 105.01945428269348781
4.009497869018204596614 247.93499101873555901 4.009497869018204596614 97.96102340595754754
5.009497869018190385759 267.89272010820201331 5.009497869018190385759 88.12357042076864388
6.009497869018190385759 282.32401075116007405 6.009497869018190385759 78.74277377780052234
7.009497869018204596614 293.11143097779103073 7.009497869018204596614 70.51856708170733157
8.009497869018190385759 301.42167039302245257 8.009497869018190385759 63.60994732704445198
9.009497869018204596614 307.99932068341377089 9.009497869018204596614 57.98517013611449045
10.009497869018190385759 313.33259203356146827 10.009497869018190385759 53.45637077822262739
11.009497869018190385759 317.75026929599727055 11.009497869018190385759 49.62968099775095965
12.009497869018204596614 321.47883899389893259 12.009497869018204596614 46.49159313213947087
13.009497869018190385759 324.67791708809460260 13.009497869018190385759 43.91020303457391805
14.009497869018204596614 327.46231565863791957 14.009497869018204596614 41.77701350258199398
15.009497869018190385759 329.91620594835370639 15.009497869018190385759 40.00438065132190246
16.009497869018190385759 332.10239910494470905 16.009497869018190385759 38.52231687360150403
17.009497869018204596614 334.06855008651081107 17.009497869018204596614 37.30823447159821171
18.009497869018190385759 335.85138392649633943 18.009497869018190385759 36.24651947059840751
19.009497869018204596614 337.47969106631296654 19.009497869018204596614 35.38463364305325598
20.009497869018190385759 338.97616762645037625 20.009497869018190385759 34.60146913784355149
21.009497869018190385759 340.35905594647636008 21.009497869018190385759 33.92611372652345381
22.009497869018204596614 341.64328118657999767 22.009497869018204596614 33.33977711172449432
23.009497869018190385759 342.84092830710415001 23.009497869018190385759 32.84340822409203042
24.009497869018204596614 343.96213572581660856 24.009497869018204596614 32.39150042225019632
25.009497869018204596614 345.01535657510783039 25.009497869018204596614 31.99226993465914859
26.009497869018190385759 346.00771044058978987 26.009497869018190385759 31.65477133216748840
27.009497869018204596614 346.94530764739874940 27.009497869018204596614 31.33590150361962756
28.009497869018190385759 347.83333601336130414 28.009497869018190385759 31.05015155208107558
29.009497869018190385759 348.67632364962139491 29.009497869018190385759 30.80021768868520127
30.009497869018190385759 349.47818642743919781 30.009497869018190385759 30.56615513496261727
31.009497869018218807469 350.24234259193372054 31.009497869018218807469 30.35332752327956030
32.009497869018190385759 350.97184595526869089 32.009497869018190385759 30.15922966075315514
33.009497869018190385759 351.66932209621614902 33.009497869018190385759 29.98863407676368098
34.009497869018218807469 352.33719600158593721 34.009497869018218807469 29.82391973375379735
35.009497869018190385759 352.97755564618609014 35.009497869018190385759 29.67594908873330439
36.009497869018190385759 353.59230606002688546 36.009497869018190385759 29.53477370054124052
37.009497869018190385759 354.18318793804274947 37.009497869018190385759 29.40360206139821742
38.009497869018218807469 354.75171841214000779 38.009497869018218807469 29.28147670846773920
39.009497869018190385759 355.29931455650012140 39.009497869018190385759 29.16950718635341033
40.009497869018190385759 355.82726551035375451 40.009497869018190385759 29.06872378742972174
41.009497869018218807469 356.33671746052328899 41.009497869018218807469 28.96513023187170077
42.009497869018190385759 356.82874490604041284 42.009497869018190385759 28.87180823091015469
43.009497869018190385759 357.30433885398497296 43.009497869018190385759 28.77998968330344454
44.009497869018218807469 357.76438308899003005 44.009497869018218807469 28.69653447867978713
46.009497869018190385759 358.64110011154650692 46.009497869018190385759 28.54168059050317652
48.009497869018218807469 359.46482529668037387 48.009497869018218807469 28.39896243247773810
50.009497869018190385759 360.24065563593563866 50.009497869018190385759 28.27098796305265083
52.009497869018190385759 360.97300131392483991 52.009497869018190385759 28.15341550875978527
54.009497869018218807469 361.66572206923632393 54.009497869018218807469 28.04345672818074675
56.009497869018190385759 362.32219115520780406 56.009497869018190385759 27.94180540509130850
58.009497869018218807469 362.94539727078034730 58.009497869018218807469 27.85084990466967270
60.009497869018190385759 363.53798282534108921 60.009497869018190385759 27.76238407516740025
62.009497869018190385759 364.10230276230896607 62.009497869018190385759 27.67973865193978966
64.009497869018218807469 364.64046741659780082 64.009497869018218807469 27.60223079213069397
66.009497869018190385759 365.15436187865725515 66.009497869018190385759 27.53009775685668004
68.009497869018190385759 365.64569692877608986 68.009497869018190385759 27.46264395818130311
70.009497869018190385759 366.11600727495385854 70.009497869018190385759 27.39747566204279394
72.009497869018190385759 366.56669069243901049 72.009497869018190385759 27.33637837296197759
74.009497869018218807469 366.99901978374009559 74.009497869018218807469 27.27805396958948947
76.009497869018190385759 367.41414801014730074 76.009497869018190385759 27.22257493958296237
78.009497869018190385759 367.81313560991844724 78.009497869018190385759 27.16996879052496183
80.009497869018218807469 368.19695258972262764 80.009497869018218807469 27.11957122721365465
82.009497869018190385759 368.56648618273158036 82.009497869018190385759 27.07131978891901269
84.009497869018218807469 368.92255737410943084 84.009497869018218807469 27.02473376628108070
86.009497869018190385759 369.26592253815073263 86.009497869018190385759 26.98066154692851626
88.009497869018190385759 369.59727701806292544 88.009497869018190385759 26.93788629024253467
91.009497869018218807469 370.07318975458042587 91.009497869018218807469 26.87713077039839504
94.009497869018218807469 370.52550813071468383 94.009497869018218807469 26.81969373175288140
97.009497869018218807469 370.95600675225006171 97.009497869018218807469 26.76575564141127117
99.504748934509137825444 371.29860980620952660 99.504748934509137825444 26.71533473830285743
nan nan nan nan

