Time Pressure difference Time.1 Pressure.1 difference.1
(hr) (psi) (hr) (psi)
0.000200000000020850166 0.07734987740830336 0.000200000000020850166 0.06165186725350564
0.000399999999999067768 0.15467224559402423 0.000399999999999067768 0.16145397078890047
0.000600000000019917934 0.23197141725928266 0.000600000000019917934 0.23625956918851568
0.000799999999998135536 0.30924923368356738 0.000799999999998135536 0.31243829510869942
0.001007140329434719206 0.38926489380164703 0.001007140329434719206 0.39243306447391185
0.001267914553977789183 0.48996945411599568 0.001267914553977789183 0.49388564671133456
0.001596209851982166583 0.61670465373095851 0.001596209851982166583 0.62152464632614546
0.002009509145224797066 0.77618740121870688 0.002009509145224797066 0.78208722588169088
0.002529822128153114136 0.97686163832846573 0.002529822128153114136 0.98403212167867171
0.003184857364431081805 1.22933907149146870 0.003184857364431081805 1.23797323265638282
0.004009497869034817086 1.54695058337600955 0.004009497869034817086 1.55721896851259411
0.005047658755856332391 1.94643514226071845 0.005047658755856332391 1.95844125598474861
0.006354625877790454069 2.44879898507467830 0.006354625877790454069 2.46250243048471384
0.008000000000009777068 3.08038482395313062 0.008000000000009777068 3.09547270366856830
0.010071403294361402914 3.87419880176395681 0.010071403294361402914 3.88987501992373774
0.012679145539692626699 4.87155173573718869 0.012679145539692626699 4.88619704314269665
0.015962098519750611558 6.12408042005700803 0.015962098519750611558 6.13471029609472307
0.020095091452091651263 7.69622355986953632 0.020095091452091651263 7.69763174850454224
0.025298221281360611101 9.66823374700341631 0.025298221281360611101 9.65164969086967695
0.031848573644296607199 12.13980916048203085 0.031848573644296607199 12.09080783264154491
0.040094978690191851456 15.23442216748159161 0.040094978690191851456 15.12969074046021412
0.050476587558435426217 19.10440013058345698 0.050476587558435426217 18.90676777391149699
0.063546258777947173257 23.93676655963985667 0.063546258777947173257 23.58761469371874497
0.080000000000012505552 29.95976380754807167 0.080000000000012505552 29.36751994114624864
0.100714032943542974863 37.44983153973544887 0.100714032943542974863 36.47266915754672567
0.126791455396883634421 46.73858121215875627 0.126791455396883634421 45.15865745696304145
0.159620985197506115583 58.21895209371415092 0.159620985197506115583 55.70447904051172117
0.200950914520774404082 72.34922085541421666 0.200950914520774404082 68.39937995982344887
0.252982212813464002465 89.65282839671760939 0.252982212813464002465 83.51906619676979915
0.318485736442809752589 110.71106481711312597 0.318485736442809752589 101.28685992935864135
0.400949786901833249431 136.14454298830236212 0.400949786901833249431 121.81480651893329537
0.504765875584169521062 166.57822798905834816 0.504765875584169521062 145.02016574214059119
0.635462587779443310865 202.58394321671576677 0.635462587779443310865 170.51565116895886831
0.800000000000011368684 244.59457768234020136 0.800000000000011368684 197.47987015015743850
1.007140329435344483500 292.78727612216084708 1.007140329435344483500 224.53127770075630565
1.267914553968907398485 346.94117107885421092 1.267914553968907398485 249.65662445176309348
1.596209851975117999245 406.29112390553564182 1.596209851975117999245 270.27710984270686367
2.009509145207687197399 469.42178459053616280 2.009509145207687197399 283.54874952875815097
2.529822128134725289783 534.26725655542475124 2.529822128134725289783 286.94723272839195261
3.184857364427983839050 598.28122620716112579 3.184857364427983839050 279.05169280829983336
4.009497869018204596614 658.79869042121163147 4.009497869018204596614 260.29643362154428132
5.009497869018190385759 711.82922771607968571 5.009497869018190385759 234.15691568947096357
6.009497869018190385759 750.17522856736820813 6.009497869018190385759 209.23079889529853403
7.009497869018204596614 778.83894516955911058 7.009497869018204596614 187.37790681710802687
8.009497869018190385759 800.92043847288823599 8.009497869018190385759 169.02071718328951988
9.009497869018204596614 818.39819495878521138 9.009497869018204596614 154.07488064738993216
10.009497869018190385759 832.56945883203479752 10.009497869018190385759 142.04121378213443450
11.009497869018190385759 844.30785841507838541 11.009497869018190385759 131.87315236545254038
12.009497869018204596614 854.21520075521721083 12.009497869018204596614 123.53480460825632292
13.009497869018190385759 862.71560826265135802 13.009497869018190385759 116.67568234901069957
14.009497869018204596614 870.11415303580929503 14.009497869018204596614 111.00749302114644479
15.009497869018190385759 876.63449009133989875 15.009497869018190385759 106.29735430208391733
16.009497869018190385759 882.44351762171038445 16.009497869018190385759 102.35929912128398200
17.009497869018204596614 887.66786165844291645 17.009497869018204596614 99.13330873881810135
18.009497869018190385759 892.40510586183313535 18.009497869018190385759 96.31218030759004023
19.009497869018204596614 896.73175054763146363 19.009497869018204596614 94.02202653725579751
20.009497869018190385759 900.70810255028243319 20.009497869018190385759 91.94104656627000338
21.009497869018190385759 904.38263437206569506 21.009497869018190385759 90.14653075904801938
22.009497869018204596614 907.79500429576955867 22.009497869018204596614 88.58855061115366425
23.009497869018190385759 910.97732378744819925 23.009497869018190385759 87.26962756687311185
24.009497869018204596614 913.95653207145562646 24.009497869018204596614 86.06884397912196505
25.009497869018204596614 916.75509032814363763 25.009497869018204596614 85.00803154066574052
26.009497869018190385759 919.39191631356709422 26.009497869018190385759 84.11124953975932783
27.009497869018204596614 921.88324603451667372 27.009497869018204596614 83.26396685247500784
28.009497869018190385759 924.24286426407422823 28.009497869018190385759 82.50468840981542940
29.009497869018190385759 926.48280284042255062 29.009497869018190385759 81.84057842993496479
30.009497869018190385759 928.61346679290977590 30.009497869018190385759 81.21864078718638780
31.009497869018218807469 930.64393888713811975 31.009497869018218807469 80.65312741899997206
32.009497869018190385759 932.58233353828529744 32.009497869018190385759 80.13738167000124690
33.009497869018190385759 934.43562728423137287 33.009497869018190385759 79.68408483254349051
34.009497869018218807469 936.21026366135686203 34.009497869018218807469 79.24641529254580519
35.009497869018190385759 937.91179071700867098 35.009497869018190385759 78.85323615006278430
36.009497869018190385759 939.54527038807157169 36.009497869018190385759 78.47811297572387446
37.009497869018190385759 941.11532794965648918 37.009497869018190385759 78.12957119171527154
38.009497869018218807469 942.62599463797198496 38.009497869018218807469 77.80506668249999791
39.009497869018190385759 944.08103582155752065 39.009497869018190385759 77.50754766659619577
40.009497869018190385759 945.48387692751146005 40.009497869018190385759 77.23975177802755354
41.009497869018218807469 946.83756353796184158 41.009497869018218807469 76.96448890183052072
42.009497869018190385759 948.14495075033596549 42.009497869018190385759 76.71651901356128178
43.009497869018190385759 949.40867181201724634 43.009497869018190385759 76.47254401563486681
44.009497869018218807469 950.63107506503058630 44.009497869018218807469 76.25079161477771095
46.009497869018190385759 952.96063743925219569 46.009497869018190385759 75.83932271190843721
48.009497869018218807469 955.14939293117924990 48.009497869018218807469 75.46010017772655942
50.009497869018190385759 957.21088497548612395 50.009497869018190385759 75.12005373039704637
52.009497869018190385759 959.15683206271455674 52.009497869018190385759 74.80764692327601040
54.009497869018218807469 960.99749006968511367 54.009497869018218807469 74.51547073488026740
56.009497869018190385759 962.74182221240937452 56.009497869018190385759 74.24536864781404688
58.009497869018218807469 964.39776989093047632 58.009497869018218807469 74.00368688955084906
60.009497869018190385759 965.97235436447761003 60.009497869018190385759 73.76862054258766932
62.009497869018190385759 967.47183305413523158 62.009497869018190385759 73.54901984658286551
64.009497869018218807469 968.90181342124560615 64.009497869018218807469 73.34307039051870447
66.009497869018190385759 970.26730442043208313 66.009497869018190385759 73.15140261107633535
68.009497869018190385759 971.57285183931924166 68.009497869018190385759 72.97216823173889111
70.009497869018190385759 972.82253361630614563 70.009497869018190385759 72.79900675914227293
72.009497869018190385759 974.02006383990931226 72.009497869018190385759 72.63666253387040683
74.009497869018218807469 975.16882399679502669 74.009497869018218807469 72.48168626205206522
76.009497869018190385759 976.27187899839134388 76.009497869018190385759 72.33427055374900760
78.009497869018190385759 977.33204604921172631 78.009497869018190385759 72.19448850053775857
80.009497869018218807469 978.35190259554872227 80.009497869018218807469 72.06057497516771093
82.009497869018190385759 979.33380614268673980 82.009497869018190385759 71.93236401055622764
84.009497869018218807469 980.27993816549076200 84.009497869018218807469 71.80857829326114938
86.009497869018190385759 981.19230845851473077 86.009497869018190385759 71.69147211041006074
88.009497869018190385759 982.07276464799588211 88.009497869018190385759 71.57781214264444714
91.009497869018218807469 983.33733277645660564 91.009497869018218807469 71.41637604705859133
94.009497869018218807469 984.53920731875609818 94.009497869018218807469 71.26375763008623210
97.009497869018218807469 985.68310365597869804 97.009497869018218807469 71.12043641860708476
99.504748934509137825444 986.59344891364241903 99.504748934509137825444 70.98646087606188360
nan nan nan nan

