Time Pressure difference Time.1 Pressure.1 difference.1
(hr) (psi) (hr) (psi)
0.000200000000020850166 0.69781233489856476 0.000200000000020850166 0.55619265188915312
0.000399999999999067768 1.39537649519770235 0.000399999999999067768 1.45655786550416666
0.000600000000019917934 2.09273138796277580 0.000600000000019917934 2.13141697364693128
0.000799999999998135536 2.78989362430659149 0.000799999999998135536 2.81866375909891209
0.001007140329434719206 3.51175533225356817 0.001007140329434719206 3.54033700100658111
0.001267914553977789183 4.42026206455183068 0.001267914553977789183 4.45559201710548169
0.001596209851982166583 5.56360434925025960 0.001596209851982166583 5.60708793836167718
0.002009509145224797066 7.00237881314510791 0.002009509145224797066 7.05560411306170554
0.002529822128153114136 8.81276252212454558 0.002529822128153114136 8.87745107621941365
0.003184857364431081805 11.09048904281013215 0.003184857364431081805 11.16838217417962476
0.004009497869034817086 13.95582300486529270 0.004009497869034817086 14.04845929658135972
0.005047658755856332391 17.55977510061013547 0.005047658755856332391 17.66808832012047503
0.006354625877790454069 22.09185320943715070 0.006354625877790454069 22.21547891587822576
0.008000000000009777068 27.78970825050189930 0.008000000000009777068 27.92582363847235527
0.010071403294361402914 34.95110531913935148 0.010071403294361402914 35.09252840554855624
0.012679145539692626699 43.94873017509141278 0.012679145539692626699 44.08085289458841771
0.015962098519750611558 55.24842443470784303 0.015962098519750611558 55.34432191853196770
0.020095091452091651263 69.43152222290903808 0.020095091452091651263 69.44422620425066839
0.025298221281360611101 87.22202272834263681 0.025298221281360611101 87.07240957677052506
0.031848573644296607199 109.51935360907984318 0.031848573644296607199 109.07728786651888697
0.040094978690191851456 137.43742148943073289 0.040094978690191851456 136.49258635748515189
0.050476587558435426217 172.35044848988732724 0.050476587558435426217 170.56750712163167805
0.063546258777947173257 215.94566821008430679 0.063546258777947173257 212.79579277451639996
0.080000000000012505552 270.28217026379388699 0.080000000000012505552 264.93923903894301475
0.100714032943542974863 337.85385657890367384 0.100714032943542974863 329.03838089442695036
0.126791455396883634421 421.65236168818489659 0.126791455396883634421 407.39907103647300346
0.159620985197506115583 525.22258931856094932 0.159620985197506115583 502.53825715042290767
0.200950914520774404082 652.69888492142501946 0.200950914520774404082 617.06537404614925890
0.252982212813464002465 808.80347338544163449 0.252982212813464002465 753.46770472139644426
0.318485736442809752589 998.78046646836469336 0.318485736442809752589 913.75995140571933462
0.400949786901833249431 1228.22872652887826916 0.400949786901833249431 1098.95293192887129408
0.504765875584169521062 1502.78637938516089889 0.504765875584169521062 1308.30020492103176366
0.635462587779443310865 1827.61213289058650844 0.635462587779443310865 1538.30786377157551215
0.800000000000011368684 2206.61129758584320371 0.800000000000011368684 1781.56571027937729923
1.007140329435344483500 2641.38198566121445765 1.007140329435344483500 2025.61012893478005026
1.267914553968907398485 3129.93164016299670038 1.267914553968907398485 2252.27857973149684767
1.596209851975117999245 3665.35755867467105418 1.596209851975117999245 2438.30639954872140152
2.009509145207687197399 4234.89115345655682177 2.009509145207687197399 2558.03656832933347687
2.529822128134725289783 4819.89492741936919629 2.529822128134725289783 2588.69600278624557177
3.184857364427983839050 5397.39729879363676446 3.184857364427983839050 2517.46634694799513454
4.009497869018204596614 5943.35592756340429332 4.009497869018204596614 2348.26567535995354774
5.009497869018190385759 6421.77120487947104266 5.009497869018190385759 2112.44787380071102234
6.009497869018190385759 6767.70985772066615027 6.009497869018190385759 1887.57677713070415848
7.009497869018204596614 7026.29973115333450551 7.009497869018204596614 1690.43079375864135727
8.009497869018190385759 7225.50804170702485862 8.009497869018190385759 1524.82130878257976292
9.009497869018204596614 7383.18371581097471790 9.009497869018204596614 1389.98736412000175733
10.009497869018190385759 7511.02984903308879439 10.009497869018190385759 1281.42557379796517125
11.009497869018190385759 7616.92788398119046178 11.009497869018190385759 1189.69435306037303235
12.009497869018204596614 7706.30702616803500860 12.009497869018204596614 1114.46990393900046001
13.009497869018190385759 7782.99349819746657886 13.009497869018190385759 1052.59029560021485850
14.009497869018204596614 7849.73950964563391608 14.009497869018204596614 1001.45469510475118113
15.009497869018190385759 7908.56276544767843006 15.009497869018190385759 958.96215332740223403
16.009497869018190385759 7960.96893854424797610 16.009497869018190385759 923.43496734147595362
17.009497869018204596614 8008.10038635950149910 17.009497869018204596614 894.33167776202560617
18.009497869018190385759 8050.83746040944151900 18.009497869018190385759 868.88085245234458398
19.009497869018204596614 8089.87030870390117343 19.009497869018204596614 848.22021790061955926
20.009497869018190385759 8125.74298967405320582 20.009497869018190385759 829.44664590430681983
21.009497869018190385759 8158.89279825981793692 21.009497869018190385759 813.25741190151927640
22.009497869018204596614 8189.67751187258727441 22.009497869018204596614 799.20208562105290184
23.009497869018190385759 8218.38682427601270319 23.009497869018190385759 787.30341428609187915
24.009497869018204596614 8245.26376782743136573 24.009497869018204596614 776.47053869336900789
25.009497869018204596614 8270.51097618615676765 25.009497869018204596614 766.90041357654365584
26.009497869018190385759 8294.29911599013757950 26.009497869018190385759 758.81008993395778361
27.009497869018204596614 8316.77466046193148941 27.009497869018204596614 751.16632461533902188
28.009497869018190385759 8338.06196900600298250 28.009497869018190385759 744.31649006274346903
29.009497869018190385759 8358.26958691520849243 29.009497869018190385759 738.32521830876805780
30.009497869018190385759 8377.49138321775717486 30.009497869018190385759 732.71440452096101126
31.009497869018218807469 8395.80929813235343318 31.009497869018218807469 727.61262262947286672
32.009497869018190385759 8413.29653589915506018 32.009497869018190385759 722.95981958205425144
33.009497869018190385759 8430.01603539215284400 33.009497869018190385759 718.87039972584932457
34.009497869018218807469 8446.02592700944478565 34.009497869018218807469 714.92196161769822993
35.009497869018190385759 8461.37626249000277312 35.009497869018190385759 711.37489386992115215
36.009497869018190385759 8476.11270812464499613 36.009497869018190385759 707.99071813583157109
37.009497869018190385759 8490.27699085765380005 37.009497869018190385759 704.84634655751733590
38.009497869018218807469 8503.90547850815710262 38.009497869018218807469 701.91882738298386357
39.009497869018190385759 8517.03214036867575487 39.009497869018190385759 699.23475798144306737
40.009497869018190385759 8529.68787894819433859 40.009497869018190385759 696.81883593295810897
41.009497869018218807469 8541.90016998225837597 41.009497869018218807469 694.33555041543877451
42.009497869018190385759 8553.69477074765381985 42.009497869018190385759 692.09848873524629198
43.009497869018190385759 8565.09543709981153370 43.009497869018190385759 689.89746697975976986
44.009497869018218807469 8576.12335461893053434 44.009497869018218807469 687.89692650320967005
46.009497869018190385759 8597.13951410250047047 46.009497869018190385759 684.18485758377619277
48.009497869018218807469 8616.88538354042248102 48.009497869018218807469 680.76369945282351637
50.009497869018190385759 8635.48314510142881772 50.009497869018190385759 677.69596860003355232
52.009497869018190385759 8653.03851721094179084 52.009497869018190385759 674.87758890998463812
54.009497869018218807469 8669.64402331683595548 54.009497869018218807469 672.24171985553277864
56.009497869018190385759 8685.38052512055219267 56.009497869018190385759 669.80499242490304823
58.009497869018218807469 8700.31966600527630362 58.009497869018218807469 667.62465914336735295
60.009497869018190385759 8714.52478829888968903 60.009497869018190385759 665.50400683044142625
62.009497869018190385759 8728.05234335934801493 62.009497869018190385759 663.52287797078520271
64.009497869018218807469 8740.95291892930072208 64.009497869018218807469 661.66490384564724536
66.009497869018190385759 8753.27170331981142226 66.009497869018190385759 659.93577194293595767
68.009497869018190385759 8765.04970637837504910 68.009497869018190385759 658.31880802611749459
70.009497869018190385759 8776.32371724818040093 70.009497869018190385759 656.75663087011139396
72.009497869018190385759 8787.12724259875176358 72.009497869018190385759 655.29204156900289036
74.009497869018218807469 8797.49078853022547264 74.009497869018218807469 653.89392229958809821
76.009497869018190385759 8807.44200515753072978 76.009497869018190385759 652.56401069457444919
78.009497869018190385759 8817.00630790632931166 78.009497869018190385759 651.30296615001270766
80.009497869018218807469 8826.20694922220900480 80.009497869018218807469 650.09486456092167828
82.009497869018190385759 8835.06519735176698305 82.009497869018190385759 648.93820865437294287
84.009497869018218807469 8843.60073248222215625 84.009497869018218807469 647.82147514028076785
86.009497869018190385759 8851.83168598595511867 86.009497869018190385759 646.76500108208654183
88.009497869018190385759 8859.77472623299581755 88.009497869018190385759 645.73961707181388192
91.009497869018218807469 8871.18303440265663085 91.009497869018218807469 644.28322046754999519
94.009497869018218807469 8882.02575204770255368 94.009497869018218807469 642.90637259830486983
97.009497869018218807469 8892.34541900393742253 97.009497869018218807469 641.61339951840159301
99.504748934509137825444 8900.55810364028002368 99.504748934509137825444 640.40473844103132706
nan nan nan nan

