Time Pressure difference Time.1 Pressure.1 difference.1
(hr) (psi) (hr) (psi)
0.000200000000020850166 0.89409804531103354 0.000200000000020850166 0.71264255158622103
0.000399999999999067768 1.78787810767286071 0.000399999999999067768 1.86626901718352722
0.000600000000019917934 2.68139003821213784 0.000600000000019917934 2.73095738578122971
0.000799999999998135536 3.57465512053585899 0.000799999999998135536 3.61151792733174037
0.001007140329434719206 4.49956732082548960 0.001007140329434719206 4.53618864848876591
0.001267914553977789183 5.66362541048059409 0.001267914553977789183 5.70889322811488942
0.001596209851982166583 7.12857529850301486 0.001596209851982166583 7.18429026667318649
0.002009509145224797066 8.97205867000118040 0.002009509145224797066 9.04025556798728758
0.002529822128153114136 11.29168022799033189 0.002529822128153114136 11.37456484736098972
0.003184857364431081805 14.21010217046590185 0.003184857364431081805 14.30990564629689743
0.004009497869034817086 17.88141803364742444 0.004009497869034817086 18.00011173280686805
0.005047658755856332391 22.49911589172335979 0.005047658755856332391 22.63789623853338639
0.006354625877790454069 28.30600977371268101 0.006354625877790454069 28.46440981474265897
0.008000000000009777068 35.60659877150123975 0.008000000000009777068 35.78100168219044264
0.010071403294361402914 44.78240550426078670 0.010071403294361402914 44.96360910126901445
0.012679145539692626699 56.31094748298363584 0.012679145539692626699 56.48023463847740544
0.015962098519750611558 70.78910162969121700 0.015962098519750611558 70.91197385270781695
0.020095091452091651263 88.96172394472850442 0.020095091452091651263 88.97800139400412434
0.025298221281360611101 111.75646535514701441 0.025298221281360611101 111.56476793209571952
0.031848573644296607199 140.32575104858264581 0.031848573644296607199 139.75933785042644786
0.040094978690191851456 176.09681537680336305 0.040094978690191851456 174.88621017198633467
0.050476587558435426217 220.83043161695931644 0.050476587558435426217 218.54597158015974401
0.063546258777947173257 276.68843066250371976 0.063546258777947173257 272.65253543814674231
0.080000000000012505552 346.30909777542126449 0.080000000000012505552 339.46326813690552626
0.100714032943542974863 432.88783769049041439 0.100714032943542974863 421.59268112217989710
0.126791455396883634421 540.25779358140505337 0.126791455396883634421 521.99523404554054196
0.159620985197506115583 672.96100538433017846 0.159620985197506115583 643.89585987688280966
0.200950914520774404082 836.29475719968047542 0.200950914520774404082 790.63799415924950154
0.252982212813464002465 1036.30957555345617038 0.252982212813464002465 965.40856087664019469
0.318485736442809752589 1279.72467396125398409 0.318485736442809752589 1170.78897230172628952
0.400949786901833249431 1573.71380335940898476 0.400949786901833249431 1408.07437642853005855
0.504765875584169521062 1925.50102245416928781 0.504765875584169521062 1676.30836744947464467
0.635462587779443310865 2341.69611782762876828 0.635462587779443310865 1971.01424738312675800
0.800000000000011368684 2827.30291407006143345 0.800000000000011368684 2282.69742377870170458
1.007140329435344483500 3384.36905194970904631 1.007140329435344483500 2595.38842503562364072
1.267914553968907398485 4010.34149365342227611 1.267914553968907398485 2885.81582027575586835
1.596209851975117999245 4696.37589460699837218 1.596209851975117999245 3124.17089334311685889
2.009509145207687197399 5426.11202618092829653 2.009509145207687197399 3277.57963164962347946
2.529822128134725289783 6175.66990104388787586 2.529822128134725289783 3316.86317401098222035
3.184857364427983839050 6915.61632443761573086 3.184857364427983839050 3225.59752439701378535
4.009497869018204596614 7615.14615271830643906 4.009497869018204596614 3008.80286175441005980
5.009497869018190385759 8228.13354618049015698 5.009497869018190385759 2706.65252006646505833
6.009497869018190385759 8671.38033021420233126 6.009497869018190385759 2418.52805174673039801
7.009497869018204596614 9002.70823717501298233 7.009497869018204596614 2165.92741750958202829
8.009497869018190385759 9257.95130492854877957 8.009497869018190385759 1953.73409647350808882
9.009497869018204596614 9459.97913527627861185 9.009497869018204596614 1780.97308275208797568
10.009497869018190385759 9623.78675531653243524 10.009497869018190385759 1641.87424533112357494
11.009497869018190385759 9759.47255694848536223 11.009497869018190385759 1524.34020207377943734
12.009497869018204596614 9873.99291195546720701 12.009497869018204596614 1427.95607477285511777
13.009497869018190385759 9972.25031056290572451 13.009497869018190385759 1348.67052177619893882
14.009497869018204596614 10057.77112380102153111 14.009497869018204596614 1283.15112900787539729
15.009497869018190385759 10133.14061127086279157 15.009497869018190385759 1228.70597714774407905
16.009497869018190385759 10200.28797250901698135 16.009497869018190385759 1183.18544683204595458
17.009497869018204596614 10260.67689551425974059 17.009497869018204596614 1145.89577305623083703
18.009497869018190385759 10315.43536345667416754 18.009497869018190385759 1113.28595516837958712
19.009497869018204596614 10365.44765417961207277 19.009497869018204596614 1086.81374760806420454
20.009497869018190385759 10411.41086281240313838 20.009497869018190385759 1062.75940923376629144
21.009497869018190385759 10453.88528978463182284 21.009497869018190385759 1042.01635017179182796
22.009497869018204596614 10493.32935073066983023 22.009497869018204596614 1024.00743986010957087
23.009497869018190385759 10530.11422657534239988 23.009497869018190385759 1008.76182402568394991
24.009497869018204596614 10564.55131157865253044 24.009497869018204596614 994.88179868339898348
25.009497869018204596614 10596.90023766402555339 25.009497869018204596614 982.61971942167383531
26.009497869018190385759 10627.37967781811312307 26.009497869018190385759 972.25369091657273657
27.009497869018204596614 10656.17730631296217325 27.009497869018204596614 962.45983189688843140
28.009497869018190385759 10683.45246326752385357 28.009497869018190385759 953.68322624249003638
29.009497869018190385759 10709.34422638122669014 29.009497869018190385759 946.00668615247400339
30.009497869018190385759 10733.97286884277491481 30.009497869018190385759 938.81762200242314975
31.009497869018218807469 10757.44337960939265031 31.009497869018218807469 932.28077392930072165
32.009497869018190385759 10779.84955434039693500 32.009497869018190385759 926.31919672313267711
33.009497869018190385759 10801.27203581235153251 33.009497869018190385759 921.07947521488449638
34.009497869018218807469 10821.78530576299635868 34.009497869018218807469 916.02039182243811410
35.009497869018190385759 10841.45349484714279242 35.009497869018190385759 911.47557915395145756
36.009497869018190385759 10860.33511470082703454 36.009497869018190385759 907.13947794519526724
37.009497869018190385759 10878.48362952559909900 37.009497869018190385759 903.11063474294530806
38.009497869018218807469 10895.94563694429962197 38.009497869018218807469 899.35964176008064896
39.009497869018190385759 10912.76466137821807934 39.009497869018190385759 895.92057786656891949
40.009497869018190385759 10928.98029781800869387 40.009497869018190385759 892.82508775676990354
41.009497869018218807469 10944.62775057321414351 41.009497869018218807469 889.64328569320218776
42.009497869018190385759 10959.74002211409788288 42.009497869018190385759 886.77696709224051119
43.009497869018190385759 10974.34755051525280578 43.009497869018190385759 883.95682598717712608
44.009497869018218807469 10988.47748059040713997 44.009497869018218807469 881.39355898802205047
46.009497869018190385759 11015.40521771178646304 46.009497869018190385759 876.63733242259752387
48.009497869018218807469 11040.70534839803985960 48.009497869018218807469 872.25384614038773634
50.009497869018190385759 11064.53442310373793589 50.009497869018190385759 868.32320172233141875
52.009497869018190385759 11087.02789749911971739 52.009497869018190385759 864.71204776905062772
54.009497869018218807469 11108.30432069797279837 54.009497869018218807469 861.33474236555150583
56.009497869018190385759 11128.46729976709684706 56.009497869018190385759 858.21259458494728278
58.009497869018218807469 11147.60863045968108054 58.009497869018218807469 855.41896135771139598
60.009497869018190385759 11165.80947249261771503 60.009497869018190385759 852.70179659442726461
62.009497869018190385759 11183.14215627091653005 62.009497869018190385759 850.16340145243634652
64.009497869018218807469 11199.67149922407588747 64.009497869018218807469 847.78280290115696971
66.009497869018190385759 11215.45540055875790131 66.009497869018190385759 845.56728824631238695
68.009497869018190385759 11230.54640566955094982 68.009497869018190385759 843.49549300128285267
70.009497869018190385759 11244.99165201644245826 70.009497869018190385759 841.49389533417149778
72.009497869018190385759 11258.83407126776910445 72.009497869018190385759 839.61733574097490873
74.009497869018218807469 11272.11275050058793568 74.009497869018218807469 837.82594335167709687
76.009497869018190385759 11284.86311745452439936 76.009497869018190385759 836.12194457290524952
78.009497869018190385759 11297.11773659035134187 78.009497869018190385759 834.50618428040957042
80.009497869018218807469 11308.90640097005234566 80.009497869018218807469 832.95825912156226423
82.009497869018190385759 11320.25636132675572298 82.009497869018190385759 831.47625065965542035
84.009497869018218807469 11331.19283363336035109 84.009497869018218807469 830.04539425006180409
86.009497869018190385759 11341.73904938605664938 86.009497869018190385759 828.69174751280456803
88.009497869018190385759 11351.91636555479090021 88.009497869018190385759 827.37793605744923298
91.009497869018218807469 11366.53368531925661955 91.009497869018218807469 825.51187366223632580
94.009497869018218807469 11380.42632115766537027 94.009497869018218807469 823.74773604669576343
97.009497869018218807469 11393.64877881910797441 97.009497869018218807469 822.09106612906055034
99.504748934509137825444 11404.17158690500764351 99.504748934509137825444 820.54242410501626637
nan nan nan nan

