Time Pressure difference Time.1 Pressure.1 difference.1
(hr) (psi) (hr) (psi)
0.000200000000020850166 0.68367310999597175 0.000200000000020850166 0.54492295572453375
0.000399999999999067768 1.36710307396008490 0.000399999999999067768 1.42704477406963659
0.000600000000019917934 2.05032801061430492 0.000600000000019917934 2.08822974056946098
0.000799999999998135536 2.73336419449346657 0.000799999999998135536 2.76155138257366595
0.001007140329434719206 3.44059938392423481 0.001007140329434719206 3.46860192470489803
0.001267914553977789183 4.33069775573492866 0.001267914553977789183 4.36531184512598980
0.001596209851982166583 5.45087339104137492 0.001596209851982166583 5.49347590623754289
0.002009509145224797066 6.86049509464276408 0.002009509145224797066 6.91264193198655796
0.002529822128153114136 8.63419641619353584 0.002529822128153114136 8.69757423677277508
0.003184857364431081805 10.86577114802136990 0.003184857364431081805 10.94208599186609199
0.004009497869034817086 13.67304709177505373 0.004009497869034817086 13.76380636685325065
0.005047658755856332391 17.20397512836893128 0.005047658755856332391 17.31009368192971465
0.006354625877790454069 21.64422328743425439 0.006354625877790454069 21.76534406299392188
0.008000000000009777068 27.22662715365025576 0.008000000000009777068 27.35998454210282915
0.010071403294361402914 34.24291844139754915 0.010071403294361402914 34.38147598255174842
0.012679145539692626699 43.05823147070934453 0.012679145539692626699 43.18767709100319507
0.015962098519750611558 54.12896887405226209 0.015962098519750611558 54.22292326225658599
0.020095091452091651263 68.02468565820170454 0.020095091452091651263 68.03713222871756727
0.025298221281360611101 85.45471118319147763 0.025298221281360611101 85.30812952575134034
0.031848573644296607199 107.30024870877667809 0.031848573644296607199 106.86714019818656141
0.040094978690191851456 134.65263464161151319 0.040094978690191851456 133.72694396406768647
0.050476587558435426217 168.85824631547959029 0.050476587558435426217 167.11143129199192003
0.063546258777947173257 211.57013023681679442 0.063546258777947173257 208.48407826061080073
0.080000000000012505552 264.80565429897325203 0.080000000000012505552 259.57098270561522213
0.100714032943542974863 331.00818844798425289 0.100714032943542974863 322.37133384412265968
0.126791455396883634421 413.10875006875801319 0.126791455396883634421 399.14426268412495347
0.159620985197506115583 514.58041527992509145 0.159620985197506115583 492.35571797097458102
0.200950914520774404082 639.47375852849984312 0.200950914520774404082 604.56226158037497953
0.252982212813464002465 792.41532195808463257 0.252982212813464002465 738.20077864241693533
0.318485736442809752589 978.54295999641931303 0.318485736442809752589 895.24514905304090462
0.400949786901833249431 1203.34208963854348440 0.400949786901833249431 1076.68570923186189248
0.504765875584169521062 1472.33659577425760290 0.504765875584169521062 1281.79114236601685661
0.635462587779443310865 1790.58065939935886490 0.635462587779443310865 1507.13833613853989846
0.800000000000011368684 2161.90046080520050964 0.800000000000011368684 1745.46723939171397433
1.007140329435344483500 2587.86173088619580085 1.007140329435344483500 1984.56677709700738887
1.267914553968907398485 3066.51228630987270662 1.267914553968907398485 2206.64242257364776378
1.596209851975117999245 3591.08928871344414802 1.596209851975117999245 2388.90090635166689026
2.009509145207687197399 4149.08287025183562946 2.009509145207687197399 2506.20507647999102119
2.529822128134725289783 4722.23317084472182614 2.529822128134725289783 2536.24328282514170496
3.184857364427983839050 5288.03406389555402711 3.184857364427983839050 2466.45689772497280501
4.009497869018204596614 5822.93036049716101843 4.009497869018204596614 2300.68460684848832898
5.009497869018190385759 6291.65188368405870278 5.009497869018190385759 2069.64499673919499401
6.009497869018190385759 6630.58105249867367093 6.009497869018190385759 1849.33028701005810035
7.009497869018204596614 6883.93132182126464613 7.009497869018204596614 1656.17891831895485666
8.009497869018190385759 7079.10323037327088969 8.009497869018190385759 1493.92504865230102951
9.009497869018204596614 7233.58404576474640635 9.009497869018204596614 1361.82313862531736959
10.009497869018190385759 7358.83973290250105492 10.009497869018190385759 1255.46105084854275447
11.009497869018190385759 7462.59203889456330216 11.009497869018190385759 1165.58850800432242067
12.009497869018204596614 7550.16016151385520061 12.009497869018204596614 1091.88827298910405261
13.009497869018190385759 7625.29279561182192992 13.009497869018190385759 1031.26248269770758270
14.009497869018204596614 7690.68638489715340256 14.009497869018204596614 981.16300283206851418
15.009497869018190385759 7748.31775112990726484 15.009497869018190385759 939.53145415390292783
16.009497869018190385759 7799.66205897898817057 16.009497869018190385759 904.72412771715517010
17.009497869018204596614 7845.83851917462470738 17.009497869018204596614 876.21053530439223778
18.009497869018190385759 7887.70964535942857765 18.009497869018190385759 851.27540013805389663
19.009497869018204596614 7925.95160161454987247 19.009497869018204596614 831.03339584542220564
20.009497869018190385759 7961.09742254120556026 20.009497869018190385759 812.64021803735420235
21.009497869018190385759 7993.57554251438796200 21.009497869018190385759 796.77901380577930013
22.009497869018204596614 8023.73648958196372405 22.009497869018204596614 783.00847959535815335
23.009497869018190385759 8051.86408766970271245 23.009497869018190385759 771.35090172010438891
24.009497869018204596614 8078.19644476060784655 24.009497869018204596614 760.73752420256187179
25.009497869018204596614 8102.93208870681792177 25.009497869018204596614 751.36131103685204380
26.009497869018190385759 8126.23822806185035006 26.009497869018190385759 743.43491528690503856
27.009497869018204596614 8148.25836817605068063 27.009497869018204596614 735.94602959929522967
28.009497869018190385759 8169.11434865665614780 28.009497869018190385759 729.23498788030394735
29.009497869018190385759 8188.91251542825011711 29.009497869018190385759 723.36511257426377597
30.009497869018190385759 8207.74483552442870860 30.009497869018190385759 717.86798631255066994
31.009497869018218807469 8225.69158887341473019 31.009497869018218807469 712.86957783245134124
32.009497869018190385759 8242.82449643516702054 32.009497869018190385759 708.31105088968843120
33.009497869018190385759 8259.20522180256193678 33.009497869018190385759 704.30449174570696869
34.009497869018218807469 8274.89071752295967599 34.009497869018218807469 700.43605774701779865
35.009497869018190385759 8289.93002117614014423 35.009497869018190385759 696.96086145539368317
36.009497869018190385759 8304.36787375263156719 36.009497869018190385759 693.64525662414007456
37.009497869018190385759 8318.24515671631888836 37.009497869018190385759 690.56459698483809007
38.009497869018218807469 8331.59750099368829979 38.009497869018218807469 687.69639583887101253
39.009497869018190385759 8344.45818758408859139 39.009497869018190385759 685.06671163378575784
40.009497869018190385759 8356.85749284316443664 40.009497869018190385759 682.69974152192082784
41.009497869018218807469 8368.82233578714658506 41.009497869018218807469 680.26677287424388396
42.009497869018190385759 8380.37795179329077655 42.009497869018190385759 678.07503902308985744
43.009497869018190385759 8391.54761537073136424 43.009497869018190385759 675.91861484786943493
44.009497869018218807469 8402.35208283285101061 44.009497869018218807469 673.95860975642233370
46.009497869018190385759 8422.94240833403637225 46.009497869018190385759 670.32175558267454107
48.009497869018218807469 8442.28818268203576736 48.009497869018218807469 666.96991769990563625
50.009497869018190385759 8460.50911236397405446 50.009497869018190385759 663.96434587512226244
52.009497869018190385759 8477.70877371560527536 52.009497869018190385759 661.20307280572990294
54.009497869018218807469 8493.97781545463658404 54.009497869018218807469 658.62061230184497163
56.009497869018190385759 8509.39546084516587143 56.009497869018190385759 656.23325837100151148
58.009497869018218807469 8524.03190161661223101 58.009497869018218807469 654.09710347538498354
60.009497869018190385759 8537.94919664086592093 60.009497869018190385759 652.01942027964582849
62.009497869018190385759 8551.20265344622748671 62.009497869018190385759 650.07843348270023398
64.009497869018218807469 8563.84183475552708842 64.009497869018218807469 648.25810603232662288
66.009497869018190385759 8575.91101326446369058 66.009497869018190385759 646.56401017531982234
68.009497869018190385759 8587.45036787011304114 68.009497869018190385759 644.97980953214380406
70.009497869018190385759 8598.49594228606110846 70.009497869018190385759 643.44928554854777758
72.009497869018190385759 8609.08056426242546877 72.009497869018190385759 642.01437207356411818
74.009497869018218807469 8619.23412177812497248 74.009497869018218807469 640.64458180007318333
76.009497869018190385759 8628.98370469545989181 76.009497869018190385759 639.34161715249126701
78.009497869018190385759 8638.35421346722614544 78.009497869018190385759 638.10612416604340069
80.009497869018218807469 8647.36842939291454968 80.009497869018218807469 636.92250139341786053
82.009497869018190385759 8656.04718977729680773 82.009497869018190385759 635.78928189975511032
84.009497869018218807469 8664.40977604336876539 84.009497869018218807469 634.69517588237283690
86.009497869018190385759 8672.47395218171186571 86.009497869018190385759 633.66010833072118658
88.009497869018190385759 8680.25604882422157971 88.009497869018190385759 632.65550087369604171
91.009497869018218807469 8691.43319937900378136 91.009497869018218807469 631.22861409335655480
94.009497869018218807469 8702.05621952707042510 94.009497869018218807469 629.87966421431053732
97.009497869018218807469 8712.16678715284433565 97.009497869018218807469 628.61288963543040609
99.504748934509137825444 8720.21306459154948243 99.504748934509137825444 627.42871871099850978
nan nan nan nan

