Time Pressure difference Time.1 Pressure.1 difference.1
(hr) (psi) (hr) (psi)
0.000200000000020850166 0.78264768431412324 0.000200000000020850166 0.62381082887686901
0.000399999999999067768 1.56501702262340636 0.000399999999999067768 1.63363641411134797
0.000600000000019917934 2.34715165205360199 0.000600000000019917934 2.39054037211175530
0.000799999999998135536 3.12907020318534279 0.000799999999998135536 3.16133801825038852
0.001007140329434719206 3.93869102222956835 0.001007140329434719206 3.97074745881667779
0.001267914553977789183 4.95764791745324551 0.001267914553977789183 4.99727304898242863
0.001596209851982166583 6.23999009850356856 0.001596209851982166583 6.28876013110648202
0.002009509145224797066 7.85368112415917352 0.002009509145224797066 7.91337719951259366
0.002529822128153114136 9.88415915771060583 0.002529822128153114136 9.95671211289924862
0.003184857364431081805 12.43879641154271098 0.003184857364431081805 12.52615926806081958
0.004009497869034817086 15.65247848340672121 0.004009497869034817086 15.75637687495001060
0.005047658755856332391 19.69457493405737836 0.005047658755856332391 19.81605614926503733
0.006354625877790454069 24.77763274145454275 0.006354625877790454069 24.91628803318403840
0.008000000000009777068 31.16819483161178539 0.008000000000009777068 31.32085821668949421
0.010071403294361402914 39.20022658559013706 0.010071403294361402914 39.35884294352943158
0.012679145539692626699 49.29172240138380801 0.012679145539692626699 49.43990771609976065
0.015962098519750611558 61.96515779864134288 0.015962098519750611558 62.07271385618424375
0.020095091452091651263 77.87254161115305351 0.020095091452091651263 77.88679005744918982
0.025298221281360611101 97.82589199924962031 0.025298221281360611101 97.65808988288564763
0.031848573644296607199 122.83398301089883375 0.031848573644296607199 122.33817387651282615
0.040094978690191851456 154.14614257634599426 0.040094978690191851456 153.08644071798988762
0.050476587558435426217 193.30366153633369208 0.050476587558435426217 191.30396209947008401
0.063546258777947173257 242.19889604968932417 0.063546258777947173257 238.66607985794985325
0.080000000000012505552 303.14126605271758308 0.080000000000012505552 297.14877703890988414
0.100714032943542974863 378.92786536441997214 0.100714032943542974863 369.04066319625235337
0.126791455396883634421 472.91403140474614020 0.126791455396883634421 456.92792115056153079
0.159620985197506115583 589.07563355037655128 0.159620985197506115583 563.63349222711315178
0.200950914520774404082 732.04964327897607745 0.200950914520774404082 692.08404884079413932
0.252982212813464002465 907.13238194958353233 0.252982212813464002465 845.06926119527292940
0.318485736442809752589 1120.20550530003697531 0.318485736442809752589 1024.84876552179025566
0.400949786901833249431 1377.54854787088743251 0.400949786901833249431 1232.55626811092724893
0.504765875584169521062 1685.48508105057976536 0.504765875584169521062 1467.35458025112143332
0.635462587779443310865 2049.80097383795191490 0.635462587779443310865 1725.32502956978828479
0.800000000000011368684 2474.87631826970027760 0.800000000000011368684 1998.15653560535633915
1.007140329435344483500 2962.50351431132685320 1.007140329435344483500 2271.87023996141579119
1.267914553968907398485 3510.44776328174020819 1.267914553968907398485 2526.09552267859180574
1.596209851975117999245 4110.96717844203249115 1.596209851975117999245 2734.73935873104483107
2.009509145207687197399 4749.74085268488761358 2.009509145207687197399 2869.02551942539139418
2.529822128134725289783 5405.86546686725432664 2.529822128134725289783 2903.41232255286922737
3.184857364427983839050 6053.57670818213591701 3.184857364427983839050 2823.52304228613047599
4.009497869018204596614 6665.90932996086212370 4.009497869018204596614 2633.75208642874440557
5.009497869018190385759 7202.48713205194599141 5.009497869018190385759 2369.26513616980810184
6.009497869018190385759 7590.48268905261829786 6.009497869018190385759 2117.05571785458005252
7.009497869018204596614 7880.51018714575366175 7.009497869018204596614 1895.94204639675990620
8.009497869018190385759 8103.93690970954685326 8.009497869018190385759 1710.19886956425216340
9.009497869018204596614 8280.78173608835277264 9.009497869018204596614 1558.97271708810671953
10.009497869018190385759 8424.17054581661068369 10.009497869018190385759 1437.21271149449989935
11.009497869018190385759 8542.94295450095341948 11.009497869018190385759 1334.32942339667579290
12.009497869018204596614 8643.18821409311203752 12.009497869018204596614 1249.95968963837844967
13.009497869018190385759 8729.19771371134447691 13.009497869018190385759 1180.55717301525874063
14.009497869018204596614 8804.05825813652154466 14.009497869018204596614 1123.20484874084718285
15.009497869018190385759 8870.03285135430814989 15.009497869018190385759 1075.54634836839750278
16.009497869018190385759 8928.81021593580044282 16.009497869018190385759 1035.70000508740031364
17.009497869018204596614 8981.67158946876043046 17.009497869018204596614 1003.05853250782627129
18.009497869018190385759 9029.60435070951643866 18.009497869018190385759 974.51356633808848073
19.009497869018204596614 9073.38255124001443619 19.009497869018204596614 951.34115023180333992
20.009497869018190385759 9113.61639247113816964 20.009497869018190385759 930.28521310602229732
21.009497869018190385759 9150.79633273240688141 21.009497869018190385759 912.12780047595902033
22.009497869018204596614 9185.32364561633403355 22.009497869018204596614 896.36372177522139282
23.009497869018190385759 9217.52324391385809577 23.009497869018190385759 883.01848968201716161
24.009497869018204596614 9247.66770622838339477 24.009497869018204596614 870.86862563821250660
25.009497869018204596614 9275.98430106218438596 25.009497869018204596614 860.13502881469310068
26.009497869018190385759 9302.66444355985731818 26.009497869018190385759 851.06113781627448134
27.009497869018204596614 9327.87241417720542813 27.009497869018204596614 842.48809471160200246
28.009497869018190385759 9351.74769110208399070 28.009497869018190385759 834.80550315737968958
29.009497869018190385759 9374.41201583696420130 29.009497869018190385759 828.08585271579352138
30.009497869018190385759 9395.97066937772251549 30.009497869018190385759 821.79291377142351394
31.009497869018218807469 9416.51555368598747009 31.009497869018218807469 816.07089141160190593
32.009497869018190385759 9436.12877268308147904 32.009497869018190385759 810.85243173624917290
33.009497869018190385759 9454.88091692969464930 33.009497869018190385759 806.26584760670357355
34.009497869018218807469 9472.83718392835362465 34.009497869018218807469 801.83738484178059025
35.009497869018190385759 9490.05371037317308947 35.009497869018190385759 797.85908835708687548
36.009497869018190385759 9506.58171435672375083 36.009497869018190385759 794.06348720598020918
37.009497869018190385759 9522.46799570566508919 37.009497869018190385759 790.53684399359212875
38.009497869018218807469 9537.75334359496446268 38.009497869018218807469 787.25341664766131089
39.009497869018190385759 9552.47585707618782180 39.009497869018190385759 784.24303606738737926
40.009497869018190385759 9566.67019557836829335 40.009497869018190385759 781.53340239918190946
41.009497869018218807469 9580.36717515292548342 41.009497869018218807469 778.74821566260766303
42.009497869018190385759 9593.59568447382844170 42.009497869018190385759 776.23918700818455818
43.009497869018190385759 9606.38236747428163653 43.009497869018190385759 773.77057977110121101
44.009497869018218807469 9618.75098533541677170 44.009497869018218807469 771.52682698393368810
46.009497869018190385759 9642.32214871329415473 46.009497869018190385759 767.36346959038542082
48.009497869018218807469 9664.46858869075003895 48.009497869018218807469 763.52638997033011492
50.009497869018190385759 9685.32734152615557832 50.009497869018190385759 760.08570494950129159
52.009497869018190385759 9705.01697818294996978 52.009497869018190385759 756.92468553551304922
54.009497869018218807469 9723.64127049003946013 54.009497869018218807469 753.96836517765950703
56.009497869018190385759 9741.29091077287193912 56.009497869018190385759 751.23539674831204138
58.009497869018218807469 9758.04625233726619626 58.009497869018218807469 748.78999315126191050
60.009497869018190385759 9773.97833824702684069 60.009497869018190385759 746.41152613521501280
62.009497869018190385759 9789.15048283807846019 62.009497869018190385759 744.18954489929546980
64.009497869018218807469 9803.61942397195889498 64.009497869018218807469 742.10569072557086656
66.009497869018190385759 9817.43584365189781238 66.009497869018190385759 740.16634254863254228
68.009497869018190385759 9830.64573742795073485 68.009497869018190385759 738.35279898996020620
70.009497869018190385759 9843.29036702090343169 70.009497869018190385759 736.60070279949331962
72.009497869018190385759 9855.40731261671680841 72.009497869018190385759 734.95805854163484128
74.009497869018218807469 9867.03078904283938755 74.009497869018218807469 733.38996529667736013
76.009497869018190385759 9878.19180792995939555 76.009497869018190385759 731.89837194707342860
78.009497869018190385759 9888.91887454094830900 78.009497869018190385759 730.48401805382820839
80.009497869018218807469 9899.23806819797027856 80.009497869018218807469 729.12904356594424371
82.009497869018190385759 9909.17324279858439695 82.009497869018190385759 727.83176918207971084
84.009497869018218807469 9918.74647111534068245 84.009497869018218807469 726.57927068772846724
86.009497869018190385759 9927.97808881142191240 86.009497869018190385759 725.39435759027821859
88.009497869018190385759 9936.88679068563578767 88.009497869018190385759 724.24431426052069583
91.009497869018218807469 9949.68204454457554675 91.009497869018218807469 722.61085871271109227
94.009497869018218807469 9961.84294717150078213 94.009497869018218807469 721.06662290227029644
97.009497869018218807469 9973.41721011049412482 97.009497869018218807469 719.61645881622871457
99.504748934509137825444 9982.62833793266327120 99.504748934509137825444 718.26085682122823073
nan nan nan nan

