Time Pressure difference Time.1 Pressure.1 difference.1
(hr) (psi) (hr) (psi)
0.000200000000020850166 0.48489224224775118 0.000200000000020850166 0.38648428611606223
0.000399999999999067768 0.96961203420770037 0.000399999999999067768 1.01212542978418263
0.000600000000019917934 1.45418641142109450 0.000600000000019917934 1.48106805200972724
0.000799999999998135536 1.93862691653247055 0.000799999999998135536 1.95861855965991127
0.001007140329434719206 2.44023046329419557 0.001007140329434719206 2.46009114611065183
0.001267914553977789183 3.07152894354435979 0.001267914553977789183 3.09607883906137715
0.001596209851982166583 3.86600874328116939 0.001596209851982166583 3.89622439578648150
0.002009509145224797066 4.86577693452157067 0.002009509145224797066 4.90276185687124499
0.002529822128153114136 6.12376704457522081 0.002529822128153114136 6.16871749396414604
0.003184857364431081805 7.70650192128522793 0.003184857364431081805 7.76062789934054909
0.004009497869034817086 9.69755043127111449 0.004009497869034817086 9.76192106067572318
0.005047658755856332391 12.20184610686020399 0.005047658755856332391 12.27711023913019872
0.006354625877790454069 15.35107320751115623 0.006354625877790454069 15.43697760185578538
0.008000000000009777068 19.31036938026532468 0.008000000000009777068 19.40495254020188653
0.010071403294361402914 24.28664410138049945 0.010071403294361402914 24.38491544747891737
0.012679145539692626699 30.53886733263205144 0.012679145539692626699 30.63067608765797800
0.015962098519750611558 38.39074069777672804 0.015962098519750611558 38.45737744756154797
0.020095091452091651263 48.24621866025741213 0.020095091452091651263 48.25504633739944182
0.025298221281360611101 60.60839004841925970 0.025298221281360611101 60.50442763201098728
0.031848573644296607199 76.10224452216155555 0.031848573644296607199 75.79506415516151208
0.040094978690191851456 95.50180778109428559 0.040094978690191851456 94.84526560955167440
0.050476587558435426217 119.76199221645329374 0.050476587558435426217 118.52307109882153213
0.063546258777947173257 150.05521402440899692 0.063546258777947173257 147.86644480040891381
0.080000000000012505552 187.81228279355403288 0.080000000000012505552 184.09961425471249186
0.100714032943542974863 234.76614825447060753 0.100714032943542974863 228.64049590161010883
0.126791455396883634421 292.99562200740382423 0.126791455396883634421 283.09136878934896231
0.159620985197506115583 364.96396850145538338 0.159620985197506115583 349.20119656578850709
0.200950914520774404082 453.54404041619875443 0.200950914520774404082 428.78320985566745094
0.252982212813464002465 562.01719306759537176 0.252982212813464002465 523.56575906147088517
0.318485736442809752589 694.02742783201028942 0.318485736442809752589 634.94881009479661316
0.400949786901833249431 853.46525335677711155 0.400949786901833249431 763.63475484449577380
0.504765875584169521062 1044.24846147979587840 0.504765875584169521062 909.10490997492445331
0.635462587779443310865 1269.96170855209993533 0.635462587779443310865 1068.93144765057013501
0.800000000000011368684 1533.31869665381009327 0.800000000000011368684 1237.96520750044919623
1.007140329435344483500 1835.42991375505130236 1.007140329435344483500 1407.54553655420363611
1.267914553968907398485 2174.91078213948412667 1.267914553968907398485 1565.05174253094492087
1.596209851975117999245 2546.96478749384186813 1.596209851975117999245 1694.31779611073216074
2.009509145207687197399 2942.71935931486632398 2.009509145207687197399 1777.51527930393513088
2.529822128134725289783 3349.22376958938275493 2.529822128134725289783 1798.81974925432791679
3.184857364427983839050 3750.51564385779556687 3.184857364427983839050 1749.32405276600866273
4.009497869018204596614 4129.88856468350968498 4.009497869018204596614 1631.75076130494994686
5.009497869018190385759 4462.32730923090821307 5.009497869018190385759 1467.88690158023177901
6.009497869018190385759 4702.71137908361015434 6.009497869018190385759 1311.62963178450581836
7.009497869018204596614 4882.39897885863410920 7.009497869018204596614 1174.63784596101049829
8.009497869018190385759 5020.82382397520268569 8.009497869018190385759 1059.55997976191179077
9.009497869018204596614 5130.38868452657698072 9.009497869018204596614 965.86726255299277000
10.009497869018190385759 5219.22574730189626280 10.009497869018190385759 890.43040467725120379
11.009497869018190385759 5292.81162855903949094 11.009497869018190385759 826.68868633396596124
12.009497869018204596614 5354.91894666980260808 12.009497869018204596614 774.41710845820887243
13.009497869018190385759 5408.20644749597522605 13.009497869018190385759 731.41852483304558064
14.009497869018204596614 5454.58657225674051006 14.009497869018204596614 695.88568205729438887
15.009497869018190385759 5495.46137336829178821 15.009497869018190385759 666.35868342059052338
16.009497869018190385759 5531.87710509093722067 16.009497869018190385759 641.67173535170491050
17.009497869018204596614 5564.62756286959393037 17.009497869018204596614 621.44859134119303690
18.009497869018190385759 5594.32448083278177364 18.009497869018190385759 603.76345289596770272
19.009497869018204596614 5621.44742547601254046 19.009497869018204596614 589.40689754000140965
20.009497869018190385759 5646.37444932058770064 20.009497869018190385759 576.36161449607971008
21.009497869018190385759 5669.40941762273450877 21.009497869018190385759 565.11212293037635845
22.009497869018204596614 5690.80094090788861649 22.009497869018204596614 555.34543017529665576
23.009497869018190385759 5710.75032008690686780 23.009497869018190385759 547.07734270416165145
24.009497869018204596614 5729.42643223288814625 24.009497869018204596614 539.54984989062472778
25.009497869018204596614 5746.97008237965292210 25.009497869018204596614 532.89981062589390604
26.009497869018190385759 5763.49986248182358395 26.009497869018190385759 527.27804819010418669
27.009497869018204596614 5779.11755309809996106 27.009497869018204596614 521.96658790314972975
28.009497869018190385759 5793.90956845113214513 28.009497869018190385759 517.20681013895034539
29.009497869018190385759 5807.95133393512151088 29.009497869018190385759 513.04362607152779674
30.009497869018190385759 5821.30807677705797687 30.009497869018190385759 509.14481267666303665
31.009497869018218807469 5834.03673517420975259 31.009497869018218807469 505.59971274491380200
32.009497869018190385759 5846.18817691204731091 32.009497869018190385759 502.36659692054541893
33.009497869018190385759 5857.80613663125677704 33.009497869018190385759 499.52496190723508107
34.009497869018218807469 5868.93100768355998298 34.009497869018218807469 496.78129156509896802
35.009497869018190385759 5879.59756976361404668 35.009497869018190385759 494.31652339232903159
36.009497869018190385759 5889.83755522844785446 36.009497869018190385759 491.96494478330123457
37.009497869018190385759 5899.67995908225475432 37.009497869018190385759 489.78000005129035799
38.009497869018218807469 5909.15005240793198027 38.009497869018218807469 487.74574060104839646
39.009497869018190385759 5918.27143961255933391 39.009497869018190385759 485.88064827554387648
40.009497869018190385759 5927.06559407246368210 40.009497869018190385759 484.20188480204365078
41.009497869018218807469 5935.55160798528777377 41.009497869018218807469 482.47631214803431021
42.009497869018190385759 5943.74737943490163161 42.009497869018190385759 480.92183424630349009
43.009497869018190385759 5951.66941576780754986 43.009497869018190385759 479.39239958188306900
44.009497869018218807469 5959.33243831089021114 44.009497869018218807469 478.00227431629468811
46.009497869018190385759 5973.93603900090329262 46.009497869018190385759 475.42285097895290846
48.009497869018218807469 5987.65694708470437035 48.009497869018218807469 473.04557423241487868
50.009497869018190385759 6000.58006387858495145 50.009497869018190385759 470.91388521313416504
52.009497869018190385759 6012.77885045766197436 52.009497869018190385759 468.95546404591300416
54.009497869018218807469 6024.31759903899364872 54.009497869018218807469 467.12386492941072902
56.009497869018190385759 6035.25249838531908608 56.009497869018190385759 465.43064431909232326
58.009497869018218807469 6045.63333168185545219 58.009497869018218807469 463.91558555492633786
60.009497869018190385759 6055.50411391925263160 60.009497869018190385759 462.44199759493130841
62.009497869018190385759 6064.90407172646064282 62.009497869018190385759 461.06536097373992789
64.009497869018218807469 6073.86835725361561344 64.009497869018218807469 459.77430148034841295
66.009497869018190385759 6082.42837072163274570 66.009497869018190385759 458.57277120706987716
68.009497869018190385759 6090.61260884218427236 68.009497869018190385759 457.44918364627716301
70.009497869018190385759 6098.44663546566152945 70.009497869018190385759 456.36366602774131707
72.009497869018190385759 6105.95373353405557282 72.009497869018190385759 455.34595975533807177
74.009497869018218807469 6113.15510096915659233 74.009497869018218807469 454.37444183630492489
76.009497869018190385759 6120.06995114045366790 76.009497869018190385759 453.45031970791052345
78.009497869018190385759 6126.71594458806976036 78.009497869018190385759 452.57405156788718159
80.009497869018218807469 6133.10923885166539549 80.009497869018218807469 451.73457215615889027
82.009497869018190385759 6139.26461270092931954 82.009497869018190385759 450.93084105542243378
84.009497869018218807469 6145.19574140302302112 84.009497869018218807469 450.15485102119629346
86.009497869018190385759 6150.91522399262430554 86.009497869018190385759 449.42073376740933099
88.009497869018190385759 6156.43464290087649715 88.009497869018190385759 448.70822020603992542
91.009497869018218807469 6164.36198934058302257 91.009497869018218807469 447.69620683263610772
94.009497869018218807469 6171.89632114876167179 94.009497869018218807469 446.73946987462659308
97.009497869018218807469 6179.06719818747933459 97.009497869018218807469 445.84101539836490247
99.504748934509137825444 6184.77398620057647349 99.504748934509137825444 445.00114721230187342
nan nan nan nan

