Time Pressure difference Time.1 Pressure.1 difference.1
(hr) (psi) (hr) (psi)
0.000200000000020850166 0.75852783006852331 0.000200000000020850166 0.60458605306663593
0.000399999999999067768 1.51678589227688287 0.000399999999999067768 1.58329055225244342
0.000600000000019917934 2.27481647892973982 0.000600000000019917934 2.31686803333254066
0.000799999999998135536 3.03263764644530553 0.000799999999998135536 3.06391102300143947
0.001007140329434719206 3.81730734566776420 0.001007140329434719206 3.84837585806674864
0.001267914553977789183 4.80486174358911811 0.001267914553977789183 4.84326569678212060
0.001596209851982166583 6.04768434626488283 0.001596209851982166583 6.09495137042413582
0.002009509145224797066 7.61164419259635139 0.002009509145224797066 7.66950053767851614
0.002529822128153114136 9.57954638876947229 0.002529822128153114136 9.64986338678439282
0.003184857364431081805 12.05545412043246856 0.003184857364431081805 12.14012460411420413
0.004009497869034817086 15.17009604342925755 0.004009497869034817086 15.27079246541382673
0.005047658755856332391 19.08762204023414100 0.005047658755856332391 19.20535941352785514
0.006354625877790454069 24.01402875686136440 0.006354625877790454069 24.14841093120493554
0.008000000000009777068 30.20764472521779709 0.008000000000009777068 30.35560328758854354
0.010071403294361402914 37.99214308826589104 0.010071403294361402914 38.14587116312311110
0.012679145539692626699 47.77263637626146675 0.012679145539692626699 47.91625487468967037
0.015962098519750611558 60.05549831281710738 0.015962098519750611558 60.15973967783212828
0.020095091452091651263 75.47264394194641568 0.020095091452091651263 75.48645327565745333
0.025298221281360611101 94.81106642222702874 0.025298221281360611101 94.64843567820585690
0.031848573644296607199 119.04845112214637481 0.031848573644296607199 118.56792197171061787
0.040094978690191851456 149.39562383594852690 0.040094978690191851456 148.36858016451307662
0.050476587558435426217 187.34637547410875413 0.050476587558435426217 185.40830333126112350
0.063546258777947173257 234.73474303646827366 0.063546258777947173257 231.31080215775801889
0.080000000000012505552 293.79897411272946783 0.080000000000012505552 287.99116329382127333
0.100714032943542974863 367.24996090579276142 0.100714032943542974863 357.66746528690981677
0.126791455396883634421 458.33963511278267333 0.126791455396883634421 442.84618925537949963
0.159620985197506115583 570.92133666093877764 0.159620985197506115583 546.26327833276013735
0.200950914520774404082 709.48913354986837021 0.200950914520774404082 670.75520992859128455
0.252982212813464002465 879.17612363232751704 0.252982212813464002465 819.02568141348456265
0.318485736442809752589 1085.68270014201266349 0.318485736442809752589 993.26469092016213835
0.400949786901833249431 1335.09487317561024611 0.400949786901833249431 1194.57100586308774837
0.504765875584169521062 1633.54133253786267232 0.504765875584169521062 1422.13323824550775498
0.635462587779443310865 1986.62963670585781983 0.635462587779443310865 1672.15348243108087445
0.800000000000011368684 2398.60489082036838226 0.800000000000011368684 1936.57679114993106850
1.007140329435344483500 2871.20425616570673810 1.007140329435344483500 2201.85511035580384487
1.267914553968907398485 3402.26180670876419754 1.267914553968907398485 2448.24560752696697818
1.596209851975117999245 3984.27424733170437321 1.596209851975117999245 2650.45939974783505022
2.009509145207687197399 4603.36201662977327942 2.009509145207687197399 2780.60709215298265917
2.529822128134725289783 5239.26599976932629943 2.529822128134725289783 2813.93415320745680219
3.184857364427983839050 5867.01589570893611381 3.184857364427983839050 2736.50692302332709005
4.009497869018204596614 6460.47748025962391694 4.009497869018204596614 2552.58438132095034234
5.009497869018190385759 6980.51887824800724047 5.009497869018190385759 2296.24846353545717648
6.009497869018190385759 7356.55708014451465715 6.009497869018190385759 2051.81170529583096140
7.009497869018204596614 7637.64643004987010499 7.009497869018204596614 1837.51237652905933828
8.009497869018190385759 7854.18752566961484263 8.009497869018190385759 1657.49348463612955129
9.009497869018204596614 8025.58229895066597237 9.009497869018204596614 1510.92786183246903420
10.009497869018190385759 8164.55211241737288219 10.009497869018190385759 1392.92028999254398514
11.009497869018190385759 8279.66415994141425472 11.009497869018190385759 1293.20768771282519083
12.009497869018204596614 8376.82003321245247207 12.009497869018204596614 1211.43808390031995259
13.009497869018190385759 8460.17886812406504760 13.009497869018190385759 1144.17443335804046001
14.009497869018204596614 8532.73233944793719274 14.009497869018204596614 1088.58960898156510666
15.009497869018190385759 8596.67370928281707165 15.009497869018190385759 1042.39986154301664101
16.009497869018190385759 8653.63965667741831567 16.009497869018190385759 1003.78151396355906400
17.009497869018204596614 8704.87193368279622518 17.009497869018204596614 972.14599537421622699
18.009497869018190385759 8751.32748974184869439 18.009497869018190385759 944.48073591959268924
19.009497869018204596614 8793.75652149935376656 19.009497869018204596614 922.02245378470206560
20.009497869018190385759 8832.75042500922063482 20.009497869018190385759 901.61542439180902875
21.009497869018190385759 8868.78454351961227076 21.009497869018190385759 884.01759195969680150
22.009497869018204596614 8902.24778406173936673 22.009497869018204596614 868.73933502550687535
23.009497869018190385759 8933.45504617368533218 23.009497869018190385759 855.80538001062666353
24.009497869018204596614 8962.67050805556573323 24.009497869018204596614 844.02995385977658316
25.009497869018204596614 8990.11443418566705077 25.009497869018204596614 833.62714801168988288
26.009497869018190385759 9015.97234062336610805 26.009497869018190385759 824.83289871247859537
27.009497869018204596614 9040.40344498364720494 27.009497869018204596614 816.52406203717418975
28.009497869018190385759 9063.54292697672826762 28.009497869018190385759 809.07823472851248425
29.009497869018190385759 9085.50877624156419188 29.009497869018190385759 802.56567234516865028
30.009497869018190385759 9106.40302919498572010 30.009497869018190385759 796.46667094531164821
31.009497869018218807469 9126.31475553838754422 31.009497869018218807469 790.92099146374152951
32.009497869018190385759 9145.32352889157300524 32.009497869018190385759 785.86335573162511992
33.009497869018190385759 9163.49776433568877110 33.009497869018190385759 781.41812222881367234
34.009497869018218807469 9180.90065009846875910 34.009497869018218807469 777.12613706238460054
35.009497869018190385759 9197.58659283776250959 35.009497869018190385759 773.27044482642213552
36.009497869018190385759 9213.60523219270180562 36.009497869018190385759 769.59181756838893307
37.009497869018190385759 9229.00192569985847513 37.009497869018190385759 766.17385942843361590
38.009497869018218807469 9243.81620548204773513 38.009497869018218807469 762.99162166064513713
39.009497869018190385759 9258.08499644366020220 39.009497869018190385759 760.07401582726595279
40.009497869018190385759 9271.84188986978915636 40.009497869018190385759 757.44788840388298468
41.009497869018218807469 9285.11675211420515552 41.009497869018218807469 754.74853632762824418
42.009497869018190385759 9297.93758155168143276 42.009497869018190385759 752.31683161685884897
43.009497869018190385759 9310.33020099526584090 43.009497869018190385759 749.92430260493551941
44.009497869018218807469 9322.31763934739683464 44.009497869018218807469 747.74969841588460895
46.009497869018190385759 9345.16238004944170825 46.009497869018190385759 743.71464852968267678
48.009497869018218807469 9366.62630487349997566 48.009497869018218807469 739.99582109770562965
50.009497869018190385759 9386.84222685637905670 50.009497869018190385759 736.66117206582907784
52.009497869018190385759 9405.92506280855559453 52.009497869018190385759 733.59756982825501836
54.009497869018218807469 9423.97538648981571896 54.009497869018218807469 730.73235817430975203
56.009497869018190385759 9441.08109524427163706 56.009497869018190385759 728.08361512695057627
58.009497869018218807469 9457.32006602719047805 58.009497869018218807469 725.71357465882124416
60.009497869018190385759 9472.76115247745656234 60.009497869018190385759 723.40840790150480188
62.009497869018190385759 9487.46571769216461689 62.009497869018190385759 721.25490430197385194
64.009497869018218807469 9501.48875096963456599 64.009497869018218807469 719.23527092637687019
66.009497869018190385759 9514.87937238101221737 66.009497869018190385759 717.35569012152279811
68.009497869018190385759 9527.68215997268089268 68.009497869018190385759 715.59803685318138378
70.009497869018190385759 9539.93710385022677656 70.009497869018190385759 713.89993725094359434
72.009497869018190385759 9551.68062604298211227 72.009497869018190385759 712.30791646118063909
74.009497869018218807469 9562.94588693631339993 74.009497869018218807469 710.78814915044608824
76.009497869018190385759 9573.76294243583652133 76.009497869018190385759 709.34252413999035980
78.009497869018190385759 9584.15941932130408532 78.009497869018190385759 707.97175819882181713
80.009497869018218807469 9594.16059319505802705 80.009497869018218807469 706.65854169196722978
82.009497869018190385759 9603.78958281860650459 82.009497869018190385759 705.40124707126119574
84.009497869018218807469 9613.06778071965163690 84.009497869018218807469 704.18734842423839382
86.009497869018190385759 9622.01489585124181758 86.009497869018190385759 703.03895230853743215
88.009497869018190385759 9630.64904687066700717 88.009497869018190385759 701.92435133431968097
91.009497869018218807469 9643.04997303363961692 91.009497869018218807469 700.34123607438107229
94.009497869018218807469 9654.83609757747944968 94.009497869018218807469 698.84459095310364773
97.009497869018218807469 9666.05366165863051719 97.009497869018218807469 697.43911842763088771
99.504748934509137825444 9674.98091837894571654 99.504748934509137825444 696.12529375234873896
nan nan nan nan

