Time Pressure difference Time.1 Pressure.1 difference.1
(hr) (psi) (hr) (psi)
0.000200000000020850166 0.14638256369743433 0.000200000000020850166 0.11667450146899992
0.000399999999999067768 0.29271306693062649 0.000399999999999067768 0.30554729955748910
0.000600000000019917934 0.43899967137240586 0.000600000000019917934 0.44711488362557805
0.000799999999998135536 0.58524586159470815 0.000799999999998135536 0.59128107461431290
0.001007140329434719206 0.73667334740956858 0.001007140329434719206 0.74266902524095146
0.001267914553977789183 0.92725402069263685 0.001267914553977789183 0.93466530990532148
0.001596209851982166583 1.16709697910374932 0.001596209851982166583 1.17621868552044728
0.002009509145224797066 1.46891379155368185 0.002009509145224797066 1.48007905113094185
0.002529822128153114136 1.84868439081516112 0.002529822128153114136 1.86225433780049676
0.003184857364431081805 2.32649114604837104 0.003184857364431081805 2.34283106395186413
0.004009497869034817086 2.92756239434599674 0.004009497869034817086 2.94699503718512457
0.005047658755856332391 3.68357618320308022 0.005047658755856332391 3.70629743068081474
0.006354625877790454069 4.63428625132412275 0.006354625877790454069 4.66021965339042588
0.008000000000009777068 5.82954547328764505 0.008000000000009777068 5.85809888006094681
0.010071403294361402914 7.33181708720920788 0.010071403294361402914 7.36148390867287983
0.012679145539692626699 9.21928070419080825 0.012679145539692626699 9.24699655476467441
0.015962098519750611558 11.58965756914014378 0.015962098519750611558 11.60977432379216445
0.020095091452091651263 14.56489619932299284 0.020095091452091651263 14.56756115846020982
0.025298221281360611101 18.29687246744732576 0.025298221281360611101 18.26548758702218578
0.031848573644296607199 22.97426249725631919 0.031848573644296607199 22.88152880155819346
0.040094978690191851456 28.83073442448129242 0.040094978690191851456 28.63253301420427732
0.050476587558435426217 36.15456368798589892 0.050476587558435426217 35.78054976568196821
0.063546258777947173257 45.29968725265177198 0.063546258777947173257 44.63892673219891805
0.080000000000012505552 56.69804763578989082 0.080000000000012505552 55.57724203915849159
0.100714032943542974863 70.87279947304772065 0.100714032943542974863 69.02354593256154658
0.126791455396883634421 88.45150853053699791 0.126791455396883634421 85.46154529489780316
0.159620985197506115583 110.17780181176010501 0.159620985197506115583 105.41922915193615040
0.200950914520774404082 136.91895559734302878 0.200950914520774404082 129.44398788095620034
0.252982212813464002465 169.66556771851932695 0.252982212813464002465 158.05758764119877924
0.318485736442809752589 209.51771406249366692 0.318485736442809752589 191.68265965125937100
0.400949786901833249431 257.64988780581956007 0.400949786901833249431 230.53124674550815598
0.504765875584169521062 315.24481855993838053 0.504765875584169521062 274.44676527544885403
0.635462587779443310865 383.38466673270943375 0.635462587779443310865 322.69628608319101204
0.800000000000011368684 462.88866314077284869 0.800000000000011368684 373.72534566051297134
1.007140329435344483500 554.09204943548718347 1.007140329435344483500 424.91940726164631315
1.267914553968907398485 656.57683989116503653 1.267914553968907398485 472.46845057537956336
1.596209851975117999245 768.89503018682023594 1.596209851975117999245 511.49216486361723355
2.009509145207687197399 888.36810847241247302 2.009509145207687197399 536.60838620496156182
2.529822128134725289783 1011.08642100811550790 2.529822128134725289783 543.03992430319340201
3.184857364427983839050 1132.23113776839113598 3.184857364427983839050 528.09782725011586990
4.009497869018204596614 1246.75881197992748639 4.009497869018204596614 492.60400341281501824
5.009497869018190385759 1347.11767825838728641 5.009497869018190385759 443.13566840157943716
6.009497869018190385759 1419.68645406297628142 6.009497869018190385759 395.96366242551118830
7.009497869018204596614 1473.93176720260657930 7.009497869018204596614 354.60765161087113029
8.009497869018190385759 1515.72039969062734599 8.009497869018190385759 319.86716370170921664
9.009497869018204596614 1548.79658400802350116 9.009497869018204596614 291.58256982731859352
10.009497869018190385759 1575.61531994019492231 10.009497869018190385759 268.80917877049091658
11.009497869018190385759 1597.82992560272896299 11.009497869018190385759 249.56639587440483297
12.009497869018204596614 1616.57930465503477535 12.009497869018204596614 233.78629689304420936
13.009497869018190385759 1632.66609735727570296 13.009497869018190385759 220.80559240242885721
14.009497869018204596614 1646.66764445486478508 14.009497869018204596614 210.07869647012660153
15.009497869018190385759 1659.00720705457865733 15.009497869018190385759 201.16488556093298712
16.009497869018190385759 1670.00063549915080330 16.009497869018190385759 193.71222199296752819
17.009497869018204596614 1679.88756614931162403 17.009497869018204596614 187.60712191432244822
18.009497869018190385759 1688.85267345895294966 18.009497869018190385759 182.26821219500911297
19.009497869018204596614 1697.04073221917337833 19.009497869018204596614 177.93415774792495654
20.009497869018190385759 1704.56587149300753481 20.009497869018190385759 173.99595909315615927
21.009497869018190385759 1711.51982418799548213 21.009497869018190385759 170.59988616766077030
22.009497869018204596614 1717.97764253823061154 22.009497869018204596614 167.65145061895745471
23.009497869018190385759 1724.00009663000946603 23.009497869018190385759 165.15542421257708838
24.009497869018204596614 1729.63816822124931605 24.009497869018204596614 162.88297355188669258
25.009497869018204596614 1734.93436449197088223 25.009497869018204596614 160.87541452857172430
26.009497869018190385759 1739.92448678696564457 26.009497869018190385759 159.17827869889936210
27.009497869018204596614 1744.63926131263383468 27.009497869018204596614 157.57481898963013123
28.009497869018190385759 1749.10477538147370069 28.009497869018190385759 156.13790494760769434
29.009497869018190385759 1753.34379892381048194 29.009497869018190385759 154.88109466310271500
30.009497869018190385759 1757.37602317797995966 30.009497869018190385759 153.70409439295488596
31.009497869018218807469 1761.21863703372378041 31.009497869018218807469 152.63387554563433923
32.009497869018190385759 1764.88699680363674815 32.009497869018190385759 151.65784057978731880
33.009497869018190385759 1768.39430539811542076 33.009497869018190385759 150.79998850029735991
34.009497869018218807469 1771.75275703654619974 34.009497869018218807469 149.97171066116194993
35.009497869018190385759 1774.97285124939276102 35.009497869018190385759 149.22762970334460420
36.009497869018190385759 1778.06416761613513700 36.009497869018190385759 148.51771917986454241
37.009497869018190385759 1781.03545934558655972 37.009497869018190385759 147.85811322303104021
38.009497869018218807469 1783.89435544390403265 38.009497869018218807469 147.24399716258065496
39.009497869018190385759 1786.64798176982912992 39.009497869018190385759 146.68095042280572216
40.009497869018190385759 1789.30282085206476950 40.009497869018190385759 146.17415390250374685
41.009497869018218807469 1791.86463637291694795 41.009497869018218807469 145.65322630884054433
42.009497869018190385759 1794.33883152751741363 42.009497869018190385759 145.18394996114821538
43.009497869018190385759 1796.73038966575290942 43.009497869018190385759 144.72223383604017499
44.009497869018218807469 1799.04375496177817695 44.009497869018218807469 144.30257337850406429
46.009497869018190385759 1803.45238913234834399 46.009497869018190385759 143.52387954081595467
48.009497869018218807469 1807.59455006330699689 48.009497869018218807469 142.80621108903090999
50.009497869018190385759 1811.49586834070487384 50.009497869018190385759 142.16268232849333231
52.009497869018190385759 1815.17852089287907802 52.009497869018190385759 141.57146084404919861
54.009497869018218807469 1818.66191669101704065 54.009497869018218807469 141.01852526170890201
56.009497869018190385759 1821.96301838047338606 56.009497869018190385759 140.50736432274484855
58.009497869018218807469 1825.09685484735246064 58.009497869018218807469 140.04998809205321209
60.009497869018190385759 1828.07671363600047698 60.009497869018190385759 139.60513134941322733
62.009497869018190385759 1830.91443674761057991 62.009497869018190385759 139.18954293546863710
64.009497869018218807469 1833.62063615203487643 64.009497869018218807469 138.79978912614291175
66.009497869018190385759 1836.20479116124784014 66.009497869018190385759 138.43706300590790192
68.009497869018190385759 1838.67550455613127269 68.009497869018190385759 138.09786676114026704
70.009497869018190385759 1841.04049372548251995 70.009497869018190385759 137.77016332912947405
72.009497869018190385759 1843.30678748197874484 72.009497869018190385759 137.46293124689452725
74.009497869018218807469 1845.48078519823570787 74.009497869018218807469 137.16964281850715679
76.009497869018190385759 1847.56828713674076425 76.009497869018190385759 136.89066255333148092
78.009497869018190385759 1849.57462478130400996 78.009497869018190385759 136.62612877521124233
80.009497869018218807469 1851.50467587974821981 80.009497869018218807469 136.37270102827437768
82.009497869018190385759 1853.36290194745038207 82.009497869018190385759 136.13006522427846789
84.009497869018218807469 1855.15343136695014437 84.009497869018218807469 135.89580408187057969
86.009497869018190385759 1856.88006762041504771 86.009497869018190385759 135.67418377884055758
88.009497869018190385759 1858.54630729083078222 88.009497869018190385759 135.45908534521961997
91.009497869018218807469 1860.93946848017571938 91.009497869018218807469 135.15357187400334738
94.009497869018218807469 1863.21398374302225420 94.009497869018218807469 134.86474562252877263
97.009497869018218807469 1865.37877681131476493 97.009497869018218807469 134.59351408252527449
99.504748934509137825444 1867.10158073979664550 99.504748934509137825444 134.33996896975151003
nan nan nan nan

