Time Pressure difference Time.1 Pressure.1 difference.1
(hr) (psi) (hr) (psi)
0.000200000000020850166 0.29775544206637211 0.000200000000020850166 0.23732654276080667
0.000399999999999067768 0.59540498841570610 0.000399999999999067768 0.62151098432716534
0.000600000000019917934 0.89296524063250737 0.000600000000019917934 0.90947232010202805
0.000799999999998135536 1.19044328665287225 0.000799999999998135536 1.20271945859047746
0.001007140329434719206 1.49846055893537256 0.001007140329434719206 1.51065631270602641
0.001267914553977789183 1.88611897390888639 0.001267914553977789183 1.90119420992105170
0.001596209851982166583 2.37398135522239917 0.001596209851982166583 2.39253573532000052
0.002009509145224797066 2.98790418963760285 0.002009509145224797066 3.01061534264134734
0.002529822128153114136 3.76039211313538457 0.002529822128153114136 3.78799461893510170
0.003184857364431081805 4.73229449025748217 0.003184857364431081805 4.76553136872026872
0.004009497869034817086 5.95492805213560672 0.004009497869034817086 5.99445581427428653
0.005047658755856332391 7.49272882719717437 0.005047658755856332391 7.53894591013483861
0.006354625877790454069 9.42655953394338653 0.006354625877790454069 9.47931043132825302
0.008000000000009777068 11.85782545134646071 0.008000000000009777068 11.91590567648760768
0.010071403294361402914 14.91358248420963939 0.010071403294361402914 14.97392749605051598
0.012679145539692626699 18.75285506875176011 0.012679145539692626699 18.80923162844177909
0.015962098519750611558 23.57441710086461129 0.015962098519750611558 23.61533640862269934
0.020095091452091651263 29.62632295089563428 0.020095091452091651263 29.63174372004974799
0.025298221281360611101 37.21750195083034640 0.025298221281360611101 37.15366225087466745
0.031848573644296607199 46.73173848873728531 0.031848573644296607199 46.54310972135132118
0.040094978690191851456 58.64433479525172288 0.040094978690191851456 58.24117510843824164
0.050476587558435426217 73.54166931988041256 0.050476587558435426217 72.78089100064855188
0.063546258777947173257 92.14368202528031304 0.063546258777947173257 90.79963505754096786
0.080000000000012505552 115.32898325916353599 0.080000000000012505552 113.04916278419739228
0.100714032943542974863 144.16171710994936461 0.100714032943542974863 140.40016729464221612
0.126791455396883634421 179.91840939734231597 0.126791455396883634421 173.83655236121256848
0.159620985197506115583 224.11166504892113949 0.159620985197506115583 214.43229566132470154
0.200950914520774404082 278.50560286277726618 0.200950914520774404082 263.30083898512680207
0.252982212813464002465 345.11518888198821742 0.252982212813464002465 321.50350213380204423
0.318485736442809752589 426.17807746802685642 0.318485736442809752589 389.89995542699352882
0.400949786901833249431 524.08329451411020727 0.400949786901833249431 468.92151326643136144
0.504765875584169521062 641.23661957078377327 0.504765875584169521062 558.24967027619709370
0.635462587779443310865 779.83926528585220694 0.635462587779443310865 656.39358191921803609
0.800000000000011368684 941.55762161589029802 0.800000000000011368684 760.19132810490702923
1.007140329435344483500 1127.07360055627532347 1.007140329435344483500 864.32470340721249613
1.267914553968907398485 1335.53698114225608151 1.267914553968907398485 961.04378014764711224
1.596209851975117999245 1564.00239094819107777 1.596209851975117999245 1040.42156262031244296
2.009509145207687197399 1807.02149337002083485 2.009509145207687197399 1091.51024012145580855
2.529822128134725289783 2056.64169727787157171 2.529822128134725289783 1104.59257329854108320
3.184857364427983839050 2303.06106432434080489 3.184857364427983839050 1074.19898952012181326
4.009497869018204596614 2536.02076527735243872 4.009497869018204596614 1002.00132512379423133
5.009497869018190385759 2740.15982282103823309 5.009497869018190385759 901.37823458957643652
6.009497869018190385759 2887.77130996900905302 6.009497869018190385759 805.42608607007400678
7.009497869018204596614 2998.11120828712000730 7.009497869018204596614 721.30420043574918054
8.009497869018190385759 3083.11308573434416758 8.009497869018190385759 650.63888980234025894
9.009497869018204596614 3150.39305156177488243 9.009497869018204596614 593.10545453511394953
10.009497869018190385759 3204.94479851471487564 10.009497869018190385759 546.78230681724858186
11.009497869018190385759 3250.13132594191438329 11.009497869018190385759 507.64073706270977482
12.009497869018204596614 3288.26926742330897468 12.009497869018204596614 475.54258118016946355
13.009497869018190385759 3320.99126621536743187 13.009497869018190385759 449.13864818221321684
14.009497869018204596614 3349.47168587978194410 14.009497869018204596614 427.31916668355290767
15.009497869018190385759 3374.57147798601772593 15.009497869018190385759 409.18766494780686571
16.009497869018190385759 3396.93311084486367690 16.009497869018190385759 394.02826973569534630
17.009497869018204596614 3417.04402659916740959 17.009497869018204596614 381.60994116663312070
18.009497869018190385759 3435.27986987673421027 18.009497869018190385759 370.75011344212077802
19.009497869018204596614 3451.93512576400053149 19.009497869018204596614 361.93425269180187342
20.009497869018190385759 3467.24194315054955950 20.009497869018190385759 353.92359860994258725
21.009497869018190385759 3481.38691510967282738 21.009497869018190385759 347.01567754558271872
22.009497869018204596614 3494.52270470844632655 22.009497869018204596614 341.01829159992485074
23.009497869018190385759 3506.77292382695122797 23.009497869018190385759 335.94114697785562385
24.009497869018204596614 3518.24127399549524853 24.009497869018204596614 331.31877574758772198
25.009497869018204596614 3529.01421868253146386 25.009497869018204596614 327.23521818879930834
26.009497869018190385759 3539.16458107803236999 26.009497869018190385759 323.78308962617029465
27.009497869018204596614 3548.75486107910728606 27.009497869018204596614 320.52150680845215902
28.009497869018190385759 3557.83812265095230032 28.009497869018190385759 317.59869301842928735
29.009497869018190385759 3566.46068190184132618 29.009497869018190385759 315.04222664426572464
30.009497869018190385759 3574.66259260066362913 30.009497869018190385759 312.64810109476047728
31.009497869018218807469 3582.47881851177862700 31.009497869018218807469 310.47117866668804709
32.009497869018190385759 3589.94059577103416814 32.009497869018190385759 308.48583481570369713
33.009497869018190385759 3597.07478029843923650 33.009497869018190385759 306.74088569946854932
34.009497869018218807469 3603.90617624479318692 34.009497869018218807469 305.05609327668167907
35.009497869018190385759 3610.45614060956040703 35.009497869018190385759 303.54256496475784388
36.009497869018190385759 3616.74415912827498687 36.009497869018190385759 302.09854242267897462
37.009497869018190385759 3622.78803662340851588 37.009497869018190385759 300.75684394230177077
38.009497869018218807469 3628.60329118703202766 38.009497869018218807469 299.50767604661291443
39.009497869018190385759 3634.20441746362985214 39.009497869018190385759 298.36238779184344594
40.009497869018190385759 3639.60460150590415651 40.009497869018190385759 297.33151759713825868
41.009497869018218807469 3644.81556716763816439 41.009497869018218807469 296.27190351457340967
42.009497869018190385759 3649.84830503892771958 42.009497869018190385759 295.31735276188101125
43.009497869018190385759 3654.71295170647499617 43.009497869018190385759 294.37818018921808516
44.009497869018218807469 3659.41854702452610582 44.009497869018218807469 293.52455266763894315
46.009497869018190385759 3668.38610971238995262 46.009497869018190385759 291.94061861143245551
48.009497869018218807469 3676.81164160604475910 48.009497869018218807469 290.48081573791517940
50.009497869018190385759 3684.74727764757017212 50.009497869018190385759 289.17181973636712655
52.009497869018190385759 3692.23812772528799542 52.009497869018190385759 287.96922148960010190
54.009497869018218807469 3699.32367145104581141 54.009497869018218807469 286.84450024824877801
56.009497869018190385759 3706.03841238755376253 56.009497869018190385759 285.80475242921966128
58.009497869018218807469 3712.41292065541028933 58.009497869018218807469 284.87440759633557263
60.009497869018190385759 3718.47422432777420909 60.009497869018190385759 283.96952854028370439
62.009497869018190385759 3724.24641111161736262 62.009497869018190385759 283.12418392555554192
64.009497869018218807469 3729.75106671834373628 64.009497869018218807469 282.33138924522251045
66.009497869018190385759 3735.00747293026506668 66.009497869018190385759 281.59357134156266511
68.009497869018190385759 3740.03312858576691724 68.009497869018190385759 280.90361534368304319
70.009497869018190385759 3744.84373155524281174 70.009497869018190385759 280.23703677175200255
72.009497869018190385759 3749.45357908266169034 72.009497869018190385759 279.61209878629676950
74.009497869018218807469 3753.87568807368415946 74.009497869018218807469 279.01552346037249208
76.009497869018190385759 3758.12185678950663714 76.009497869018190385759 278.44805223916290515
78.009497869018190385759 3762.20292995287991289 78.009497869018190385759 277.90996648594108365
80.009497869018218807469 3766.12882934630579257 80.009497869018218807469 277.39447140978535344
82.009497869018190385759 3769.90863009765507741 82.009497869018190385759 276.90092812665733391
84.009497869018218807469 3773.55072971231902557 84.009497869018218807469 276.42441966653217378
86.009497869018190385759 3777.06286481879851635 86.009497869018190385759 275.97362382286883076
88.009497869018190385759 3780.45214778475792627 88.009497869018190385759 275.53609405448077041
91.009497869018218807469 3785.32005520399388843 91.009497869018218807469 274.91465188007498455
94.009497869018218807469 3789.94662602273865559 94.009497869018218807469 274.32715302764376020
97.009497869018218807469 3794.35001192301479023 97.009497869018218807469 273.77544341786386894
99.504748934509137825444 3797.85435173208588822 99.504748934509137825444 273.25970960892635730
nan nan nan nan

