Time Pressure difference Time.1 Pressure.1 difference.1
(hr) (psi) (hr) (psi)
0.000200000000020850166 0.14139224902593089 0.000200000000020850166 0.11269696164619310
0.000399999999999067768 0.28273421237617330 0.000399999999999067768 0.29513091434530192
0.000600000000019917934 0.42403377348471022 0.000600000000019917934 0.43187233077470605
0.000799999999998135536 0.56529429813125220 0.000799999999998135536 0.57112376525246134
0.001007140329434719206 0.71155948329333329 0.001007140329434719206 0.71735076301682810
0.001267914553977789183 0.89564308816902427 0.001267914553977789183 0.90280171979491275
0.001596209851982166583 1.12730958208884902 0.001596209851982166583 1.13612032124134110
0.002009509145224797066 1.41883718502344269 0.002009509145224797066 1.42962181075147798
0.002529822128153114136 1.78566105931009877 0.002529822128153114136 1.79876839446638903
0.003184857364431081805 2.24717894788763095 0.003184857364431081805 2.26296182313532324
0.004009497869034817086 2.82775913090238307 0.004009497869034817086 2.84652929728108584
0.005047658755856332391 3.55799972241206630 0.005047658755856332391 3.57994638190760472
0.006354625877790454069 4.47629922002898262 0.006354625877790454069 4.50134852884302461
0.008000000000009777068 5.63081096851647622 0.008000000000009777068 5.65839096369523276
0.010071403294361402914 7.08186877741798515 0.010071403294361402914 7.11052422996812261
0.012679145539692626699 8.90498704382066641 0.012679145539692626699 8.93175803585224237
0.015962098519750611558 11.19455560655582005 0.015962098519750611558 11.21398656275379579
0.020095091452091651263 14.06836564707334603 0.020095091452091651263 14.07093975533088503
0.025298221281360611101 17.67311545151162022 0.025298221281360611101 17.64280051019188278
0.031848573644296607199 22.19104900303167227 0.031848573644296607199 22.10147668332325210
0.040094978690191851456 27.84786847819216149 0.040094978690191851456 27.65642393417458678
0.050476587558435426217 34.92202174407728421 0.050476587558435426217 34.56075829639735986
0.063546258777947173257 43.75537973267501002 0.063546258777947173257 43.11714513905576496
0.080000000000012505552 54.76515964820614357 0.080000000000012505552 53.68256333327808250
0.100714032943542974863 68.45668130919382577 0.100714032943542974863 66.67047050304239519
0.126791455396883634421 85.43611619426870618 0.126791455396883634421 82.54808352348082678
0.159620985197506115583 106.42174038635920397 0.159620985197506115583 101.82539179448379230
0.200950914520774404082 132.25126392925179175 0.200950914520774404082 125.03112465774177053
0.252982212813464002465 163.88151427356982026 0.252982212813464002465 152.66926078979426507
0.318485736442809752589 202.37506471945408748 0.318485736442809752589 185.14802352678464104
0.400949786901833249431 248.86636890334841610 0.400949786901833249431 222.67222697009310650
0.504765875584169521062 304.49783610903142517 0.504765875584169521062 265.09062555014946838
0.635462587779443310865 370.31473491227620798 0.635462587779443310865 311.69527633035494318
0.800000000000011368684 447.10836780642836175 0.800000000000011368684 360.98470887663188478
1.007140329435344483500 535.20254775018656801 1.007140329435344483500 410.43351837772661383
1.267914553968907398485 634.19353853123891440 1.267914553968907398485 456.36157157849163468
1.596209851975117999245 742.68269961226951636 1.596209851975117999245 494.05493197053942822
2.009509145207687197399 858.08283204721658421 2.009509145207687197399 518.31491849342887690
2.529822128134725289783 976.61756574647517937 2.529822128134725289783 524.52719961103912283
3.184857364427983839050 1093.63234898083214830 3.184857364427983839050 510.09449223022545539
4.009497869018204596614 1204.25567066243002046 4.009497869018204596614 475.81068511465088022
5.009497869018190385759 1301.19321195412408088 5.009497869018190385759 428.02877061516198864
6.009497869018190385759 1371.28805221992047336 6.009497869018190385759 382.46490120645967181
7.009497869018204596614 1423.68409332069950324 7.009497869018204596614 342.51875439686415348
8.009497869018190385759 1464.04811333753764302 8.009497869018190385759 308.96260130278733413
9.009497869018204596614 1495.99670046229539366 9.009497869018204596614 281.64225494684183104
10.009497869018190385759 1521.90116130587034604 10.009497869018190385759 259.64522949422416787
11.009497869018190385759 1543.35845086627227829 11.009497869018190385759 241.05845056050463882
12.009497869018204596614 1561.46864654179489662 12.009497869018204596614 225.81630949896316451
13.009497869018190385759 1577.00702585645967702 13.009497869018190385759 213.27812902507329795
14.009497869018204596614 1590.53124748481263850 14.009497869018204596614 202.91692272682681164
15.009497869018190385759 1602.45014317771779133 15.009497869018190385759 194.30699173499209564
16.009497869018190385759 1613.06879565258873299 16.009497869018190385759 187.10839624320726671
17.009497869018204596614 1622.61867184876678039 17.009497869018204596614 181.21142457633416711
18.009497869018190385759 1631.27815050012509346 18.009497869018190385759 176.05452314290653248
19.009497869018204596614 1639.18707089352005823 19.009497869018204596614 171.86822055197293935
20.009497869018190385759 1646.45567132847327230 20.009497869018190385759 168.06427866952580530
21.009497869018190385759 1653.17255745431361902 21.009497869018190385759 164.78398095739962059
22.009497869018204596614 1659.41022290624550806 22.009497869018204596614 161.93606025694757022
23.009497869018190385759 1665.22736606307739748 23.009497869018190385759 159.52512565987558446
24.009497869018204596614 1670.67323066825201749 24.009497869018204596614 157.33014490807238417
25.009497869018204596614 1675.78887479338072808 25.009497869018204596614 155.39102539691586458
26.009497869018190385759 1680.60887928286456372 26.009497869018190385759 153.75174647052779164
27.009497869018204596614 1685.16292285879399060 27.009497869018204596614 152.20295016043817782
28.009497869018190385759 1689.47620349346880175 28.009497869018190385759 150.81502182439379567
29.009497869018190385759 1693.57071486958943751 29.009497869018190385759 149.60105734504239194
30.009497869018190385759 1697.46547693327602246 30.009497869018190385759 148.46418208410415218
31.009497869018218807469 1701.17709258939225947 31.009497869018218807469 147.43044797021499903
32.009497869018190385759 1704.72039463987653107 32.009497869018190385759 146.48768692365817401
33.009497869018190385759 1708.10813589590679840 33.009497869018190385759 145.65907980142358724
34.009497869018218807469 1711.35209486484586705 34.009497869018218807469 144.85903870680417072
35.009497869018190385759 1714.46241313861810340 35.009497869018190385759 144.14032414527605397
36.009497869018190385759 1717.44834372013065149 36.009497869018190385759 143.45461511691459577
37.009497869018190385759 1720.31834141335048116 37.009497869018190385759 142.81749572679134985
38.009497869018218807469 1723.07977514468007030 38.009497869018218807469 142.22431544112905044
39.009497869018190385759 1725.73952784585776499 39.009497869018190385759 141.68046347657369211
40.009497869018190385759 1728.30386105028969723 40.009497869018190385759 141.19094411037292502
41.009497869018218807469 1730.77834195111290683 41.009497869018218807469 140.68777541194825176
42.009497869018190385759 1733.16818954362474869 42.009497869018190385759 140.23449712156360647
43.009497869018190385759 1735.47821729078418684 43.009497869018190385759 139.78852131890243982
44.009497869018218807469 1737.71271786080842503 44.009497869018218807469 139.38316746787324973
46.009497869018190385759 1741.97105768465439724 46.009497869018190385759 138.63102001101540850
48.009497869018218807469 1745.97200858387600420 48.009497869018218807469 137.93781752917757899
50.009497869018190385759 1749.74032737454444941 50.009497869018190385759 137.31622724911287037
52.009497869018190385759 1753.29743495334923864 52.009497869018190385759 136.74516104254752236
54.009497869018218807469 1756.66207862200508316 54.009497869018218807469 136.21107553687789959
56.009497869018190385759 1759.85064275386662302 56.009497869018190385759 135.71734053901491279
58.009497869018218807469 1762.87764388664731996 58.009497869018218807469 135.27555667982414889
60.009497869018190385759 1765.75591658022790398 60.009497869018190385759 134.84586550795594917
62.009497869018190385759 1768.49689913121483187 62.009497869018190385759 134.44444488085039779
64.009497869018218807469 1771.11084173776089301 64.009497869018218807469 134.06797813320622481
66.009497869018190385759 1773.60690055347799898 66.009497869018190385759 133.71761767616104066
68.009497869018190385759 1775.99338508262667347 68.009497869018190385759 133.38998493973775794
70.009497869018190385759 1778.27774962120474811 70.009497869018190385759 133.07345321563641960
72.009497869018190385759 1780.46678336327499892 72.009497869018190385759 132.77669495438672698
74.009497869018218807469 1782.56666752102319151 74.009497869018218807469 132.49340499514894987
76.009497869018190385759 1784.58300462071542825 76.009497869018190385759 132.22393542083150919
78.009497869018190385759 1786.52094439103234436 78.009497869018190385759 131.96841983969267176
80.009497869018218807469 1788.38519829293863950 80.009497869018218807469 131.72363167503775117
82.009497869018190385759 1790.18007574469652354 82.009497869018190385759 131.48926754617806978
84.009497869018218807469 1791.90956438853140753 84.009497869018218807469 131.26299257907953688
86.009497869018190385759 1793.57733804244639941 86.009497869018190385759 131.04892751365281356
88.009497869018190385759 1795.18677408773442039 88.009497869018190385759 130.84116198117800423
91.009497869018218807469 1797.49835023653349708 91.009497869018218807469 130.54606374193505758
94.009497869018218807469 1799.69532520632833439 94.009497869018218807469 130.26708383994258611
97.009497869018218807469 1801.78631851092882243 97.009497869018218807469 130.00509882971189768
99.504748934509137825444 1803.45039048730359355 99.504748934509137825444 129.76019730032814437
nan nan nan nan

