Time Pressure difference Time.1 Pressure.1 difference.1
(hr) (psi) (hr) (psi)
0.000200000000020850166 0.57638134455864776 0.000200000000020850166 0.45940584953418717
0.000399999999999067768 1.15255770103934174 0.000399999999999067768 1.20309249200761337
0.000600000000019917934 1.72856120602884822 0.000600000000019917934 1.76051485427571341
0.000799999999998135536 2.30440558002916296 0.000799999999998135536 2.32816923129385689
0.001007140329434719206 2.90065130542517613 0.001007140329434719206 2.92425928688624603
0.001267914553977789183 3.65106270647725761 0.001267914553977789183 3.68024465775220300
0.001596209851982166583 4.59544435522101313 0.001596209851982166583 4.63136107423676080
0.002009509145224797066 5.78384805424262183 0.002009509145224797066 5.82781126382808345
0.002529822128153114136 7.27919478883469662 0.002529822128153114136 7.33262645508945621
0.003184857364431081805 9.16055888756546111 0.003184857364431081805 9.22489731431046422
0.004009497869034817086 11.52727692773736123 0.004009497869034817086 11.60379295891642570
0.005047658755856332391 14.50408122136212974 0.005047658755856332391 14.59354613330570771
0.006354625877790454069 18.24750211458873395 0.006354625877790454069 18.34961488522480266
0.008000000000009777068 22.95383530107010372 0.008000000000009777068 23.06626434023997518
0.010071403294361402914 28.86902978088625460 0.010071403294361402914 28.98584289039946427
0.012679145539692626699 36.30091777275130482 0.012679145539692626699 36.41004893438590528
0.015962098519750611558 45.63427667848931435 0.015962098519750611558 45.71348639993164653
0.020095091452091651263 57.34927878483428998 0.020095091452091651263 57.35977206143707718
0.025298221281360611101 72.04393534057383874 0.025298221281360611101 71.92035737389984718
0.031848573644296607199 90.46115858294676570 0.031848573644296607199 90.09601965613538255
0.040094978690191851456 113.52101679639508802 0.040094978690191851456 112.74059874342934506
0.050476587558435426217 142.35859452144447346 0.050476587558435426217 140.88591470237275871
0.063546258777947173257 178.36751855731637306 0.063546258777947173257 175.76577400803321893
0.080000000000012505552 223.24856256592272530 0.080000000000012505552 218.83539052918655443
0.100714032943542974863 279.06164792512544182 0.100714032943542974863 271.78021210946104702
0.126791455396883634421 348.27781483898945680 0.126791455396883634421 336.50483459866006797
0.159620985197506115583 433.82509463380546322 0.159620985197506115583 415.08821478574867569
0.200950914520774404082 539.11838766453820426 0.200950914520774404082 509.68570228126503707
0.252982212813464002465 668.05817289166998307 0.252982212813464002465 622.35175133722009377
0.318485736442809752589 824.97599912106875308 0.318485736442809752589 754.75047237683372714
0.400949786901833249431 1014.49643323541431528 0.400949786901833249431 907.71678406043838550
0.504765875584169521062 1241.27647307975735202 0.504765875584169521062 1080.63413827207978102
0.635462587779443310865 1509.57712526004343090 0.635462587779443310865 1270.61662645256478754
0.800000000000011368684 1822.62411111679330133 0.800000000000011368684 1471.54354853826976068
1.007140329435344483500 2181.73744465223126099 1.007140329435344483500 1673.12016609273246104
1.267914553968907398485 2585.27130707146216082 1.267914553968907398485 1860.34452414055704139
1.596209851975117999245 3027.52418136060441611 1.596209851975117999245 2014.00039915049319461
2.009509145207687197399 3497.94942711012390646 2.009509145207687197399 2112.89552068203602175
2.529822128134725289783 3981.15278271945453525 2.529822128134725289783 2138.21970194382356567
3.184857364427983839050 4458.16010496303897526 3.184857364427983839050 2079.38519479733076878
4.009497869018204596614 4909.11282217096413660 4.009497869018204596614 1939.62826343795927642
5.009497869018190385759 5304.27585814240046602 5.009497869018190385759 1744.84669433121916882
6.009497869018190385759 5590.01541287296913652 6.009497869018190385759 1559.10692080045055263
7.009497869018204596614 5803.60633336026330653 7.009497869018204596614 1396.26762821780494050
8.009497869018190385759 5968.14907378184489062 8.009497869018190385759 1259.47695707547995880
9.009497869018204596614 6098.38654953159220895 9.009497869018204596614 1148.10636869506697622
10.009497869018190385759 6203.98532226451789029 10.009497869018190385759 1058.43614140880799823
11.009497869018190385759 6291.45533206074560439 11.009497869018190385759 982.66768375546905645
12.009497869018204596614 6365.28101207919917215 12.009497869018204596614 920.53354401636158855
13.009497869018190385759 6428.62275834427327936 13.009497869018190385759 869.42202008456354179
14.009497869018204596614 6483.75385004103100073 14.009497869018204596614 827.18486735112355746
15.009497869018190385759 6532.34087777740387537 15.009497869018190385759 792.08673689617376112
16.009497869018190385759 6575.62750227790638746 16.009497869018190385759 762.74187409730961917
17.009497869018204596614 6614.55729171291386592 17.009497869018204596614 738.70304253764447822
18.009497869018190385759 6649.85740174462807772 18.009497869018190385759 717.68108551784837346
19.009497869018204596614 6682.09788311299598718 19.009497869018204596614 700.61574613245454657
20.009497869018190385759 6711.72811900371743832 20.009497869018190385759 685.10908892930240199
21.009497869018190385759 6739.10930774023199774 21.009497869018190385759 671.73705178516433989
22.009497869018204596614 6764.53696749428308976 22.009497869018204596614 660.12758681214506851
23.009497869018190385759 6788.25038048066289775 23.009497869018190385759 650.29948283702219669
24.009497869018204596614 6810.45028737116808770 24.009497869018204596614 641.35170836055385735
25.009497869018204596614 6831.30406018713438243 25.009497869018204596614 633.44694470625108806
26.009497869018190385759 6850.95266672367688443 26.009497869018190385759 626.76447237691616010
27.009497869018204596614 6869.51709141849551088 27.009497869018204596614 620.45084977166857243
28.009497869018190385759 6887.10005306455241225 28.009497869018190385759 614.79300073120521120
29.009497869018190385759 6903.79120826250345999 29.009497869018190385759 609.84431023596698651
30.009497869018190385759 6919.66809126329644641 30.009497869018190385759 605.20987167225985104
31.009497869018218807469 6934.79838332028703007 31.009497869018218807469 600.99588496093531376
32.009497869018190385759 6949.24254991432007955 32.009497869018190385759 597.15274728291251449
33.009497869018190385759 6963.05257750507917081 33.009497869018190385759 593.77495471992097009
34.009497869018218807469 6976.27648083140138624 34.009497869018218807469 590.51361072832514765
35.009497869018190385759 6988.95560179448420968 35.009497869018190385759 587.58379195691952646
36.009497869018190385759 7001.12765998853228666 36.009497869018190385759 584.78851927071661976
37.009497869018190385759 7012.82712117324626888 37.009497869018190385759 582.19132081568477588
38.009497869018218807469 7024.08402456037219963 38.009497869018218807469 579.77323882766120278
39.009497869018190385759 7034.92642821870231273 39.009497869018190385759 577.55624228979752388
40.009497869018190385759 7045.37985710500470304 40.009497869018190385759 575.56073099110847124
41.009497869018218807469 7055.46700571836026938 41.009497869018218807469 573.50957859105972148
42.009497869018190385759 7065.20914913959950354 42.009497869018190385759 571.66180297202117799
43.009497869018190385759 7074.62590930890291929 43.009497869018190385759 569.84379572940815706
44.009497869018218807469 7083.73478516200157173 44.009497869018218807469 568.19138267785979224
46.009497869018190385759 7101.09378220862072340 46.009497869018190385759 565.12527569196288368
48.009497869018218807469 7117.40354087427112972 48.009497869018218807469 562.29945616305917611
50.009497869018190385759 7132.76498159152561129 50.009497869018190385759 559.76556166844238760
52.009497869018190385759 7147.26542601571145497 52.009497869018190385759 557.43762707344376395
54.009497869018218807469 7160.98129697087915702 54.009497869018218807469 555.26044321797871817
56.009497869018190385759 7173.97938487311421341 56.009497869018190385759 553.24774702080787847
58.009497869018218807469 7186.31886596145068324 58.009497869018218807469 551.44682811245957055
60.009497869018190385759 7198.05205994175230444 60.009497869018190385759 549.69520468831444759
62.009497869018190385759 7209.22559469371753949 62.009497869018190385759 548.05882530840779054
64.009497869018218807469 7219.88125484863667225 64.009497869018218807469 546.52416968418765464
66.009497869018190385759 7230.05636519741347001 66.009497869018190385759 545.09593558576227679
68.009497869018190385759 7239.78479918976609042 68.009497869018190385759 543.76035037198982991
70.009497869018190385759 7249.09694404408674018 70.009497869018190385759 542.47001810844722058
72.009497869018190385759 7258.02047571029197570 72.009497869018190385759 541.26029178464716551
74.009497869018218807469 7266.58059171805325605 74.009497869018218807469 540.10546859787189078
76.009497869018190385759 7274.80013060091641819 76.009497869018190385759 539.00698380374262797
78.009497869018190385759 7282.70008507638522133 78.009497869018190385759 537.96538205239426134
80.009497869018218807469 7290.29966127650823182 80.009497869018218807469 536.96751029883034789
82.009497869018190385759 7297.61642641808612098 82.009497869018190385759 536.01213182059643714
84.009497869018218807469 7304.66663600736592343 84.009497869018218807469 535.08972857236528853
86.009497869018190385759 7311.46526625538444932 86.009497869018190385759 534.21709862918464751
88.009497869018190385759 7318.02608495764616237 88.009497869018190385759 533.37014854680217013
91.009497869018218807469 7327.44915714069156820 91.009497869018218807469 532.16718925388818207
94.009497869018218807469 7336.40506098815058067 94.009497869018218807469 531.02993588870708663
97.009497869018218807469 7344.92893369455123320 97.009497869018218807469 529.96196169994323100
99.504748934509137825444 7351.71247416294863797 99.504748934509137825444 528.96362781839661693
nan nan nan nan

