Time Pressure difference Time.1 Pressure.1 difference.1
(hr) (psi) (hr) (psi)
0.000200000000020850166 0.44912832043530987 0.000200000000020850166 0.35797858405261340
0.000399999999999067768 0.89809690990078583 0.000399999999999067768 0.93747466909684152
0.000600000000019917934 1.34693080989260894 0.000600000000019917934 1.37182975657847805
0.000799999999998135536 1.79564071171103623 0.000799999999998135536 1.81415784256664181
0.001007140329434719206 2.26024777046117631 0.001007140329434719206 2.27864360017110101
0.001267914553977789183 2.84498392712513581 0.001267914553977789183 2.86772310993678170
0.001596209851982166583 3.58086573134104924 0.001596209851982166583 3.60885278511955399
0.002009509145224797066 4.50689458772152385 0.002009509145224797066 4.54115163415175349
0.002529822128153114136 5.67209983545560803 0.002529822128153114136 5.71373490006970641
0.003184857364431081805 7.13809783446659285 0.003184857364431081805 7.18823167348867376
0.004009497869034817086 8.98229370992521758 0.004009497869034817086 9.04191659136344938
0.005047658755856332391 11.30188147119126896 0.005047658755856332391 11.37159438958886248
0.006354625877790454069 14.21883281656264941 0.006354625877790454069 14.29840120926608016
0.008000000000009777068 17.88610542940527637 0.008000000000009777068 17.97371247291426855
0.010071403294361402914 22.49534788121006912 0.010071403294361402914 22.58637108342815480
0.012679145539692626699 28.28642943331270843 0.012679145539692626699 28.37146670211888377
0.015962098519750611558 35.55917663258907879 0.015962098519750611558 35.62089849345323245
0.020095091452091651263 44.68774970246827394 0.020095091452091651263 44.69592628163928083
0.025298221281360611101 56.13813143421337770 0.025298221281360611101 56.04183691472715623
0.031848573644296607199 70.48921448021825142 0.031848573644296607199 70.20469064114445246
0.040094978690191851456 88.45793516602215334 0.040094978690191851456 87.84981720267221306
0.050476587558435426217 110.92877495177491198 0.050476587558435426217 109.78123223561513555
0.063546258777947173257 138.98767679790884699 0.063546258777947173257 136.96034338288302479
0.080000000000012505552 173.95991888253718116 0.080000000000012505552 170.52108352923627876
0.100714032943542974863 217.45063474685099436 0.100714032943542974863 211.77678865672291408
0.126791455396883634421 271.38531026414761982 0.126791455396883634421 262.21155942752733381
0.159620985197506115583 338.04552828608217396 0.159620985197506115583 323.44536217071322426
0.200950914520774404082 420.09225012821156042 0.200950914520774404082 397.15769008929743222
0.252982212813464002465 520.56481004545707947 0.252982212813464002465 484.94941662640530922
0.318485736442809752589 642.83844087356010277 0.318485736442809752589 588.11725120272762979
0.400949786901833249431 790.51670122240079763 0.400949786901833249431 707.31177978735456691
0.504765875584169521062 967.22842058162916601 0.504765875584169521062 842.05257527694539021
0.635462587779443310865 1176.29386383899486646 0.635462587779443310865 990.09087775524517383
0.800000000000011368684 1420.22658009100769050 0.800000000000011368684 1146.65731054930120081
1.007140329435344483500 1700.05515167706312241 1.007140329435344483500 1303.72999955277850859
1.267914553968907398485 2014.49712239334712649 1.267914553968907398485 1449.61910971991460428
1.596209851975117999245 2359.10975170956180591 1.596209851975117999245 1569.35096037700759553
2.009509145207687197399 2725.67487826762908298 2.009509145207687197399 1646.41209403795028265
2.529822128134725289783 3102.19697354762729447 2.529822128134725289783 1666.14522229388876440
3.184857364427983839050 3473.89099088029070117 3.184857364427983839050 1620.30015179012798399
4.009497869018204596614 3825.28271857477739104 4.009497869018204596614 1511.39864683477344443
5.009497869018190385759 4133.20196738368849765 5.009497869018190385759 1359.62080077757332219
6.009497869018190385759 4355.85616587504136987 6.009497869018190385759 1214.88850971463671158
7.009497869018204596614 4522.29064937163366267 7.009497869018204596614 1088.00074926062734448
8.009497869018190385759 4650.50577177806098916 8.009497869018190385759 981.41061590297135808
9.009497869018204596614 4751.98951911552649108 9.009497869018204596614 894.62833924290930554
10.009497869018190385759 4834.27427708923460159 10.009497869018190385759 824.75543486400624715
11.009497869018190385759 4902.43272628110025835 11.009497869018190385759 765.71507825101480194
12.009497869018204596614 4959.95923019158362877 12.009497869018204596614 717.29886546729471775
13.009497869018190385759 5009.31643507345961552 13.009497869018190385759 677.47170396199760489
14.009497869018204596614 5052.27572730469910312 14.009497869018204596614 644.55963689697932750
15.009497869018190385759 5090.13574891745702189 15.009497869018190385759 617.21044433468080115
16.009497869018190385759 5123.86558619057632313 16.009497869018190385759 594.34431747842313598
17.009497869018204596614 5154.20048704902364989 17.009497869018204596614 575.61276041894382161
18.009497869018190385759 5181.70706629451524350 18.009497869018190385759 559.23201468923252833
19.009497869018204596614 5206.82951930882791203 19.009497869018204596614 545.93434763567881873
20.009497869018190385759 5229.91801480809135683 20.009497869018190385759 533.85123812672907206
21.009497869018190385759 5251.25400603134949051 21.009497869018190385759 523.43146892350466715
22.009497869018204596614 5271.06776687866204156 22.009497869018204596614 514.38513258089221836
23.009497869018190385759 5289.54575102389298991 23.009497869018190385759 506.72686974313421615
24.009497869018204596614 5306.84437976974186313 24.009497869018204596614 499.75457794328877981
25.009497869018204596614 5323.09407287309204548 25.009497869018204596614 493.59502184902686395
26.009497869018190385759 5338.40467536909909541 26.009497869018190385759 488.38790055344128405
27.009497869018204596614 5352.87046084558096481 27.009497869018204596614 483.46819462727421524
28.009497869018190385759 5366.57146992043089995 28.009497869018190385759 479.05948108925082352
29.009497869018190385759 5379.57756487987262517 29.009497869018190385759 475.20335862542879113
30.009497869018190385759 5391.94916202334752597 30.009497869018190385759 471.59210779656609702
31.009497869018218807469 5403.73899998983415571 31.009497869018218807469 468.30848178774175494
32.009497869018190385759 5414.99419473843136075 32.009497869018190385759 465.31382905162013230
33.009497869018190385759 5425.75525519876282488 33.009497869018190385759 462.68178289863965347
34.009497869018218807469 5436.05959545303994673 34.009497869018218807469 460.14047589220143664
35.009497869018190385759 5445.93942996972782566 35.009497869018190385759 457.85750022617099830
36.009497869018190385759 5455.42415064041506412 36.009497869018190385759 455.67936566549343524
37.009497869018190385759 5464.54061390123115416 37.009497869018190385759 453.65557466157252975
38.009497869018218807469 5473.31222693016025005 38.009497869018218807469 451.77135493064514549
39.009497869018190385759 5481.76085315743057436 39.009497869018190385759 450.04382516088116972
40.009497869018190385759 5489.90638215974377090 40.009497869018190385759 448.48888129177282735
41.009497869018218807469 5497.76649796235869871 41.009497869018218807469 446.89058072030621815
42.009497869018190385759 5505.35777855033757078 42.009497869018190385759 445.45075556261383554
43.009497869018190385759 5512.69551374719685555 43.009497869018190385759 444.03412654239599533
44.009497869018218807469 5519.79333908727403468 44.009497869018218807469 442.74653195677382200
46.009497869018190385759 5533.31983029243201599 46.009497869018190385759 440.35735768204898477
48.009497869018218807469 5546.02873314878252131 48.009497869018218807469 438.15542038679939196
50.009497869018190385759 5557.99868695443547040 50.009497869018190385759 436.18095714424089238
52.009497869018190385759 5569.29773455769736756 52.009497869018190385759 434.36698213515097677
54.009497869018218807469 5579.98542621107480954 54.009497869018218807469 432.67047523478868243
56.009497869018190385759 5590.11380639463459374 56.009497869018190385759 431.10214053569444559
58.009497869018218807469 5599.72898646346766327 58.009497869018218807469 429.69882710061784792
60.009497869018190385759 5608.87173501954748644 60.009497869018190385759 428.33392573115418145
62.009497869018190385759 5617.57838547562369058 62.009497869018190385759 427.05882491564244674
64.009497869018218807469 5625.88149728465214139 64.009497869018218807469 425.86298936430210915
66.009497869018190385759 5633.81015469928297534 66.009497869018190385759 424.75007967721739988
68.009497869018190385759 5641.39075261540256179 68.009497869018190385759 423.70936392622581934
70.009497869018190385759 5648.64696938500310353 70.009497869018190385759 422.70391021437450263
72.009497869018190385759 5655.60037068334440846 72.009497869018190385759 421.76126632569906860
74.009497869018218807469 5662.27059094913238368 74.009497869018218807469 420.86140410223782737
76.009497869018190385759 5668.67542644227251003 76.009497869018190385759 420.00544192499427254
78.009497869018190385759 5674.83123512445581582 78.009497869018190385759 419.19380419667083970
80.009497869018218807469 5680.75298281286359270 80.009497869018218807469 418.41624179129638605
82.009497869018190385759 5686.45435824785909062 82.009497869018190385759 417.67179102903622834
84.009497869018218807469 5691.94802805768813414 84.009497869018218807469 416.95303525119379628
86.009497869018190385759 5697.24566201718243974 86.009497869018190385759 416.27306386689713236
88.009497869018190385759 5702.35798827868529770 88.009497869018190385759 415.61310276374194927
91.009497869018218807469 5709.70064192781228485 91.009497869018218807469 414.67573188614665014
94.009497869018218807469 5716.67926830245505698 94.009497869018218807469 413.78956043275877619
97.009497869018218807469 5723.32124703471527027 97.009497869018218807469 412.95737275320249182
99.504748934509137825444 5728.60712272437558568 99.504748934509137825444 412.17945024810120458
nan nan nan nan

