Time Pressure difference Time.1 Pressure.1 difference.1
(hr) (psi) (hr) (psi)
0.000200000000020850166 0.28611137449953072 0.000200000000020850166 0.22804561650759075
0.000399999999999067768 0.57212099445531539 0.000399999999999067768 0.59720608549872867
0.000600000000019917934 0.85804481222788420 0.000600000000019917934 0.87390636344999340
0.000799999999998135536 1.14388963857147496 0.000799999999998135536 1.15568573674615704
0.001007140329434719206 1.43986154266415678 0.001007140329434719206 1.45158036751640496
0.001267914553977789183 1.81236013135379026 0.001267914553977789183 1.82684583299676451
0.001596209851982166583 2.28114409552096475 0.001596209851982166583 2.29897288533541966
0.002009509145224797066 2.87105877440037816 0.002009509145224797066 2.89288178175593202
0.002529822128153114136 3.61333767295690622 0.002529822128153114136 3.63986075115551699
0.003184857364431081805 4.54723269454908863 0.003184857364431081805 4.57916980681500707
0.004009497869034817086 5.72205377076717525 0.004009497869034817086 5.76003575449819749
0.005047658755856332391 7.19971708535147492 0.005047658755856332391 7.24412679633068279
0.006354625877790454069 9.05792312758805807 0.006354625877790454069 9.10861114071765066
0.008000000000009777068 11.39411160688039892 0.008000000000009777068 11.44992053830094214
0.010071403294361402914 14.33036976136345153 0.010071403294361402914 14.38835491240608278
0.012679145539692626699 18.01950319455476190 0.012679145539692626699 18.07367508431276804
0.015962098519750611558 22.65251252150119043 0.015962098519750611558 22.69183163286650284
0.020095091452091651263 28.46775166231311971 0.020095091452091651263 28.47296044608131993
0.025298221281360611101 35.76206891364704177 0.025298221281360611101 35.70072573827063422
0.031848573644296607199 44.90424033554644012 0.031848573644296607199 44.72298811213646985
0.040094978690191851456 56.35098092057707930 0.040094978690191851456 55.96358725503563392
0.050476587558435426217 70.66573811742698297 0.050476587558435426217 69.93471090565111581
0.063546258777947173257 88.54029781200119942 0.063546258777947173257 87.24881134020697004
0.080000000000012505552 110.81891128813479952 0.080000000000012505552 108.62824580380977579
0.100714032943542974863 138.52410806095693374 0.100714032943542974863 134.90965795909755798
0.126791455396883634421 172.88249394604960685 0.126791455396883634421 167.03847489457297115
0.159620985197506115583 215.34752172298567530 0.159620985197506115583 206.04667516060249000
0.200950914520774404082 267.61432230389772258 0.200950914520774404082 253.00415813095983708
0.252982212813464002465 331.61906417710599726 0.252982212813464002465 308.93073948052483502
0.318485736442809752589 409.51189566760126581 0.318485736442809752589 374.65247113655243538
0.400949786901833249431 503.58841707501085239 0.400949786901833249431 450.58380045712954143
0.504765875584169521062 616.16032718533415391 0.504765875584169521062 536.41867758383193632
0.635462587779443310865 749.34275770484123314 0.635462587779443310865 630.72455916260071263
0.800000000000011368684 904.73693250241979058 0.800000000000011368684 730.46317560918453182
1.007140329435344483500 1082.99809662390680387 1.007140329435344483500 830.52429601139965598
1.267914553968907398485 1283.30927796909509198 1.267914553968907398485 923.46106248824185059
1.596209851975117999245 1502.84028627423936086 1.596209851975117999245 999.73468586979731754
2.009509145207687197399 1736.35584837789701851 2.009509145207687197399 1048.82548212787946795
2.529822128134725289783 1976.21436833404391109 2.529822128134725289783 1061.39621568351435599
3.184857364427983839050 2212.99722382003710663 3.184857364427983839050 1032.19120780704452045
4.009497869018204596614 2436.84676886985789679 4.009497869018204596614 962.81691576141122368
5.009497869018190385759 2633.00273477775681386 5.009497869018190385759 866.12880642126890507
6.009497869018190385759 2774.84170566854481876 6.009497869018190385759 773.92897655895376374
7.009497869018204596614 2880.86663589600357227 7.009497869018204596614 693.09677360306636729
8.009497869018190385759 2962.54441757713493644 8.009497869018190385759 625.19491087152255204
9.009497869018204596614 3027.19332328840937407 9.009497869018204596614 569.91138648066817041
10.009497869018190385759 3079.61176170129010643 10.009497869018190385759 525.39975850595953943
11.009497869018190385759 3123.03121822351567971 11.009497869018190385759 487.78886466360944496
12.009497869018204596614 3159.67773182574956081 12.009497869018204596614 456.94594392731369226
13.009497869018190385759 3191.12009938012988641 13.009497869018190385759 431.57456696838363541
14.009497869018204596614 3218.48675961632670806 14.009497869018204596614 410.60836128252014987
15.009497869018190385759 3242.60499560667631158 15.009497869018190385759 393.18591268727811894
16.009497869018190385759 3264.09215120288581602 16.009497869018190385759 378.61934298625470774
17.009497869018204596614 3283.41660656456315337 17.009497869018204596614 366.68664737799383602
18.009497869018190385759 3300.93931630613542438 18.009497869018190385759 356.25150565388150881
19.009497869018204596614 3316.94324933747566320 19.009497869018204596614 347.78039923458055682
20.009497869018190385759 3331.65147609996938627 20.009497869018190385759 340.08301095480516096
21.009497869018190385759 3345.24329273108196503 21.009497869018190385759 333.44523205497335994
22.009497869018204596614 3357.86539223381441843 22.009497869018204596614 327.68238075523504449
23.009497869018190385759 3369.63655250410965891 23.009497869018190385759 322.80378368821880031
24.009497869018204596614 3380.65641970516890069 24.009497869018204596614 318.36217557868764061
25.009497869018204596614 3391.00807605248837717 25.009497869018204596614 314.43831021493559774
26.009497869018190385759 3400.76149690179636309 26.009497869018190385759 311.12118109330333482
27.009497869018204596614 3409.97673802014787725 27.009497869018204596614 307.98714620700428668
28.009497869018190385759 3418.70478824560768771 28.009497869018190385759 305.17863239759685712
29.009497869018190385759 3426.99015244199290464 29.009497869018190385759 302.72213956879170382
30.009497869018190385759 3434.87131802968815464 30.009497869018190385759 300.42163904077540337
31.009497869018218807469 3442.38188147500522973 31.009497869018218807469 298.32984765737620592
32.009497869018190385759 3449.55185738892669178 32.009497869018190385759 296.42214295140246350
33.009497869018190385759 3456.40705145995252678 33.009497869018190385759 294.74543206876302293
34.009497869018218807469 3462.97129784415892573 34.009497869018218807469 293.12652538318019424
35.009497869018190385759 3469.26511835108567539 35.009497869018190385759 291.67218532926449370
36.009497869018190385759 3475.30723670426459648 36.009497869018190385759 290.28463294246245141
37.009497869018190385759 3481.11476144819152978 37.009497869018190385759 288.99540311774251222
38.009497869018218807469 3486.70260382217611550 38.009497869018218807469 287.79508536322578038
39.009497869018190385759 3492.08469164103007643 39.009497869018190385759 286.69458491730210881
40.009497869018190385759 3497.27369530176247281 40.009497869018190385759 285.70402808216641688
41.009497869018218807469 3502.28088018342850773 41.009497869018218807469 284.68585142182467962
42.009497869018190385759 3507.11680707651112243 42.009497869018190385759 283.76862946951695221
43.009497869018190385759 3511.79121616488100699 43.009497869018190385759 282.86618431589670308
44.009497869018218807469 3516.31279378892986642 44.009497869018218807469 282.04593887616698566
46.009497869018190385759 3524.92966966777112248 46.009497869018190385759 280.52394637523116216
48.009497869018218807469 3533.02571148737251860 48.009497869018218807469 279.12123076492406426
50.009497869018190385759 3540.65101539319584845 50.009497869018190385759 277.86342455114601080
52.009497869018190385759 3547.84892719971867336 52.009497869018190385759 276.70785528609616222
54.009497869018218807469 3554.65738262335116815 54.009497869018218807469 275.62711755697654326
56.009497869018190385759 3561.10953592547093649 56.009497869018190385759 274.62803026718313504
58.009497869018218807469 3567.23476174709776387 58.009497869018218807469 273.73406763446769219
60.009497869018190385759 3573.05903119763797804 60.009497869018190385759 272.86457491021673150
62.009497869018190385759 3578.60549000669334418 62.009497869018190385759 272.05228846477962179
64.009497869018218807469 3583.89487975170413847 64.009497869018218807469 271.29049692837025987
66.009497869018190385759 3588.94572817880271032 66.009497869018190385759 270.58153223881993199
68.009497869018190385759 3593.77484981425641308 68.009497869018190385759 269.91855776041052195
70.009497869018190385759 3598.39732864526104095 70.009497869018190385759 269.27804650693485655
72.009497869018190385759 3602.82690280568613161 72.009497869018190385759 268.67754743711202536
74.009497869018218807469 3607.07608016018775743 74.009497869018218807469 268.10430187253672329
76.009497869018190385759 3611.15619758544744400 76.009497869018190385759 267.55902226332966620
78.009497869018190385759 3615.07767570891292053 78.009497869018190385759 267.04197896973101933
80.009497869018218807469 3618.85004831041715079 80.009497869018218807469 266.54664291889992001
82.009497869018190385759 3622.48203562456228610 82.009497869018190385759 266.07240021108975725
84.009497869018218807469 3625.98170676267545787 84.009497869018218807469 265.61452616001975002
86.009497869018190385759 3629.35649580353856436 86.009497869018190385759 265.18135920409741857
88.009497869018190385759 3632.61323697753277884 88.009497869018190385759 264.76093953838375228
91.009497869018218807469 3637.29077930216180903 91.009497869018218807469 264.16379957191560379
94.009497869018218807469 3641.73642277045291848 94.009497869018218807469 263.59927553494264885
97.009497869018218807469 3645.96760922211478828 97.009497869018218807469 263.06914116129934200
99.504748934509137825444 3649.33490780960210031 99.504748934509137825444 262.57357571360523707
nan nan nan nan

