Time Pressure difference Time.1 Pressure.1 difference.1
(hr) (psi) (hr) (psi)
0.000200000000020850166 0.74023000960634411 0.000200000000020850166 0.59000174038301101
0.000399999999999067768 1.48019675891055447 0.000399999999999067768 1.54509713980775731
0.000600000000019917934 2.21994152000818890 0.000600000000019917934 2.26097867287934351
0.000799999999998135536 2.95948191374596714 0.000799999999998135536 2.99000088867465053
0.001007140329434719206 3.72522317724156826 0.001007140329434719206 3.75554222991162945
0.001267914553977789183 4.68895499100253854 0.001267914553977789183 4.72643253304395472
0.001596209851982166583 5.90179722387691452 0.001596209851982166583 5.94792403473407916
0.002009509145224797066 7.42802996865214116 0.002009509145224797066 7.48449065628714916
0.002529822128153114136 9.34846083991757659 0.002529822128153114136 9.41708159455933114
0.003184857364431081805 11.76464272717642245 0.003184857364431081805 11.84727072112022128
0.004009497869034817086 14.80415074413600784 0.004009497869034817086 14.90241808576568516
0.005047658755856332391 18.62717501733375869 0.005047658755856332391 18.74207223469275263
0.006354625877790454069 23.43474297544584672 0.006354625877790454069 23.56588347453113030
0.008000000000009777068 29.47895154105684412 0.008000000000009777068 29.62334092758092297
0.010071403294361402914 37.07566595236474427 0.010071403294361402914 37.22568567453899391
0.012679145539692626699 46.62022628823761039 0.012679145539692626699 46.76038030534408563
0.015962098519750611558 58.60679111667459296 0.015962098519750611558 58.70851788735810572
0.020095091452091651263 73.65203191703105290 0.020095091452091651263 73.66550813084992910
0.025298221281360611101 92.52395736379612856 0.025298221281360611101 92.36524972982809345
0.031848573644296607199 116.17666830998933847 0.031848573644296607199 115.70773087151586367
0.040094978690191851456 145.79178203288836357 0.040094978690191851456 144.78951353773751975
0.050476587558435426217 182.82705501311050966 0.050476587558435426217 180.93573461055086682
0.063546258777947173257 229.07228212988681548 0.063546258777947173257 225.73093631623311239
0.080000000000012505552 286.71171815825573503 0.080000000000012505552 281.04400803892644944
0.100714032943542974863 358.39086097166182299 0.100714032943542974863 349.03952204533959502
0.126791455396883634421 447.28319654646548997 0.126791455396883634421 432.16349609351732397
0.159620985197506115583 557.14911143446875030 0.159620985197506115583 533.08587468876805815
0.200950914520774404082 692.37426410020054846 0.200950914520774404082 654.57471144347164227
0.252982212813464002465 857.96792766751264026 0.252982212813464002465 799.26848295833462998
0.318485736442809752589 1059.49298588420083433 0.318485736442809752589 969.30435846375473830
0.400949786901833249431 1302.88863719988285084 0.400949786901833249431 1165.75460001989904413
0.504765875584169521062 1594.13573021787010475 0.504765875584169521062 1387.82739258607648480
0.635462587779443310865 1938.70655336426943904 0.635462587779443310865 1631.81644667068189847
0.800000000000011368684 2340.74380792777174065 0.800000000000011368684 1889.86112294236681919
1.007140329435344483500 2801.94274998627088280 1.007140329435344483500 2148.74018444809826178
1.267914553968907398485 3320.18970172236822691 1.267914553968907398485 2389.18705120504409933
1.596209851975117999245 3888.16236855835131792 1.596209851975117999245 2586.52287913988266155
2.009509145207687197399 4492.31600307072130818 2.009509145207687197399 2713.53104387736266290
2.529822128134725289783 5112.88019714331130672 2.529822128134725289783 2746.05416266955717219
3.184857364427983839050 5725.48700348788679548 3.184857364427983839050 2670.49469461706303264
4.009497869018204596614 6304.63262876213320851 4.009497869018204596614 2491.00888089434874928
5.009497869018190385759 6812.12916846570897178 5.009497869018190385759 2240.85650498526001684
6.009497869018190385759 7179.09627338664267882 6.009497869018190385759 2002.31624749264187813
7.009497869018204596614 7453.40495914954408363 7.009497869018204596614 1793.18642007770063174
8.009497869018190385759 7664.72247570828585594 8.009497869018190385759 1617.51008917341596316
9.009497869018204596614 7831.98272594966510951 9.009497869018204596614 1474.48004060405423843
10.009497869018190385759 7967.60019742485019378 10.009497869018190385759 1359.31914264623264899
11.009497869018190385759 8079.93541924107375962 11.009497869018190385759 1262.01188822852441263
12.009497869018204596614 8174.74762013057352306 12.009497869018204596614 1182.21479678868945484
13.009497869018190385759 8256.09560595440598263 13.009497869018190385759 1116.57373430773691325
14.009497869018204596614 8326.89888389107727562 14.009497869018204596614 1062.32977192279940937
15.009497869018190385759 8389.29780840099374473 15.009497869018190385759 1017.25425084789981156
16.009497869018190385759 8444.88957724002466421 16.009497869018190385759 979.56748621443807679
17.009497869018204596614 8494.88598791413096478 17.009497869018204596614 948.69510513492593873
18.009497869018190385759 8540.22090555947943358 18.009497869018190385759 921.69720939521653236
19.009497869018204596614 8581.62642997195689532 19.009497869018204596614 899.78068406621139275
20.009497869018190385759 8619.67969107259523298 20.009497869018190385759 879.86592950516455858
21.009497869018190385759 8654.84456549611240916 21.009497869018190385759 862.69260618873920521
22.009497869018204596614 8687.50057874446065398 22.009497869018204596614 847.78290369813714733
23.009497869018190385759 8717.95503409493539948 23.009497869018190385759 835.16095198405457722
24.009497869018204596614 8746.46573702790738025 24.009497869018204596614 823.66958216579075724
25.009497869018204596614 8773.24763862417057680 25.009497869018204596614 813.51772119561837826
26.009497869018190385759 8798.48177977499653935 26.009497869018190385759 804.93561387511613248
27.009497869018204596614 8822.32353731956936826 27.009497869018204596614 796.82720966347039848
28.009497869018190385759 8844.90483005404348660 28.009497869018190385759 789.56099661006146562
29.009497869018190385759 8866.34080137608725636 29.009497869018190385759 783.20553551228078959
30.009497869018190385759 8886.73102629773893568 30.009497869018190385759 777.25365914619237628
31.009497869018218807469 8906.16242590917136113 31.009497869018218807469 771.84175702053732948
32.009497869018190385759 8924.71265429111736012 32.009497869018190385759 766.90612565915171217
33.009497869018190385759 8942.44847616092556564 33.009497869018190385759 762.56812366627650590
34.009497869018218807469 8959.43155546890011465 34.009497869018218807469 758.37967322973941009
35.009497869018190385759 8975.71498643158884079 35.009497869018190385759 754.61699111350412750
36.009497869018190385759 8991.34721124068346398 36.009497869018190385759 751.02710267090583329
37.009497869018190385759 9006.37249328165853512 37.009497869018190385759 747.69159527555473232
38.009497869018218807469 9020.82941105155987316 38.009497869018218807469 744.58612201532253039
39.009497869018190385759 9034.75399872243178834 39.009497869018190385759 741.73889702441533700
40.009497869018190385759 9048.17903726328040648 40.009497869018190385759 739.17611916606995237
41.009497869018218807469 9061.13367256759192969 41.009497869018218807469 736.54188303902321877
42.009497869018190385759 9073.64522761074294976 42.009497869018190385759 734.16883787171536824
43.009497869018190385759 9085.73890228704658512 43.009497869018190385759 731.83402337543043359
44.009497869018218807469 9097.43716997717456252 44.009497869018218807469 729.71187674357167907
46.009497869018190385759 9119.73083140789640311 46.009497869018190385759 725.77416358708069311
48.009497869018218807469 9140.67698611558625998 48.009497869018218807469 722.14504471157681564
50.009497869018190385759 9160.40524331379128853 50.009497869018190385759 718.89083677476742196
52.009497869018190385759 9179.02774769694588031 52.009497869018190385759 715.90113722274884367
54.009497869018218807469 9196.64264690343770781 54.009497869018218807469 713.10504251659608599
56.009497869018190385759 9213.33571794671115640 56.009497869018190385759 710.52019458660754481
58.009497869018218807469 9229.18295917127034045 58.009497869018218807469 708.20732614731457488
60.009497869018190385759 9244.25156327295735537 60.009497869018190385759 705.95776648282810584
62.009497869018190385759 9258.60141309871323756 62.009497869018190385759 703.85621143504033626
64.009497869018218807469 9272.28617145062889904 64.009497869018218807469 701.88529728560899912
66.009497869018190385759 9285.35377348585461732 66.009497869018190385759 700.05105724578424997
68.009497869018190385759 9297.84772190316471097 68.009497869018190385759 698.33580350803879355
70.009497869018190385759 9309.80704213454373530 70.009497869018190385759 696.67866683480235679
72.009497869018190385759 9321.26727760773428599 72.009497869018190385759 695.12505005531886582
74.009497869018218807469 9332.26078878653424908 74.009497869018218807469 693.64194379813272917
76.009497869018190385759 9342.81690654374506266 76.009497869018190385759 692.23119132082399574
78.009497869018190385759 9352.96259122363881033 78.009497869018190385759 690.89349210192051487
80.009497869018218807469 9362.72250871009055118 80.009497869018218807469 689.61195406343290415
82.009497869018190385759 9372.11922007517569000 82.009497869018190385759 688.38498891822632686
84.009497869018218807469 9381.17360179878232884 84.009497869018218807469 687.20037291400456070
86.009497869018190385759 9389.90488739868851553 86.009497869018190385759 686.07967933618226652
88.009497869018190385759 9398.33075845931489312 88.009497869018190385759 684.99196566616728887
91.009497869018218807469 9410.43253947361699829 91.009497869018218807469 683.44703959013065742
94.009497869018218807469 9421.93434960960075841 94.009497869018218807469 681.98649775028763997
97.009497869018218807469 9432.88131455721668317 97.009497869018218807469 680.61492916731526748
99.504748934509137825444 9441.59322078647164744 99.504748934509137825444 679.33279763112966521
nan nan nan nan

