Time Pressure difference Time.1 Pressure.1 difference.1
(hr) (psi) (hr) (psi)
0.000200000000020850166 0.53978570363428902 0.000200000000020850166 0.43023722416693722
0.000399999999999067768 1.07937943430668515 0.000399999999999067768 1.12670566711824094
0.000600000000019917934 1.61881128818574682 0.000600000000019917934 1.64873613336931890
0.000799999999998135536 2.15809411463048617 0.000799999999998135536 2.18034896264027855
0.001007140329434719206 2.71648296857278426 0.001007140329434719206 2.73859203057600853
0.001267914553977789183 3.41924920130409804 0.001267914553977789183 3.44657833027587257
0.001596209851982166583 4.30367011044507652 0.001596209851982166583 4.33730640285664926
0.002009509145224797066 5.41661960635420137 0.002009509145224797066 5.45779150104534772
0.002529822128153114136 6.81702369113090700 0.002529822128153114136 6.86706287063933196
0.003184857364431081805 8.57893610105336890 0.003184857364431081805 8.63918954832249852
0.004009497869034817086 10.79538632915086360 0.004009497869034817086 10.86704419962014612
0.005047658755856332391 13.58318717556135802 0.005047658755856332391 13.66697177563550269
0.006354625877790454069 17.08893055175770215 0.006354625877790454069 17.18455997187719575
0.008000000000009777068 21.49644893274819069 0.008000000000009777068 21.60173962022474115
0.010071403294361402914 27.03607550908395396 0.010071403294361402914 27.14547191323124409
0.012679145539692626699 33.99609759670361342 0.012679145539692626699 34.09829979569472869
0.015962098519750611558 42.73686228620427840 0.015962098519750611558 42.81104281898360853
0.020095091452091651263 53.70805473500353600 0.020095091452091651263 53.71788177182202872
0.025298221281360611101 67.46971722371200997 0.025298221281360611101 67.35398547714430606
0.031848573644296607199 84.71759295863267880 0.031848573644296607199 84.37563745574583152
0.040094978690191851456 106.31333319027477557 0.040094978690191851456 105.58246548987827396
0.050476587558435426217 133.31995359944801294 0.050476587558435426217 131.94077726095227376
0.063546258777947173257 167.04259674415339987 0.063546258777947173257 164.60604232498346278
0.080000000000012505552 209.07405065697525970 0.080000000000012505552 204.94108001939693509
0.100714032943542974863 261.34344805686350810 0.100714032943542974863 254.52432562632068880
0.126791455396883634421 326.16493770635520377 0.126791455396883634421 315.13944827493565981
0.159620985197506115583 406.28064418086540854 0.159620985197506115583 388.73340749776457415
0.200950914520774404082 504.88864876520239022 0.200950914520774404082 477.32470531102597988
0.252982212813464002465 625.64178096204000212 0.252982212813464002465 582.83735442692045581
0.318485736442809752589 772.59657060544543583 0.318485736442809752589 706.82980746401892702
0.400949786901833249431 950.08396128395952474 0.400949786901833249431 850.08397237406131808
0.504765875584169521062 1162.46526843977289900 0.504765875584169521062 1012.02244695321769541
0.635462587779443310865 1413.73095857686598720 0.635462587779443310865 1189.94255493176683558
0.800000000000011368684 1706.90194533160001811 0.800000000000011368684 1378.11221212314171680
1.007140329435344483500 2043.21443229335909564 1.007140329435344483500 1566.89031427732084012
1.267914553968907398485 2421.12709709867067431 1.267914553968907398485 1742.22741149671219318
1.596209851975117999245 2835.30042381389921502 1.596209851975117999245 1886.12735793458864464
2.009509145207687197399 3275.85739999202087347 2.009509145207687197399 1978.74342413079602920
2.529822128134725289783 3728.38117746742591407 2.529822128134725289783 2002.45972086802566992
3.184857364427983839050 4175.10232052094215760 3.184857364427983839050 1947.36073798480219921
4.009497869018204596614 4597.42311917598271975 4.009497869018204596614 1816.47726258475563554
5.009497869018190385759 4967.49643857780301914 5.009497869018190385759 1634.06277723082416742
6.009497869018190385759 5235.09379935722608934 6.009497869018190385759 1460.11600519407261345
7.009497869018204596614 5435.12339155961126380 7.009497869018204596614 1307.61571531508730004
8.009497869018190385759 5589.21897385918873624 8.009497869018190385759 1179.51016615005278254
9.009497869018204596614 5711.18740352958684525 9.009497869018204596614 1075.21072623823715730
10.009497869018190385759 5810.08149227946887549 10.009497869018190385759 991.23384671618521224
11.009497869018190385759 5891.99785066006279521 11.009497869018190385759 920.27608478686784110
12.009497869018204596614 5961.13618591544036462 12.009497869018204596614 862.08696979310047936
13.009497869018190385759 6020.45623400495423994 13.009497869018190385759 814.22062198395633459
14.009497869018204596614 6072.08693892731389496 14.009497869018204596614 774.66519323359182181
15.009497869018190385759 6117.58907601375904051 15.009497869018190385759 741.79551550594044329
16.009497869018190385759 6158.12734340311817505 16.009497869018190385759 714.31381859906775844
17.009497869018204596614 6194.58540017558607360 17.009497869018204596614 691.80126205906401538
18.009497869018190385759 6227.64423337988955609 18.009497869018190385759 672.11403246909617337
19.009497869018204596614 6257.83770005820224469 19.009497869018204596614 656.13220669547331454
20.009497869018190385759 6285.58665113046572515 20.009497869018190385759 641.61009915601323428
21.009497869018190385759 6311.22935169323318405 21.009497869018190385759 629.08708024324914732
22.009497869018204596614 6335.04255685972566425 22.009497869018204596614 618.21472415740572615
23.009497869018190385759 6357.25035632316030387 23.009497869018190385759 609.01062678387802407
24.009497869018204596614 6378.04074531585683872 24.009497869018204596614 600.63096497258231921
25.009497869018204596614 6397.57046906414234400 25.009497869018204596614 593.22809107410819252
26.009497869018190385759 6415.97154502693592804 26.009497869018190385759 586.96990270219134800
27.009497869018204596614 6433.35727609033710905 27.009497869018204596614 581.05714502426110357
28.009497869018190385759 6449.82385921918466920 28.009497869018190385759 575.75852449430328761
29.009497869018190385759 6465.45525853155049845 29.009497869018190385759 571.12403657019126513
30.009497869018190385759 6480.32408546880014910 30.009497869018190385759 566.78384807402107981
31.009497869018218807469 6494.49372406185648288 31.009497869018218807469 562.83741607452668632
32.009497869018190385759 6508.02080071341060830 32.009497869018190385759 559.23828713796569900
33.009497869018190385759 6520.95400115555003140 33.009497869018190385759 556.07495759484652353
34.009497869018218807469 6533.33829157226500683 34.009497869018218807469 553.02068306303476675
35.009497869018190385759 6545.21238898213596258 35.009497869018190385759 550.27688453108328304
36.009497869018190385759 6556.61161808449833188 36.009497869018190385759 547.65908947575053389
37.009497869018190385759 6567.56825633685002686 37.009497869018190385759 545.22679250992700872
38.009497869018218807469 6578.11043569939647568 38.009497869018218807469 542.96223953701610299
39.009497869018190385759 6588.26443277624548500 39.009497869018190385759 540.88600468409606492
40.009497869018190385759 6598.05415189198811277 40.009497869018190385759 539.01719251548252032
41.009497869018218807469 6607.50084662513108924 41.009497869018218807469 537.09627201384955697
42.009497869018190385759 6616.62444125771980907 42.009497869018190385759 535.36581548173398915
43.009497869018190385759 6625.44331189246440772 43.009497869018190385759 533.66323727039809910
44.009497869018218807469 6633.97384642155702750 44.009497869018218807469 532.11573933323370511
46.009497869018190385759 6650.23068492553375108 46.009497869018190385759 529.24430580675891633
48.009497869018218807469 6665.50490335844460787 48.009497869018218807469 526.59790339080143440
50.009497869018190385759 6679.89101450635007495 50.009497869018190385759 524.22489108631918953
52.009497869018190385759 6693.47079579249202652 52.009497869018190385759 522.04476186243141456
54.009497869018218807469 6706.31581779812495370 54.009497869018218807469 520.00581190255161346
56.009497869018190385759 6718.48863027799598058 56.009497869018190385759 518.12090594012170186
58.009497869018218807469 6730.04465224961222702 58.009497869018218807469 516.43433108944634569
60.009497869018190385759 6741.03288153275298100 60.009497869018190385759 514.79392185096128287
62.009497869018190385759 6751.49698550681478082 62.009497869018190385759 513.26143957454064548
64.009497869018218807469 6761.47609581062806683 64.009497869018218807469 511.82422240265196933
66.009497869018190385759 6771.00516740710099839 66.009497869018190385759 510.48666983428540789
68.009497869018190385759 6780.11592305073372700 68.009497869018190385759 509.23588368170476315
70.009497869018190385759 6788.83682061271701969 70.009497869018190385759 508.02747727616491602
72.009497869018190385759 6797.19377883979723265 72.009497869018190385759 506.89455897292356212
74.009497869018218807469 6805.21039541849495436 74.009497869018218807469 505.81305789324505895
76.009497869018190385759 6812.90805881673077238 76.009497869018190385759 504.78431816540972932
78.009497869018190385759 6820.30642888105830934 78.009497869018190385759 503.80884985859148628
80.009497869018218807469 6827.42349230657055159 80.009497869018218807469 502.87433504176175347
82.009497869018190385759 6834.27570093122358230 82.009497869018190385759 501.97961551452686990
84.009497869018218807469 6840.87827816562912631 84.009497869018218807469 501.11577755189767913
86.009497869018190385759 6847.24524935028057371 86.009497869018190385759 500.29855268447448680
88.009497869018190385759 6853.38950813493829628 88.009497869018190385759 499.50537721049732909
91.009497869018218807469 6862.21429002064814995 91.009497869018218807469 498.37879628538740917
94.009497869018218807469 6870.60156505239501712 94.009497869018218807469 497.31374948307490058
97.009497869018218807469 6878.58423949172265566 97.009497869018218807469 496.31358317931193369
99.504748934509137825444 6884.93707897799959028 99.504748934509137825444 495.37863557595863995
nan nan nan nan

