Time Pressure difference Time.1 Pressure.1 difference.1
(hr) (psi) (hr) (psi)
0.000200000000020850166 0.75353751539701985 0.000200000000020850166 0.60060851324382913
0.000399999999999067768 1.50680703772242941 0.000399999999999067768 1.57287416704025618
0.000600000000019917934 2.25985058104204350 0.000600000000019917934 2.30162548048166871
0.000799999999998135536 3.01268608298184981 0.000799999999998135536 3.04375371363958802
0.001007140329434719206 3.79219348155152902 0.001007140329434719206 3.82305759584262494
0.001267914553977789183 4.77325081106550542 0.001267914553977789183 4.81140210667171164
0.001596209851982166583 6.00789694924998230 0.001596209851982166583 6.05485300614502986
0.002009509145224797066 7.56156758606611223 0.002009509145224797066 7.61904329729905250
0.002529822128153114136 9.51652305726440773 0.002529822128153114136 9.58637744345028509
0.003184857364431081805 11.97614192227172758 0.003184857364431081805 12.06025536329766368
0.004009497869034817086 15.07029277998564254 0.004009497869034817086 15.17032672550978667
0.005047658755856332391 18.96204557944312796 0.005047658755856332391 19.07900836475464956
0.006354625877790454069 23.85604172556622160 0.006354625877790454069 23.98953980665753605
0.008000000000009777068 30.00891022044663003 0.008000000000009777068 30.15589537122282948
0.010071403294361402914 37.74219477847466919 0.010071403294361402914 37.89491148441834412
0.012679145539692626699 47.45834271589131959 0.012679145539692626699 47.60101635577724011
0.015962098519750611558 59.66039635023279430 0.015962098519750611558 59.76395191679375785
0.020095091452091651263 74.97611338969677774 0.020095091452091651263 74.98983187252812854
0.025298221281360611101 94.18730940629133386 0.025298221281360611101 94.02574860137555390
0.031848573644296607199 118.26523762792173500 0.031848573644296607199 117.78786985347569782
0.040094978690191851456 148.41275788965938887 0.040094978690191851456 147.39247108448336121
0.050476587558435426217 186.11383353020013942 0.050476587558435426217 184.18851186197647962
0.063546258777947173257 233.19043551649150459 0.063546258777947173257 229.78902056461484449
0.080000000000012505552 291.86608612514567085 0.080000000000012505552 286.09648458794089265
0.100714032943542974863 364.83384274193889496 0.100714032943542974863 355.31438985739066538
0.126791455396883634421 455.32424277651432476 0.126791455396883634421 439.93272748396248062
0.159620985197506115583 567.16527523553793344 0.159620985197506115583 542.66944097530779345
0.200950914520774404082 704.82144188177721844 0.200950914520774404082 666.34234670537682632
0.252982212813464002465 873.39207018737795352 0.252982212813464002465 813.63735456208007690
0.318485736442809752589 1078.54005079897297037 0.318485736442809752589 986.73005479568746523
0.400949786901833249431 1326.31135427313915898 0.400949786901833249431 1186.71198608767258520
0.504765875584169521062 1622.79435008695554643 0.504765875584169521062 1412.77709852020825565
0.635462587779443310865 1973.55970488542493513 0.635462587779443310865 1661.15247267824474875
0.800000000000011368684 2382.82459548602400901 0.800000000000011368684 1923.83615436604986826
1.007140329435344483500 2852.31475448040600895 1.007140329435344483500 2187.36922147188397503
1.267914553968907398485 3379.87850534883818909 1.267914553968907398485 2432.13872853007887898
1.596209851975117999245 3958.06191675715353995 1.596209851975117999245 2633.02216685475696067
2.009509145207687197399 4573.07674020457761799 2.009509145207687197399 2762.31362444144997426
2.529822128134725289783 5204.79714450768551615 2.529822128134725289783 2795.42142851530252301
3.184857364427983839050 5828.41710692137712613 3.184857364427983839050 2718.50358800343701660
4.009497869018204596614 6417.97433894212645100 4.009497869018204596614 2535.79106302278660223
5.009497869018190385759 6934.59441194374448969 5.009497869018190385759 2281.14156574903972796
6.009497869018190385759 7308.15867830145816697 6.009497869018190385759 2038.31294407677933123
7.009497869018204596614 7587.39875616796325630 7.009497869018204596614 1825.42347931505264569
8.009497869018190385759 7802.51523931652536703 8.009497869018190385759 1646.58892223720772563
9.009497869018204596614 7972.78241540493854700 9.009497869018204596614 1500.98754695199227172
10.009497869018190385759 8110.83795378304876067 10.009497869018190385759 1383.75634071627723642
11.009497869018190385759 8225.19268520495643315 11.009497869018190385759 1284.69974239892485457
12.009497869018204596614 8321.70937509921168385 12.009497869018204596614 1203.46809650623890775
13.009497869018190385759 8404.51979662324811216 13.009497869018190385759 1136.64696998068484390
14.009497869018204596614 8476.59594247788299981 14.009497869018204596614 1081.42783523826528835
15.009497869018190385759 8540.11664540595484141 15.009497869018190385759 1035.54196771707574953
16.009497869018190385759 8596.70781683085442637 16.009497869018190385759 997.17768821379888777
17.009497869018204596614 8647.60303938225115417 17.009497869018204596614 965.75029803622805957
18.009497869018190385759 8693.75296678302038345 18.009497869018190385759 938.26704686749019402
19.009497869018204596614 8735.90286017370090121 19.009497869018204596614 915.95651658875010526
20.009497869018190385759 8774.64022484468659968 20.009497869018190385759 895.68374396817876004
21.009497869018190385759 8810.43727678593131714 21.009497869018190385759 878.20168674943556653
22.009497869018204596614 8843.68036442975608225 22.009497869018204596614 863.02394466349687718
23.009497869018190385759 8874.68231560675303626 23.009497869018190385759 850.17508145792510277
24.009497869018204596614 8903.70557050256684306 24.009497869018204596614 838.47712521596236002
25.009497869018204596614 8930.96894448707826086 25.009497869018204596614 828.14275888003396631
26.009497869018190385759 8956.65673311926730094 26.009497869018190385759 819.40636648410691123
27.009497869018204596614 8980.92710652980895247 27.009497869018204596614 811.15219320798235003
28.009497869018190385759 9003.91435508872200444 28.009497869018190385759 803.75535160529852874
29.009497869018190385759 9025.73569218734155584 29.009497869018190385759 797.28563502710835564
30.009497869018190385759 9046.49248295028337452 30.009497869018190385759 791.22675863646088601
31.009497869018218807469 9066.27321109405602328 31.009497869018218807469 785.71756388832227458
32.009497869018190385759 9085.15692672781187866 32.009497869018190385759 780.69320207549594670
33.009497869018190385759 9103.21159483347946662 33.009497869018190385759 776.27721352993989967
34.009497869018218807469 9120.49998792676706216 34.009497869018218807469 772.01346510802682133
35.009497869018190385759 9137.07615472698853409 35.009497869018190385759 768.18313926835355687
36.009497869018190385759 9152.98940829669663799 36.009497869018190385759 764.52871350543898643
37.009497869018190385759 9168.28480776762080495 37.009497869018190385759 761.13324193219386871
38.009497869018218807469 9183.00162518282377278 38.009497869018218807469 757.97193993919358945
39.009497869018190385759 9197.17654251968815515 39.009497869018190385759 755.07352888103400801
40.009497869018190385759 9210.84293006801453885 40.009497869018190385759 752.46467861175221969
41.009497869018218807469 9224.03045769240270602 41.009497869018218807469 749.78308543073603687
42.009497869018190385759 9236.76693956778763095 42.009497869018190385759 747.36737877727432533
43.009497869018190385759 9249.07802862029711832 43.009497869018190385759 744.99059008779772739
44.009497869018218807469 9260.98660224642662797 44.009497869018218807469 742.83029250525385123
46.009497869018190385759 9283.68104860174753412 46.009497869018190385759 738.82178899988218745
48.009497869018218807469 9305.00376339406830084 48.009497869018218807469 735.12742753785232708
50.009497869018190385759 9325.08668589021908701 50.009497869018190385759 731.81471698644861590
52.009497869018190385759 9344.04397686902484566 52.009497869018190385759 728.77127002675320000
54.009497869018218807469 9361.97554842080353410 54.009497869018218807469 725.92490844947883488
56.009497869018190385759 9378.96871961766555614 56.009497869018190385759 723.29359134322078262
58.009497869018218807469 9395.10085506648465525 58.009497869018218807469 720.93914324659215254
60.009497869018190385759 9410.44035542168603570 60.009497869018190385759 718.64914206004755215
62.009497869018190385759 9425.04818007576977834 62.009497869018190385759 716.50980624735564106
64.009497869018218807469 9438.97895655536194681 64.009497869018218807469 714.50345993344024009
66.009497869018190385759 9452.28148177324146673 66.009497869018190385759 712.63624479177588000
68.009497869018190385759 9465.00004049917697557 68.009497869018190385759 710.89015503177893152
70.009497869018190385759 9477.17435974594991421 70.009497869018190385759 709.20322713745053989
72.009497869018190385759 9488.84062192427700211 72.009497869018190385759 707.62168016867292408
74.009497869018218807469 9500.03176925909974671 74.009497869018218807469 706.11191132708790974
76.009497869018190385759 9510.77765991981323168 76.009497869018190385759 704.67579700749047333
78.009497869018190385759 9521.10573893103173759 78.009497869018190385759 703.31404926330321814
80.009497869018218807469 9531.04111560825003835 80.009497869018218807469 702.00947233873057485
82.009497869018190385759 9540.60675661585264606 82.009497869018190385759 700.76044939316068394
84.009497869018218807469 9549.82391374123290007 84.009497869018218807469 699.55453692144726574
86.009497869018190385759 9558.71216627327339665 86.009497869018190385759 698.41369604334965970
88.009497869018190385759 9567.28951366757246433 88.009497869018190385759 697.30642797027815050
91.009497869018218807469 9579.60885478999625775 91.009497869018218807469 695.73372794231272565
94.009497869018218807469 9591.31743904078575724 94.009497869018218807469 694.24692917051743279
97.009497869018218807469 9602.46120335824525682 97.009497869018218807469 692.85070317481745406
99.504748934509137825444 9611.32972812645130034 99.504748934509137825444 691.54552208292534488
nan nan nan nan

