Time Pressure difference Time.1 Pressure.1 difference.1
(hr) (psi) (hr) (psi)
0.000200000000020850166 0.15469975481660672 0.000200000000020850166 0.12330373450701128
0.000399999999999067768 0.30934449118804846 0.000399999999999067768 0.32290794157780095
0.000600000000019917934 0.46394283451856533 0.000600000000019917934 0.47251913837703136
0.000799999999998135536 0.61849846736713476 0.000799999999998135536 0.62487659021739883
0.001007140329434719206 0.77852978760329405 0.001007140329434719206 0.78486612894782370
0.001267914553977789183 0.97993890823199137 0.001267914553977789183 0.98777129342266912
0.001596209851982166583 1.23340930746191701 0.001596209851982166583 1.24304929265229092
0.002009509145224797066 1.55237480243741377 0.002009509145224797066 1.56417445176338177
0.002529822128153114136 1.95372327665693146 0.002529822128153114136 1.96806424335734342
0.003184857364431081805 2.45867814298293741 0.003184857364431081805 2.47594646531276563
0.004009497869034817086 3.09390116675201909 0.004009497869034817086 3.11443793702518823
0.005047658755856332391 3.89287028452143691 0.005047658755856332391 3.91688251196949722
0.006354625877790454069 4.89759797014935661 0.006354625877790454069 4.92500486096942769
0.008000000000009777068 6.16076964790626125 0.008000000000009777068 6.19094540733713661
0.010071403294361402914 7.74839760352791362 0.010071403294361402914 7.77975003984747548
0.012679145539692626699 9.74310347147437739 0.012679145539692626699 9.77239408628539330
0.015962098519750611558 12.24816084011401607 0.015962098519750611558 12.26942059218944614
0.020095091452091651263 15.39244711973907265 0.020095091452091651263 15.39526349700908447
0.025298221281360611101 19.33646749400683262 0.025298221281360611101 19.30329938173935389
0.031848573644296607199 24.27961832096406170 0.031848573644296607199 24.18161566528308981
0.040094978690191851456 30.46884433496318323 0.040094978690191851456 30.25938148092042823
0.050476587558435426217 38.20880026116691397 0.050476587558435426217 37.81353554782299398
0.063546258777947173257 47.87353311927971333 0.063546258777947173257 47.17522938743748995
0.080000000000012505552 59.91952761509614334 0.080000000000012505552 58.73503988229249728
0.100714032943542974863 74.89966307947089774 0.100714032943542974863 72.94533831509345134
0.126791455396883634421 93.47716242431751255 0.126791455396883634421 90.31731491392608291
0.159620985197506115583 116.43790418742830184 0.159620985197506115583 111.40895808102344233
0.200950914520774404082 144.69844171082843332 0.200950914520774404082 136.79875991964689774
0.252982212813464002465 179.30565679343521879 0.252982212813464002465 167.03813239353959830
0.318485736442809752589 221.42212963422625194 0.318485736442809752589 202.57371985871728270
0.400949786901833249431 272.28908597660472424 0.400949786901833249431 243.62961303786659073
0.504765875584169521062 333.15645597811669631 0.504765875584169521062 290.04033148428118238
0.635462587779443310865 405.16788643343153353 0.635462587779443310865 341.03130233791773662
0.800000000000011368684 489.18915536468040273 0.800000000000011368684 394.95974030031487700
1.007140329435344483500 585.57455224432169416 1.007140329435344483500 449.06255540151261130
1.267914553968907398485 693.88234215770842184 1.267914553968907398485 499.31324890352618695
1.596209851975117999245 812.58224781107128365 1.596209851975117999245 540.55421968541372735
2.009509145207687197399 938.84356918107232559 2.009509145207687197399 567.09749905751630195
2.529822128134725289783 1068.53451311084950248 2.529822128134725289783 573.89446545678390521
3.184857364427983839050 1196.56245241432225157 3.184857364427983839050 558.10338561659966672
4.009497869018204596614 1317.59738084242326295 4.009497869018204596614 520.59286724308856265
5.009497869018190385759 1423.65845543215937141 5.009497869018190385759 468.31383137894192714
6.009497869018190385759 1500.35045713473641626 6.009497869018190385759 418.46159779059706807
7.009497869018204596614 1557.67789033911822116 7.009497869018204596614 374.75581363421605374
8.009497869018190385759 1601.84087694577647198 8.009497869018190385759 338.04143436657903976
9.009497869018204596614 1636.79638991757042277 9.009497869018204596614 308.14976129477986433
10.009497869018190385759 1665.13891766406959505 10.009497869018190385759 284.08242756426886899
11.009497869018190385759 1688.61571683015677081 11.009497869018190385759 263.74630473090508076
12.009497869018204596614 1708.43040151043442165 12.009497869018204596614 247.06960921651264584
13.009497869018190385759 1725.43121652530271604 13.009497869018190385759 233.35136469802139914
14.009497869018204596614 1740.22830607161859007 14.009497869018204596614 222.01498604229288958
15.009497869018190385759 1753.26898018267979751 15.009497869018190385759 212.59470860416783466
16.009497869018190385759 1764.88703524342076889 16.009497869018190385759 204.71859824256796401
17.009497869018204596614 1775.33572331688583290 17.009497869018204596614 198.26661747763620269
18.009497869018190385759 1784.81021172366627070 18.009497869018190385759 192.62436061518008046
19.009497869018204596614 1793.46350109526292727 19.009497869018204596614 188.04405307451159501
20.009497869018190385759 1801.41620510056486637 20.009497869018190385759 183.88209313254000676
21.009497869018190385759 1808.76526874413139012 21.009497869018190385759 180.29306151809603875
22.009497869018204596614 1815.59000859153911733 22.009497869018204596614 177.17710122230732850
23.009497869018190385759 1821.95464757489639851 23.009497869018190385759 174.53925513374622369
24.009497869018204596614 1827.91306414291125293 24.009497869018204596614 172.13768795824393010
25.009497869018204596614 1833.51018065628727527 25.009497869018204596614 170.01606308133148104
26.009497869018190385759 1838.78383262713418844 26.009497869018190385759 168.22249907951865566
27.009497869018204596614 1843.76649206903334743 27.009497869018204596614 166.52793370495001568
28.009497869018190385759 1848.48572852814845646 28.009497869018190385759 165.00937681963085879
29.009497869018190385759 1852.96560568084510123 29.009497869018190385759 163.68115685986992958
30.009497869018190385759 1857.22693358581955181 30.009497869018190385759 162.43728157437277559
31.009497869018218807469 1861.28787777427623951 31.009497869018218807469 161.30625483799994413
32.009497869018190385759 1865.16466707657059487 32.009497869018190385759 160.27476334000249381
33.009497869018190385759 1868.87125456846274574 33.009497869018190385759 159.36816966508698101
34.009497869018218807469 1872.42052732271372406 34.009497869018218807469 158.49283058509161037
35.009497869018190385759 1875.82358143401734196 35.009497869018190385759 157.70647230012556861
36.009497869018190385759 1879.09054077614314338 36.009497869018190385759 156.95622595144774891
37.009497869018190385759 1882.23065589931297836 37.009497869018190385759 156.25914238343054308
38.009497869018218807469 1885.25198927594396991 38.009497869018218807469 155.61013336499999582
39.009497869018190385759 1888.16207164311504130 39.009497869018190385759 155.01509533319239154
40.009497869018190385759 1890.96775385502292011 40.009497869018190385759 154.47950355605510708
41.009497869018218807469 1893.67512707592368315 41.009497869018218807469 153.92897780366104143
42.009497869018190385759 1896.28990150067193099 42.009497869018190385759 153.43303802712256356
43.009497869018190385759 1898.81734362403449268 43.009497869018190385759 152.94508803126973362
44.009497869018218807469 1901.26215013006117260 44.009497869018218807469 152.50158322955542189
46.009497869018190385759 1905.92127487850439138 46.009497869018190385759 151.67864542381687443
48.009497869018218807469 1910.29878586235849980 48.009497869018218807469 150.92020035545311885
50.009497869018190385759 1914.42176995097224790 50.009497869018190385759 150.24010746079409273
52.009497869018190385759 1918.31366412542911348 52.009497869018190385759 149.61529384655202080
54.009497869018218807469 1921.99498013937022733 54.009497869018218807469 149.03094146976053480
56.009497869018190385759 1925.48364442481874903 56.009497869018190385759 148.49073729562809376
58.009497869018218807469 1928.79553978186095264 58.009497869018218807469 148.00737377910169812
60.009497869018190385759 1931.94470872895522007 60.009497869018190385759 147.53724108517533864
62.009497869018190385759 1934.94366610827046316 62.009497869018190385759 147.09803969316573102
64.009497869018218807469 1937.80362684249121230 64.009497869018218807469 146.68614078103740894
66.009497869018190385759 1940.53460884086416627 66.009497869018190385759 146.30280522215267069
68.009497869018190385759 1943.14570367863848332 68.009497869018190385759 145.94433646347778222
70.009497869018190385759 1945.64506723261229126 70.009497869018190385759 145.59801351828454585
72.009497869018190385759 1948.04012767981862453 72.009497869018190385759 145.27332506774081367
74.009497869018218807469 1950.33764799359005337 74.009497869018218807469 144.96337252410413043
76.009497869018190385759 1952.54375799678268777 76.009497869018190385759 144.66854110749801521
78.009497869018190385759 1954.66409209842345263 78.009497869018190385759 144.38897700107551714
80.009497869018218807469 1956.70380519109744455 80.009497869018218807469 144.12114995033542186
82.009497869018190385759 1958.66761228537347961 82.009497869018190385759 143.86472802111245528
84.009497869018218807469 1960.55987633098152401 84.009497869018218807469 143.61715658652229877
86.009497869018190385759 1962.38461691702946155 86.009497869018190385759 143.38294422082012147
88.009497869018190385759 1964.14552929599176423 88.009497869018190385759 143.15562428528889427
91.009497869018218807469 1966.67466555291321129 91.009497869018218807469 142.83275209411718265
94.009497869018218807469 1969.07841463751219635 94.009497869018218807469 142.52751526017246420
97.009497869018218807469 1971.36620731195739609 97.009497869018218807469 142.24087283721416952
99.504748934509137825444 1973.18689782728483806 99.504748934509137825444 141.97292175212376719
nan nan nan nan

