Time Pressure difference Time.1 Pressure.1 difference.1
(hr) (psi) (hr) (psi)
0.000200000000020850166 0.21042493531506185 0.000200000000020850166 0.16771959586168739
0.000399999999999067768 0.42077503371277558 0.000399999999999067768 0.43922424311389058
0.000600000000019917934 0.63106202759783347 0.000600000000019917934 0.64272764521176839
0.000799999999998135536 0.84129092604239297 0.000799999999998135536 0.84996654475807476
0.001007140329434719206 1.05896793690125479 0.001007140329434719206 1.06758672378386765
0.001267914553977789183 1.33292765474566544 0.001267914553977789183 1.34358138298889940
0.001596209851982166583 1.67770190746163972 0.001596209851982166583 1.69081436043564293
0.002009509145224797066 2.11156357535841765 0.002009509145224797066 2.12761363600072917
0.002529822128153114136 2.65748381179679427 0.002529822128153114136 2.67699061058821419
0.003184857364431081805 3.34433102244453329 0.003184857364431081805 3.36781965443080455
0.004009497869034817086 4.20837094187237071 0.004009497869034817086 4.23630536595361651
0.005047658755856332391 5.29514076335442763 0.005047658755856332391 5.32780255660367086
0.006354625877790454069 6.66178648627842573 0.006354625877790454069 6.69906575174873709
0.008000000000009777068 8.37997161785098932 0.008000000000009777068 8.42101714008761171
0.010071403294361402914 10.53948706286323578 0.010071403294361402914 10.58213311871726425
0.012679145539692626699 13.25271601227428775 0.012679145539692626699 13.29255754747421747
0.015962098519750611558 16.66013275563895846 0.015962098519750611558 16.68905059045123451
0.020095091452091651263 20.93703828652680343 0.020095091452091651263 20.94086916528655351
0.025298221281360611101 26.30175417195552967 0.025298221281360611101 26.25663840634438984
0.031848573644296607199 33.02550233980596062 0.031848573644296607199 32.89219765223990066
0.040094978690191851456 41.44418073519185697 0.040094978690191851456 41.15926620791864821
0.050476587558435426217 51.97218530147972615 0.050476587558435426217 51.43454028816783108
0.063546258777947173257 65.11830042568691113 0.063546258777947173257 64.16845717753592737
0.080000000000012505552 81.50344347644796983 0.080000000000012505552 79.89228543129033255
0.100714032943542974863 101.87964924250611887 0.100714032943542974863 99.22134727805720900
0.126791455396883634421 127.14904351264692650 0.126791455396883634421 122.85097136141557428
0.159620985197506115583 158.38059010440517227 0.159620985197506115583 151.54014190590822864
0.200950914520774404082 196.82099867118060388 0.200950914520774404082 186.07573257887452201
0.252982212813464002465 243.89425359537153781 0.252982212813464002465 227.20778223422323094
0.318485736442809752589 301.18171396483461422 0.318485736442809752589 275.54382324868538490
0.400949786901833249431 370.37171372086555721 0.400949786901833249431 331.38866719666793870
0.504765875584169521062 453.16442667991145754 0.504765875584169521062 394.51722508345778806
0.635462587779443310865 551.11545842826978969 0.635462587779443310865 463.87591124458708691
0.800000000000011368684 665.40245326486092381 0.800000000000011368684 537.23018438698738919
1.007140329435344483500 796.50732106351290440 1.007140329435344483500 610.82164793861659291
1.267914553968907398485 943.82920734354968317 1.267914553968907398485 679.17339770210810457
1.596209851975117999245 1105.28660589355399679 1.596209851975117999245 735.26998699144985494
2.009509145207687197399 1277.02915592909289444 2.009509145207687197399 771.37455516963234459
2.529822128134725289783 1453.43673019916627709 2.529822128134725289783 780.61989118584040170
3.184857364427983839050 1627.58226054206215849 3.184857364427983839050 759.14062667204143509
4.009497869018204596614 1792.21579222114564800 4.009497869018204596614 708.11825490592161714
5.009497869018190385759 1936.48166249643168157 5.009497869018190385759 637.00752332727051908
6.009497869018190385759 2040.79927771552843296 6.009497869018190385759 569.19776473667229766
7.009497869018204596614 2118.77691535374697196 7.009497869018204596614 509.74849919062722847
8.009497869018190385759 2178.84807455527652564 8.009497869018190385759 459.80904782120700247
9.009497869018204596614 2226.39508951153356975 9.009497869018204596614 419.14994412677049240
10.009497869018190385759 2264.94702241403047083 10.009497869018190385759 386.41319448258070679
11.009497869018190385759 2296.88051805392296956 11.009497869018190385759 358.75169406945690298
12.009497869018204596614 2323.83275044161200640 12.009497869018204596614 336.06780178375106516
13.009497869018190385759 2346.95751495108424933 13.009497869018190385759 317.40803907849146981
14.009497869018204596614 2367.08473890386812855 14.009497869018204596614 301.98812617580699680
15.009497869018190385759 2384.82286014095643623 15.009497869018190385759 289.17452299384120806
16.009497869018190385759 2400.62591353002926553 16.009497869018190385759 278.46131911489084132
17.009497869018204596614 2414.83837633963548797 17.009497869018204596614 269.68523775183848556
18.009497869018190385759 2427.72571809724513514 18.009497869018190385759 262.01055503032557681
19.009497869018204596614 2439.49605256506220030 19.009497869018204596614 255.78035176264211259
20.009497869018190385759 2450.31344027119848761 20.009497869018190385759 250.11919119641194698
21.009497869018190385759 2460.30974727024340609 21.009497869018190385759 245.23733636601235730
22.009497869018204596614 2469.59286114870656093 22.009497869018204596614 240.99896026475133226
23.009497869018190385759 2478.25013890563877794 23.009497869018190385759 237.41092230557956100
24.009497869018204596614 2486.35486681804604814 24.009497869018204596614 234.14427448083714012
25.009497869018204596614 2493.96814895720808636 25.009497869018204596614 231.25840838482184836
26.009497869018190385759 2501.14144975626322775 26.009497869018190385759 228.81877562966784012
27.009497869018204596614 2507.91893813691103787 27.009497869018204596614 226.51380229759328699
28.009497869018190385759 2514.33811461086861527 28.009497869018190385759 224.44823836218603219
29.009497869018190385759 2520.43171095297748252 29.009497869018190385759 222.64157357821014216
30.009497869018190385759 2526.22803331834620622 30.009497869018190385759 220.94963568987262192
31.009497869018218807469 2531.75179073597792012 31.009497869018218807469 219.41119609684938041
32.009497869018190385759 2537.02505790522809548 32.009497869018190385759 218.00814583344424591
33.009497869018190385759 2542.06681400979095997 33.009497869018190385759 216.77498346917747085
34.009497869018218807469 2546.89458824003577320 34.009497869018218807469 215.58433407542031546
35.009497869018190385759 2551.52347367100173869 35.009497869018190385759 214.51471769855791649
36.009497869018190385759 2555.96724094819455786 36.009497869018190385759 213.49422132105527794
37.009497869018190385759 2560.23847280928021064 37.009497869018190385759 212.54603775810713273
38.009497869018218807469 2564.34813595061223168 38.009497869018218807469 211.66324592120966486
39.009497869018190385759 2568.30647379412948794 39.009497869018190385759 210.85386623278321849
40.009497869018190385759 2572.12280497484289299 40.009497869018190385759 210.12534623484913254
41.009497869018218807469 2575.80541478606801320 41.009497869018218807469 209.37651281895827537
42.009497869018190385759 2579.36207032080619683 42.009497869018190385759 208.70192806915056849
43.009497869018190385759 2582.79993514452007730 43.009497869018190385759 208.03821113930774800
44.009497869018218807469 2586.12539775755658411 44.009497869018218807469 207.43494923159957466
46.009497869018190385759 2592.46280937775054554 46.009497869018190385759 206.31557683992295438
48.009497869018218807469 2598.41716571600363750 48.009497869018218807469 205.28392844048192956
50.009497869018190385759 2604.02531073976297193 50.009497869018190385759 204.35885584720915631
52.009497869018190385759 2609.31912378351353254 52.009497869018190385759 203.50897496332072478
54.009497869018218807469 2614.32650524333666908 54.009497869018218807469 202.71413006370656262
56.009497869018190385759 2619.07183892193052088 56.009497869018190385759 201.97933621394574288
58.009497869018218807469 2623.57672884306930428 58.009497869018218807469 201.32185788232652612
60.009497869018190385759 2627.86027585175088461 60.009497869018190385759 200.68237631478149297
62.009497869018190385759 2631.93950282469040758 62.009497869018190385759 200.08496796973616938
64.009497869018218807469 2635.82966446855016329 64.009497869018218807469 199.52469686883043209
66.009497869018190385759 2639.54438729429375599 66.009497869018190385759 199.00327807099259303
68.009497869018190385759 2643.09603779943836344 68.009497869018190385759 198.51568346913913388
70.009497869018190385759 2646.49570973038134980 70.009497869018190385759 198.04460978562360651
72.009497869018190385759 2649.75350700534499993 72.009497869018190385759 197.60296366741087581
74.009497869018218807469 2652.87862872246387269 74.009497869018218807469 197.18136155160402723
76.009497869018190385759 2655.87941275906496230 76.009497869018190385759 196.78032742041398251
78.009497869018190385759 2658.76352312312474169 78.009497869018190385759 196.40006011436616973
80.009497869018218807469 2661.53797157713779598 80.009497869018218807469 196.03575772814440370
82.009497869018190385759 2664.20917154945982475 82.009497869018190385759 195.68696875990031003
84.009497869018218807469 2666.78305758999113095 84.009497869018218807469 195.35021836768893877
86.009497869018190385759 2669.26509720434660267 86.009497869018190385759 195.03163918208329619
88.009497869018190385759 2671.66031673056932050 88.009497869018190385759 194.72243518375319127
91.009497869018218807469 2675.10048594025283819 91.009497869018218807469 194.28325956887982784
94.009497869018218807469 2678.37010163059449042 94.009497869018218807469 193.86807183238514085
97.009497869018218807469 2681.48199166626500300 97.009497869018218807469 193.47817649363005899
99.504748934509137825444 2683.95852231345725158 99.504748934509137825444 193.11370539401778501
nan nan nan nan

