Time Pressure difference Time.1 Pressure.1 difference.1
(hr) (psi) (hr) (psi)
0.000200000000020850166 0.40005689283219270 0.000200000000020850166 0.31886610912834634
0.000399999999999067768 0.79997150678199624 0.000399999999999067768 0.83504688117700143
0.000600000000019917934 1.19976614733026832 0.000600000000019917934 1.22194465354490345
0.000799999999998135536 1.59945033765371925 0.000799999999998135536 1.61594430050843463
0.001007140329434719206 2.01329477331819584 0.001007140329434719206 2.02968068830055470
0.001267914553977789183 2.53414309064294541 0.001267914553977789183 2.55439780718442977
0.001596209851982166583 3.18962299402786043 0.001596209851982166583 3.21455220304167710
0.002009509145224797066 4.01447462350750595 0.002009509145224797066 4.04498877042035776
0.002529822128153114136 5.05237040898916234 0.002529822128153114136 5.08945645728431284
0.003184857364431081805 6.35819455255264998 0.003184857364431081805 6.40285080545935603
0.004009497869034817086 8.00089495272968421 0.004009497869034817086 8.05400348230707230
0.005047658755856332391 10.06704627341296288 0.005047658755856332391 10.12914240998563464
0.006354625877790454069 12.66529367549376772 0.006354625877790454069 12.73616848454997097
0.008000000000009777068 15.93188279915544214 0.008000000000009777068 16.00991796198474759
0.010071403294361402914 20.03752283492971031 0.010071403294361402914 20.11860090949804203
0.012679145539692626699 25.19587510633965266 0.012679145539692626699 25.27162126614663507
0.015962098519750611558 31.67400733384323885 0.015962098519750611558 31.72898550990927191
0.020095091452091651263 39.80519927201340380 0.020095091452091651263 39.81248248420091329
0.025298221281360611101 50.00452077751229041 0.025298221281360611101 49.91874732589585761
0.031848573644296607199 62.78761512034255077 0.031848573644296607199 62.53417814516755158
0.040094978690191851456 78.79308669417899580 0.040094978690191851456 78.25141124904691026
0.050476587558435426217 98.80877917000691468 0.050476587558435426217 97.78661612098311195
0.063546258777947173257 123.80198618480399375 0.063546258777947173257 121.99615771697543209
0.080000000000012505552 154.95318700463033679 0.080000000000012505552 151.89007625474565089
0.100714032943542974863 193.69213946895433764 0.100714032943542974863 188.63821359978467740
0.126791455396883634421 241.73395229084260905 0.126791455396883634421 233.56251867526043497
0.159620985197506115583 301.11092426963983826 0.159620985197506115583 288.10596148909826297
0.200950914520774404082 374.19328205864769643 0.200950914520774404082 353.76453506102234314
0.252982212813464002465 463.68828450345347392 0.252982212813464002465 431.96420258759434319
0.318485736442809752589 572.60238900033778009 0.318485736442809752589 523.85999597872591949
0.400949786901833249431 704.14543201476806189 0.400949786901833249431 630.03141866243993263
0.504765875584169521062 861.54975981437712562 0.504765875584169521062 750.05053464483466996
0.635462587779443310865 1047.77286760473430149 0.635462587779443310865 881.91428185235724868
0.800000000000011368684 1265.05367596995301938 0.800000000000011368684 1021.37438217447015631
1.007140329435344483500 1514.30838510493958893 1.007140329435344483500 1161.28542552756766781
1.267914553968907398485 1794.39465902074061887 1.267914553968907398485 1291.23479958384996280
1.596209851975117999245 2101.35516772647997641 1.596209851975117999245 1397.88483692840873118
2.009509145207687197399 2427.86966008653598692 2.009509145207687197399 1466.52632820787789569
2.529822128134725289783 2763.25323014149762457 2.529822128134725289783 1484.10342948770471594
3.184857364427983839050 3094.33623446929595957 3.184857364427983839050 1443.26735742787332129
4.009497869018204596614 3407.33516228605185461 4.009497869018204596614 1346.26435023615931641
5.009497869018190385759 3681.61138205843371907 5.009497869018190385759 1211.06963921113469951
6.009497869018190385759 3879.93854775165709725 6.009497869018190385759 1082.15069106062992432
7.009497869018204596614 4028.18852286621495296 7.009497869018204596614 969.12659332289217673
8.009497869018190385759 4142.39495597268069105 8.009497869018190385759 874.18241898023939029
9.009497869018204596614 4232.79066424920074496 9.009497869018204596614 796.88190958488769411
10.009497869018190385759 4306.08505051837346400 10.009497869018190385759 734.64326698071670307
11.009497869018190385759 4366.79655803927653324 11.009497869018190385759 682.05361599766320069
12.009497869018204596614 4418.03775874472557916 12.009497869018204596614 638.92732275883099646
13.009497869018190385759 4462.00223198210005648 13.009497869018190385759 603.45164741800158481
14.009497869018204596614 4500.26782376585197198 14.009497869018204596614 574.13552842119827346
15.009497869018190385759 4533.99128746166024939 15.009497869018190385759 549.77448837959536831
16.009497869018190385759 4564.03582769938384445 16.009497869018190385759 529.40669760578066416
17.009497869018204596614 4591.05635976033408951 17.009497869018204596614 512.72173659539259916
18.009497869018190385759 4615.55759053270685399 18.009497869018190385759 498.13073901022380596
19.009497869018204596614 4637.93518293990018719 19.009497869018204596614 486.28596520881757215
20.009497869018190385759 4658.50104652350364631 20.009497869018190385759 475.52304729436423258
21.009497869018190385759 4677.50588315014647378 21.009497869018190385759 466.24173435593655768
22.009497869018204596614 4695.15480716414185736 22.009497869018204596614 458.18379402112805110
23.009497869018190385759 4711.61390044906056573 23.009497869018190385759 451.36226730823619846
24.009497869018204596614 4727.02249383193702670 24.009497869018204596614 445.15176294578128591
25.009497869018204596614 4741.49675750362439430 25.009497869018204596614 439.66519538774429066
26.009497869018190385759 4755.13453491210475477 26.009497869018190385759 435.02700030778748896
27.009497869018204596614 4768.01979938282329385 27.009497869018204596614 430.64481780688686285
28.009497869018190385759 4780.22384635505022743 28.009497869018190385759 426.71779704431412483
29.009497869018190385759 4791.80890501336762100 29.009497869018190385759 423.28299166450233315
30.009497869018190385759 4802.82879061709263624 30.009497869018190385759 420.06630342620053398
31.009497869018218807469 4813.33047962057480618 31.009497869018218807469 417.14144396278476279
32.009497869018190385759 4823.35594012812089204 32.009497869018190385759 414.47398476635055431
33.009497869018190385759 4832.94125509371224325 33.009497869018190385759 412.12951402638088894
34.009497869018218807469 4842.11975076465205348 34.009497869018218807469 409.86586834101643717
35.009497869018190385759 4850.92012188044282084 35.009497869018190385759 407.83232890516342195
36.009497869018190385759 4859.36854899637000926 36.009497869018190385759 405.89217571315248279
37.009497869018190385759 4867.48895423424437467 37.009497869018190385759 404.08950261521550829
38.009497869018218807469 4875.30218732112371072 38.009497869018218807469 402.41115133637094914
39.009497869018190385759 4882.82772290504544799 39.009497869018190385759 400.87237018959973511
40.009497869018190385759 4890.08327744228972733 40.009497869018190385759 399.48731833581985029
41.009497869018218807469 4897.08460281461975683 41.009497869018218807469 398.06364690086530800
42.009497869018190385759 4903.84646570872700977 42.009497869018190385759 396.78113597336528073
43.009497869018190385759 4910.38248539333653753 43.009497869018190385759 395.51928679054162785
44.009497869018218807469 4916.70480759440579277 44.009497869018218807469 394.37237383557078374
46.009497869018190385759 4928.75340439011051785 46.009497869018190385759 392.24423897234362357
48.009497869018218807469 4940.07374193437863141 48.009497869018218807469 390.28288371490833697
50.009497869018190385759 4950.73586745385819086 50.009497869018190385759 388.52414886366642577
52.009497869018190385759 4960.80038948565288592 52.009497869018190385759 386.90836742038447937
54.009497869018218807469 4970.32035186579105357 54.009497869018218807469 385.39721960728400063
56.009497869018190385759 4979.34211273299843015 56.009497869018190385759 384.00023999568338695
58.009497869018218807469 4987.90674534986646904 58.009497869018218807469 382.75025154703178032
60.009497869018190385759 4996.05056397111547994 60.009497869018190385759 381.53447829015772186
62.009497869018190385759 5003.80593224773201655 62.009497869018190385759 380.39869404522966079
64.009497869018218807469 5011.20185221095835004 64.009497869018218807469 379.33351460042467806
66.009497869018190385759 5018.26423038954635558 66.009497869018190385759 378.34220060137323571
68.009497869018190385759 5025.01657779260858661 68.009497869018190385759 377.41519268243450824
70.009497869018190385759 5031.47998569293758919 70.009497869018190385759 376.51959409835950510
72.009497869018190385759 5037.67366351608961850 72.009497869018190385759 375.67994278270600716
74.009497869018218807469 5043.61510045654267742 74.009497869018218807469 374.87839883921554929
76.009497869018190385759 5049.32014836802500213 76.009497869018190385759 374.11595845541154404
78.009497869018190385759 5054.80337795344985352 78.009497869018190385759 373.39299966407162401
80.009497869018218807469 5060.07811987590321223 80.009497869018218807469 372.70039315113621115
82.009497869018190385759 5065.15656725411190564 82.009497869018190385759 372.03728052771560897
84.009497869018218807469 5070.05000276990358543 84.009497869018218807469 371.39705547374853722
86.009497869018190385759 5074.76882116715660231 86.009497869018190385759 370.79137725921759738
88.009497869018190385759 5079.32257844823652704 88.009497869018190385759 370.20352301733311151
91.009497869018218807469 5085.86297919866319717 91.009497869018218807469 369.36856858747506749
94.009497869018218807469 5092.07912602496435284 94.009497869018218807469 368.57921957066105278
97.009497869018218807469 5097.99540708092172281 97.009497869018218807469 367.83795610053778091
99.504748934509137825444 5102.70375190819322597 99.504748934509137825444 367.14502883210496975
nan nan nan nan

