Time Pressure difference Time.1 Pressure.1 difference.1
(hr) (psi) (hr) (psi)
0.000200000000020850166 0.85001693237941978 0.000200000000020850166 0.67750761648476099
0.000399999999999067768 1.69973155910852425 0.000399999999999067768 1.77425761447587416
0.000600000000019917934 2.54919127353749353 0.000600000000019917934 2.59631483559852727
0.000799999999998135536 3.39841630994199839 0.000799999999998135536 3.43346169463538509
0.001007140329434719206 4.27772818779874520 0.001007140329434719206 4.31254399884234285
0.001267914553977789183 5.38439550652201593 0.001267914553977789183 5.42743151547294556
0.001596209851982166583 6.77711995820472701 0.001596209851982166583 6.83008804887441556
0.002009509145224797066 8.52971531231740343 0.002009509145224797066 8.59454994463535549
0.002529822128153114136 10.73497413302894543 0.002529822128153114136 10.81377234790970476
0.003184857364431081805 13.50951108671270084 0.003184857364431081805 13.60439401908412016
0.004009497869034817086 16.99982253989550429 0.004009497869034817086 17.11266436365452748
0.005047658755856332391 21.38985715473606675 0.005047658755856332391 21.52179530770336768
0.006354625877790454069 26.91045766393893857 0.006354625877790454069 27.06104821457395460
0.008000000000009777068 33.85111064602258324 0.008000000000009777068 34.01691508762663574
0.010071403294361402914 42.57452876777165329 0.010071403294361402914 42.74679860604366155
0.012679145539692626699 53.53468681638072013 0.012679145539692626699 53.69562772141758700
0.015962098519750611558 67.29903429352970079 0.015962098519750611558 67.41584863020223395
0.020095091452091651263 84.57570406652328643 0.020095091452091651263 84.59117899969508869
0.025298221281360611101 106.24661171438161489 0.025298221281360611101 106.06436542009473101
0.031848573644296607199 133.40736518293155655 0.031848573644296607199 132.86887747268451676
0.040094978690191851456 167.41483285124934355 0.040094978690191851456 166.26391329839074729
0.050476587558435426217 209.94297777909991964 0.050476587558435426217 207.77114693481235008
0.063546258777947173257 263.04704756937559296 0.063546258777947173257 259.21013136538232402
0.080000000000012505552 329.23525388509813183 0.080000000000012505552 322.72693956829533590
0.100714032943542974863 411.54546057644762413 0.100714032943542974863 400.80718149476081180
0.126791455396883634421 513.62182794436819222 0.126791455396883634421 496.25965506469066213
0.159620985197506115583 639.78246279328891433 0.159620985197506115583 612.15029655272019227
0.200950914520774404082 795.06348079820782004 0.200950914520774404082 751.65770235418892753
0.252982212813464002465 985.21710345640201467 0.252982212813464002465 917.81167368923365757
0.318485736442809752589 1216.63127143107112715 0.318485736442809752589 1113.06635320219925234
0.400949786901833249431 1496.12605305424744984 0.400949786901833249431 1338.65303507903036007
0.504765875584169521062 1830.56934413782414595 0.504765875584169521062 1593.66246654266342375
0.635462587779443310865 2226.24505341380154277 0.635462587779443310865 1873.83866123307507223
0.800000000000011368684 2687.91030528335159033 0.800000000000011368684 2170.15513218775140558
1.007140329435344483500 3217.51178706288601461 1.007140329435344483500 2467.42973989433266979
1.267914553968907398485 3812.62233164074223168 1.267914553968907398485 2743.53838913657909870
1.596209851975117999245 4464.83364119846737594 1.596209851975117999245 2970.14200278759562934
2.009509145207687197399 5158.59208442503131664 2.009509145207687197399 3115.98733353108355004
2.529822128134725289783 5871.19501289939853450 2.529822128134725289783 3153.33410589695222370
3.184857364427983839050 6574.66035681417997694 3.184857364427983839050 3066.56806505464965085
4.009497869018204596614 7239.70173774707836856 4.009497869018204596614 2860.46188345396012664
5.009497869018190385759 7822.46742715949949343 5.009497869018190385759 2573.20825628644433891
6.009497869018190385759 8243.86111393387363933 6.009497869018190385759 2299.28899431177524093
7.009497869018204596614 8558.85378455149839283 7.009497869018204596614 2059.14215878585400787
8.009497869018190385759 8801.51277547625613806 8.009497869018190385759 1857.41046194969794669
9.009497869018204596614 8993.58016395568120060 9.009497869018204596614 1693.16696797454324042
10.009497869018190385759 9149.31168737999541918 10.009497869018190385759 1560.92602672410066589
11.009497869018190385759 9278.30786344311854918 11.009497869018190385759 1449.18668513432794498
12.009497869018204596614 9387.18209862184994563 12.009497869018204596614 1357.55451945847244133
13.009497869018190385759 9480.59517897236219142 13.009497869018190385759 1282.17792860955842116
14.009497869018204596614 9561.89961723222768342 14.009497869018204596614 1219.88879427539404787
15.009497869018190385759 9633.55321369192824932 15.009497869018190385759 1168.12791501859965138
16.009497869018190385759 9697.39005386438657297 16.009497869018190385759 1124.85165270916377267
17.009497869018204596614 9754.80166252611525124 17.009497869018204596614 1089.40044657066755462
18.009497869018190385759 9806.86041065369317948 18.009497869018190385759 1058.39836854147347367
19.009497869018204596614 9854.40697913633812277 19.009497869018204596614 1033.23130237715508883
20.009497869018190385759 9898.10409469235128199 20.009497869018190385759 1010.36289882503160698
21.009497869018190385759 9938.48443363710975973 21.009497869018190385759 990.64252081448466924
22.009497869018204596614 9975.98381064813474950 22.009497869018204596614 973.52149166235528810
23.009497869018190385759 10010.95510656744227163 23.009497869018190385759 959.02752014348732246
24.009497869018204596614 10043.69436319384476519 24.009497869018204596614 945.83181232970571273
25.009497869018204596614 10074.44841199314760161 25.009497869018204596614 934.17428209204706491
26.009497869018190385759 10103.42514486522122752 26.009497869018190385759 924.31932289929056878
27.009497869018204596614 10130.80298330404366425 27.009497869018204596614 915.00832390569314612
28.009497869018190385759 10156.73341159015035373 28.009497869018190385759 906.66442532076723637
29.009497869018190385759 10181.34865056894523150 29.009497869018190385759 899.36635650960772637
30.009497869018190385759 10204.76304368122509914 30.009497869018190385759 892.53172994090834891
31.009497869018218807469 10227.07640368446482171 31.009497869018218807469 886.31716367976309812
32.009497869018190385759 10248.37790189384577388 32.009497869018190385759 880.64950609399215864
33.009497869018190385759 10268.74420520951025537 33.009497869018190385759 875.66811504149950451
34.009497869018218807469 10288.24612324630834337 34.009497869018218807469 870.85845622561089385
35.009497869018190385759 10306.94462486863449158 35.009497869018190385759 866.53771339101251669
36.009497869018190385759 10324.89533695278441883 36.009497869018190385759 862.41539205580420457
37.009497869018190385759 10342.14908779084908019 37.009497869018190385759 858.58518019282803380
38.009497869018218807469 10358.75017763448886399 38.009497869018218807469 855.01911988725805713
39.009497869018190385759 10374.73998504980409052 39.009497869018190385759 851.74960984151948651
40.009497869018190385759 10390.15615290232926782 40.009497869018190385759 848.80673459294791883
41.009497869018218807469 10405.03214984728037962 41.009497869018218807469 845.78180277065359860
42.009497869018190385759 10419.39935125638112368 42.009497869018190385759 843.05680034257659372
43.009497869018190385759 10433.28669453636211983 43.009497869018190385759 840.37569875246060747
44.009497869018218807469 10446.71998619850819523 44.009497869018218807469 837.93880677744971308
46.009497869018190385759 10472.32012325715913903 46.009497869018190385759 833.41707324269270885
48.009497869018218807469 10496.37289866306673503 48.009497869018218807469 829.24970302835004077
50.009497869018190385759 10519.02714456932153553 50.009497869018190385759 825.51284852113735724
52.009497869018190385759 10540.41163836660598463 52.009497869018190385759 822.07973285578566447
54.009497869018218807469 10560.63908442170031776 54.009497869018218807469 818.86893646287774118
56.009497869018190385759 10579.80798173206676438 56.009497869018190385759 815.90071782866618832
58.009497869018218807469 10598.00560030678570911 58.009497869018218807469 813.24481721635447684
60.009497869018190385759 10615.30909849995805416 60.009497869018190385759 810.66161499488805475
62.009497869018190385759 10631.78724065942151356 62.009497869018190385759 808.24836863664177145
64.009497869018218807469 10647.50164856465562480 64.009497869018218807469 805.98513913021622557
66.009497869018190385759 10662.50736685679112270 66.009497869018190385759 803.87885450021519773
68.009497869018190385759 10676.85435032026180124 68.009497869018190385759 801.90920357889399384
70.009497869018190385759 10690.58741242865471577 70.009497869018190385759 800.00628933164955470
72.009497869018190385759 10703.74736821921942465 72.009497869018190385759 798.22224849048973283
74.009497869018218807469 10716.37137768520915415 74.009497869018218807469 796.51917591201311097
76.009497869018190385759 10728.49312189630109060 76.009497869018190385759 794.89918823582252116
78.009497869018190385759 10740.14355980961954629 78.009497869018190385759 793.36308868332889688
80.009497869018218807469 10751.35101561990086338 80.009497869018218807469 791.89147983463874425
82.009497869018190385759 10762.14139653576239652 82.009497869018190385759 790.48253783643519910
84.009497869018218807469 10772.53867532399453921 84.009497869018218807469 789.12222597540755942
86.009497869018190385759 10782.56493811400105187 86.009497869018190385759 787.83531717031280550
88.009497869018190385759 10792.24048892743667238 88.009497869018190385759 786.58627967508198253
91.009497869018218807469 10806.13714083374907204 91.009497869018218807469 784.81221849563314663
94.009497869018218807469 10819.34483741686926805 94.009497869018218807469 783.13505696718425497
97.009497869018218807469 10831.91539716570150631 97.009497869018218807469 781.56006472920910255
99.504748934509137825444 10841.91940634131788102 99.504748934509137825444 780.08777435844342563
nan nan nan nan

