Time Pressure difference Time.1 Pressure.1 difference.1
(hr) (psi) (hr) (psi)
0.000200000000020850166 0.25034745268708941 0.000200000000020850166 0.19953991444414190
0.000399999999999067768 0.50060587014840097 0.000399999999999067768 0.52255532481138756
0.000600000000019917934 0.75078921069939863 0.000600000000019917934 0.76466806801874421
0.000799999999998135536 1.00090343375004065 0.000799999999998135536 1.01122501965288736
0.001007140329434719206 1.25987884983113707 0.001007140329434719206 1.27013282157685437
0.001267914553977789183 1.58581511493456628 0.001267914553977789183 1.59849010387216905
0.001596209851982166583 1.99600108358084416 0.001596209851982166583 2.01160127466849215
0.002009509145224797066 2.51217642760033089 0.002009509145224797066 2.53127155903644052
0.002529822128153114136 3.16167046383729256 0.002529822128153114136 3.18487815726107693
0.003184857364431081805 3.97882860773045266 0.003184857364431081805 4.00677358096313085
0.004009497869034817086 5.00679704942127834 0.004009497869034817086 5.04003128518592280
0.005047658755856332391 6.29975244968254078 0.005047658755856332391 6.33861094678934744
0.006354625877790454069 7.92568273663955036 0.006354625877790454069 7.97003474812794455
0.008000000000009777068 9.96984765602034884 0.008000000000009777068 10.01868047101332415
0.010071403294361402914 12.53907354119301942 0.010071403294361402914 12.58981054835532376
0.012679145539692626699 15.76706529523541533 0.012679145539692626699 15.81446569877367381
0.015962098519750611558 19.82094845631354119 0.015962098519750611558 19.85535267875819088
0.020095091452091651263 24.90928270452398152 0.020095091452091651263 24.91384039032115183
0.025298221281360611101 31.29181029944116332 0.025298221281360611101 31.23813502098680672
0.031848573644296607199 39.29121029360313599 0.031848573644296607199 39.13261459811941023
0.040094978690191851456 49.30710830550493995 0.040094978690191851456 48.96813884815617257
0.050476587558435426217 61.83252085274860121 0.050476587558435426217 61.19287204244473344
0.063546258777947173257 77.47276058550104949 0.063546258777947173257 76.34270992268109524
0.080000000000012505552 96.96654737711794780 0.080000000000012505552 95.04971507833356270
0.100714032943542974863 121.20859455333730637 0.100714032943542974863 118.04595071421036323
0.126791455396883634421 151.27218220279340244 0.126791455396883634421 146.15866553275134265
0.159620985197506115583 188.42908150761246588 0.159620985197506115583 180.29084076552717875
0.200950914520774404082 234.16253201591052857 0.200950914520774404082 221.37863836458987521
0.252982212813464002465 290.16668115496776181 0.252982212813464002465 270.31439704545925906
0.318485736442809752589 358.32290870915107917 0.318485736442809752589 327.82091224448333833
0.400949786901833249431 440.63986494063448163 0.400949786901833249431 394.26082539998839138
0.504765875584169521062 539.14028628716732783 0.504765875584169521062 469.36634288585287322
0.635462587779443310865 655.67491299173605057 0.635462587779443310865 551.88398926727552407
0.800000000000011368684 791.64481593961716044 0.800000000000011368684 639.15527865803642271
1.007140329435344483500 947.62333454591851023 1.007140329435344483500 726.70875900997464214
1.267914553968907398485 1122.89561822295831917 1.267914553968907398485 808.02842967721164769
1.596209851975117999245 1314.98525048995929865 1.596209851975117999245 874.76785013607275232
2.009509145207687197399 1519.31136733065977751 2.009509145207687197399 917.72229686189450604
2.529822128134725289783 1729.18757229228845063 2.529822128134725289783 928.72168872307497622
3.184857364427983839050 1936.37257084253224093 3.184857364427983839050 903.16730683116384171
4.009497869018204596614 2132.24092276112605759 4.009497869018204596614 842.46480129123483493
5.009497869018190385759 2303.87739293053755318 5.009497869018190385759 757.86270561861033457
6.009497869018190385759 2427.98649245997648904 6.009497869018190385759 677.18785448908454327
7.009497869018204596614 2520.75830640900358048 7.009497869018204596614 606.45967690268298611
8.009497869018190385759 2592.22636537999323991 8.009497869018190385759 547.04554701258223304
9.009497869018204596614 2648.79415787735842969 9.009497869018204596614 498.67246317058464911
10.009497869018190385759 2694.66029148862889997 10.009497869018190385759 459.72478869271458279
11.009497869018190385759 2732.65231594557644712 11.009497869018190385759 426.81525658065822881
12.009497869018204596614 2764.71801534753058149 12.009497869018204596614 399.82770093639942388
13.009497869018190385759 2792.23008695761382114 13.009497869018190385759 377.62774609733565967
14.009497869018204596614 2816.17591466428575586 14.009497869018204596614 359.28231612220514535
15.009497869018190385759 2837.27937115584200001 15.009497869018190385759 344.03767360136839670
16.009497869018190385759 2856.08063230252491849 16.009497869018190385759 331.29192511297293322
17.009497869018204596614 2872.98953074399287289 17.009497869018204596614 320.85081645574462073
18.009497869018190385759 2888.32190176786843949 18.009497869018190385759 311.72006744714627757
19.009497869018204596614 2902.32534317029103477 19.009497869018204596614 304.30784933025802275
20.009497869018190385759 2915.19504158747304245 20.009497869018190385759 297.57263458545452295
21.009497869018190385759 2927.08788113969649203 21.009497869018190385759 291.76457804810166863
22.009497869018204596614 2938.13221820458738875 22.009497869018204596614 286.72208316083066393
23.009497869018190385759 2948.43198344109578102 23.009497869018190385759 282.45331072719147869
24.009497869018204596614 2958.07436724202261757 24.009497869018204596614 278.56690363135169264
25.009497869018204596614 2967.13206654592750056 25.009497869018204596614 275.13352143806866934
26.009497869018190385759 2975.66630978907187455 26.009497869018190385759 272.23103345664037533
27.009497869018204596614 2983.72964576762933575 27.009497869018204596614 269.48875293112877216
28.009497869018190385759 2991.36668971490644253 28.009497869018190385759 267.03130334789722156
29.009497869018190385759 2998.61638338674401894 29.009497869018190385759 264.88187212269269821
30.009497869018190385759 3005.51240327597724900 30.009497869018190385759 262.86893416067852058
31.009497869018218807469 3012.08414629063008761 31.009497869018218807469 261.03861670020421570
32.009497869018190385759 3018.35787521531074162 32.009497869018190385759 259.36937508247717687
33.009497869018190385759 3024.35617002745857462 33.009497869018190385759 257.90225306016770901
34.009497869018218807469 3030.09988561363888948 34.009497869018218807469 256.48570971028266285
35.009497869018190385759 3035.60697855720036387 35.009497869018190385759 255.21316216310646041
36.009497869018190385759 3040.89383211623135139 36.009497869018190385759 253.99905382465470893
37.009497869018190385759 3045.97541626716792962 37.009497869018190385759 252.87097772802468398
38.009497869018218807469 3050.86477834440438528 38.009497869018218807469 251.82069969282255784
39.009497869018190385759 3055.57410518590131687 39.009497869018190385759 250.85776180263934521
40.009497869018190385759 3060.11448338904256161 40.009497869018190385759 249.99102457189562188
41.009497869018218807469 3064.49577016049988742 41.009497869018218807469 249.10011999409658756
42.009497869018190385759 3068.72720619194751634 42.009497869018190385759 248.29755078582735450
43.009497869018190385759 3072.81731414427076743 43.009497869018190385759 247.50791127640960099
44.009497869018218807469 3076.77369456531414471 44.009497869018218807469 246.79019651664614798
46.009497869018190385759 3084.31346095930030060 46.009497869018190385759 245.45845307832729532
48.009497869018218807469 3091.39749755145112431 48.009497869018218807469 244.23107691930857754
50.009497869018190385759 3098.06963846904636739 50.009497869018190385759 243.13049648225279498
52.009497869018190385759 3104.36781129975361182 52.009497869018190385759 242.11937337533416326
54.009497869018218807469 3110.32520979543232897 54.009497869018218807469 241.17372786235443982
56.009497869018190385759 3115.97084393478689890 56.009497869018190385759 240.29952648378525737
58.009497869018218807469 3121.33041652871088445 58.009497869018218807469 239.51730918015920224
60.009497869018190385759 3126.42665229793283288 60.009497869018190385759 238.75650304643963295
62.009497869018190385759 3131.27980375585684669 62.009497869018190385759 238.04575240668216907
64.009497869018218807469 3135.90801978274112116 64.009497869018218807469 237.37918481232395607
66.009497869018190385759 3140.32751215645203047 66.009497869018190385759 236.75884070896748312
68.009497869018190385759 3144.55299358747424776 68.009497869018190385759 236.17873804035920671
70.009497869018190385759 3148.59766256460397926 70.009497869018190385759 235.61829069356801369
72.009497869018190385759 3152.47353995497542201 72.009497869018190385759 235.09285400747299377
74.009497869018218807469 3156.19157014016445828 74.009497869018218807469 234.59126413846959736
76.009497869018190385759 3159.76167288726674087 76.009497869018190385759 234.11414448041347214
78.009497869018190385759 3163.19296624529852124 78.009497869018190385759 233.66173159851467744
80.009497869018218807469 3166.49379227161443850 80.009497869018218807469 233.22831255403741579
82.009497869018190385759 3169.67178117149160244 82.009497869018190385759 232.81335018470352338
84.009497869018218807469 3172.73399341734102563 84.009497869018218807469 232.41271039001728127
86.009497869018190385759 3175.68693382809624381 86.009497869018190385759 232.03368930358527678
88.009497869018190385759 3178.53658235534157939 88.009497869018190385759 231.66582209608577614
91.009497869018218807469 3182.62943188939152606 91.009497869018218807469 231.14332462542617463
94.009497869018218807469 3186.51936992414584893 94.009497869018218807469 230.64936609307477511
97.009497869018218807469 3190.22165806935072396 97.009497869018218807469 230.18549851613693136
99.504748934509137825444 3193.16804433340166725 99.504748934509137825444 229.75187874940456823
nan nan nan nan

