Time Pressure difference Time.1 Pressure.1 difference.1
(hr) (psi) (hr) (psi)
0.000200000000020850166 0.34765858878140654 0.000200000000020850166 0.27710194098887481
0.000399999999999067768 0.69519353396023797 0.000399999999999067768 0.72567483644903652
0.000600000000019917934 1.04262421950946393 0.000600000000019917934 1.06189784861074776
0.000799999999998135536 1.38995892128743170 0.000799999999998135536 1.40429255220899307
0.001007140329434719206 1.74959920009772540 0.001007140329434719206 1.76383893494725963
0.001267914553977789183 2.20222829914501261 0.001267914553977789183 2.21983011102513839
0.001596209851982166583 2.77185532537140489 0.001596209851982166583 2.79351937811106188
0.002009509145224797066 3.48867025493999439 0.002009509145224797066 3.51518774643598686
0.002529822128153114136 4.39062542818600754 0.002529822128153114136 4.42285405227617989
0.003184857364431081805 5.52541647186488127 0.003184857364431081805 5.56422377688567682
0.004009497869034817086 6.95296068657174260 0.004009497869034817086 6.99911321331467029
0.005047658755856332391 8.74849343510731536 0.005047658755856332391 8.80245639786693523
0.006354625877790454069 11.00642984689479142 0.006354625877790454069 11.06802167680226212
0.008000000000009777068 13.84517049905815966 0.008000000000009777068 13.91298484014474823
0.010071403294361402914 17.41306558212186673 0.010071403294361402914 17.48352428309808815
0.012679145539692626699 21.89579167245317137 0.012679145539692626699 21.96161681756609951
0.015962098519750611558 27.52543672670784147 0.015962098519750611558 27.57321401900639302
0.020095091452091651263 34.59162847339210600 0.020095091452091651263 34.59795775134299589
0.025298221281360611101 43.45507211018739468 0.025298221281360611101 43.38053301917769033
0.031848573644296607199 54.56387343098376164 0.031848573644296607199 54.34363090370070637
0.040094978690191851456 68.47299425814307483 0.040094978690191851456 68.00226590873515420
0.050476587558435426217 85.86708875896651705 0.050476587558435426217 84.97880569349467805
0.063546258777947173257 107.58675722504796113 0.063546258777947173257 106.01745098897241348
0.080000000000012505552 134.65786313500100846 0.080000000000012505552 131.99594984300142642
0.100714032943542974863 168.32289874848837030 0.100714032943542974863 163.93092158983367312
0.126791455396883634421 210.07233276002537536 0.126791455396883634421 202.97117007538227540
0.159620985197506115583 261.67227930293029203 0.159620985197506115583 250.37066923584836786
0.200950914520774404082 325.18251954368969336 0.200950914520774404082 307.42947121727098647
0.252982212813464002465 402.95572333148345479 0.252982212813464002465 375.38677064784707227
0.318485736442809752589 497.60457089842248024 0.318485736442809752589 455.24631667174099903
0.400949786901833249431 611.91848353882130596 0.400949786901833249431 547.51171102058185625
0.504765875584169521062 748.70644407985366797 0.504765875584169521062 651.81106752919106384
0.635462587779443310865 910.53858349018491936 0.635462587779443310865 766.40367944757861096
0.800000000000011368684 1099.36057495933550854 0.800000000000011368684 887.59769594371834955
1.007140329435344483500 1315.96861740928238760 1.007140329435344483500 1009.18359224641005767
1.267914553968907398485 1559.36999474151684808 1.267914553968907398485 1122.11257011652651272
1.596209851975117999245 1826.12569669369781877 1.596209851975117999245 1214.79389155109106468
2.009509145207687197399 2109.87425762197972290 2.009509145207687197399 1274.44491723678379458
2.529822128134725289783 2401.33024989427440232 2.529822128134725289783 1289.71982022008410240
3.184857364427983839050 2689.04895219992886268 3.184857364427983839050 1254.23233971902504891
4.009497869018204596614 2961.05217845232755280 4.009497869018204596614 1169.93450810543572516
5.009497869018190385759 3199.40448586367028838 5.009497869018190385759 1052.44721245375103535
6.009497869018190385759 3371.75532839956895259 6.009497869018190385759 940.41369826058917170
7.009497869018204596614 3500.58794710619076795 7.009497869018204596614 842.19317257581894864
8.009497869018190385759 3599.83594926523983304 8.009497869018190385759 759.68451379155942504
9.009497869018204596614 3678.39188701905550261 9.009497869018204596614 692.50860333988168804
10.009497869018190385759 3742.08638485796291206 10.009497869018190385759 638.42179957991595529
11.009497869018190385759 3794.84607330648123025 11.009497869018190385759 592.72019020171148895
12.009497869018204596614 3839.37584855570730724 12.009497869018204596614 555.24245512098002564
13.009497869018190385759 3877.58198122352996506 13.009497869018190385759 524.41328195576852522
14.009497869018204596614 3910.83565558030386455 14.009497869018204596614 498.93690411655063599
15.009497869018190385759 3940.14211675462456697 15.009497869018190385759 477.76660320721589414
16.009497869018190385759 3966.25150931048256098 16.009497869018190385759 460.06652723329790433
17.009497869018204596614 3989.73296960461448180 17.009497869018204596614 445.56691454651576123
18.009497869018190385759 4011.02509946501368177 18.009497869018190385759 432.88700396314663976
19.009497869018204596614 4030.47173902053737038 19.009497869018204596614 422.59362465132176112
20.009497869018190385759 4048.34394479589263938 20.009497869018190385759 413.24040284624584274
21.009497869018190385759 4064.85958244648873006 21.009497869018190385759 405.17472964819432946
22.009497869018204596614 4080.19690102829827083 22.009497869018204596614 398.17219522002397980
23.009497869018190385759 4094.50022949627236812 23.009497869018190385759 392.24413250487060623
24.009497869018204596614 4107.89064952546686982 24.009497869018204596614 386.84706218573091974
25.009497869018204596614 4120.46911566843118635 25.009497869018204596614 382.07910950535784878
26.009497869018190385759 4132.32065611904272373 26.009497869018190385759 378.04841190988599919
27.009497869018204596614 4143.51824561750527209 27.009497869018204596614 374.24019510037152259
28.009497869018190385759 4154.12384153100083495 28.009497869018190385759 370.82752425056821721
29.009497869018190385759 4164.19152244404995145 29.009497869018190385759 367.84259982486895524
30.009497869018190385759 4173.76805504770254629 30.009497869018190385759 365.04722418326787192
31.009497869018218807469 4182.89426295509383635 31.009497869018218807469 362.50545442088161963
32.009497869018190385759 4191.60661740863724845 32.009497869018190385759 360.18737137699486084
33.009497869018190385759 4199.93647532052364113 33.009497869018190385759 358.14997268820627596
34.009497869018218807469 4207.91279796179787809 34.009497869018218807469 356.18281282025964174
35.009497869018190385759 4215.56052171730789269 35.009497869018190385759 354.41562054544345983
36.009497869018190385759 4222.90239808832120616 36.009497869018190385759 352.72958305217827046
37.009497869018190385759 4229.95921594576793723 37.009497869018190385759 351.16301890469873115
38.009497869018218807469 4236.74909417927210598 38.009497869018218807469 349.70449326112901645
39.009497869018190385759 4243.28895670334441093 39.009497869018190385759 348.36725725416357591
40.009497869018190385759 4249.59419952365351492 40.009497869018190385759 347.16361551844642008
41.009497869018218807469 4255.67851138567766611 41.009497869018218807469 345.92641248349627858
42.009497869018190385759 4261.55472487785391422 42.009497869018190385759 344.81188115772704350
43.009497869018190385759 4267.23467545616313146 43.009497869018190385759 343.71530536059543692
44.009497869018218807469 4272.72891803422317025 44.009497869018218807469 342.71861177394714559
46.009497869018190385759 4283.19942418932714645 46.009497869018190385759 340.86921390943791721
48.009497869018218807469 4293.03705640035332181 48.009497869018218807469 339.16475133644843254
50.009497869018190385759 4302.30268730917487119 50.009497869018190385759 337.63637053017163225
52.009497869018190385759 4311.04898712058820820 52.009497869018190385759 336.23221950461686447
54.009497869018218807469 4319.32205214116493153 54.009497869018218807469 334.91899749655863161
56.009497869018190385759 4327.16216865362457611 56.009497869018190385759 333.70499026651907570
58.009497869018218807469 4334.60503026246169611 58.009497869018218807469 332.61872171862637515
60.009497869018190385759 4341.68219488550130336 60.009497869018190385759 331.56218695485637227
62.009497869018190385759 4348.42178727557529783 62.009497869018190385759 330.57516447173804863
64.009497869018218807469 4354.84901086108311574 64.009497869018218807469 329.64949917458943673
66.009497869018190385759 4360.98637900796347822 66.009497869018190385759 328.78802463903127773
68.009497869018190385759 4366.85432332081200002 68.009497869018190385759 327.98243355770813423
70.009497869018190385759 4372.47117259802053013 70.009497869018190385759 327.20413790668249021
72.009497869018190385759 4377.85362026969960425 72.009497869018190385759 326.47446171137443116
74.009497869018218807469 4383.01686484580932301 74.009497869018218807469 325.77790169395450448
76.009497869018190385759 4387.97468194975954248 76.009497869018190385759 325.11532356416222456
78.009497869018190385759 4392.73973385559747840 78.009497869018190385759 324.48705584112667566
80.009497869018218807469 4397.32360521440205048 80.009497869018218807469 323.88516494215161856
82.009497869018190385759 4401.73689212519548164 82.009497869018190385759 323.30890490766137191
84.009497869018218807469 4405.98939949650684866 84.009497869018218807469 322.75253469444260190
86.009497869018190385759 4410.09016059848636360 86.009497869018190385759 322.22618647474627096
88.009497869018190385759 4414.04747981572290882 88.009497869018190385759 321.71532769489652992
91.009497869018218807469 4419.73123764041702088 91.009497869018218807469 320.98973320075793936
94.009497869018218807469 4425.13321138967785373 94.009497869018218807469 320.30377085350585276
97.009497869018218807469 4430.27459492687194142 97.009497869018218807469 319.65959594599746652
99.504748934509137825444 4434.36625425701640779 99.504748934509137825444 319.05742630315984343
nan nan nan nan

