Time Pressure difference Time.1 Pressure.1 difference.1
(hr) (psi) (hr) (psi)
0.000200000000020850166 0.48322880402391671 0.000200000000020850166 0.38515843950846002
0.000399999999999067768 0.96628574935621592 0.000399999999999067768 1.00865330138012022
0.000600000000019917934 1.44919777879186262 0.000600000000019917934 1.47598720105943659
0.000799999999998135536 1.93197639537798516 0.000799999999998135536 1.95189945653929442
0.001007140329434719206 2.43185917525545081 0.001007140329434719206 2.45165172536927711
0.001267914553977789183 3.06099196603648904 0.001267914553977789183 3.08545764235790809
0.001596209851982166583 3.85274627760953647 0.001596209851982166583 3.88285827436011299
0.002009509145224797066 4.84908473234482429 0.002009509145224797066 4.88594277674475652
0.002529822128153114136 6.10275926740686714 0.002529822128153114136 6.14755551285277679
0.003184857364431081805 7.68006452189831545 0.003184857364431081805 7.73400481906836923
0.004009497869034817086 9.66428267678990949 0.004009497869034817086 9.72843248070770983
0.005047658755856332391 12.15998728659653239 0.005047658755856332391 12.23499322287246116
0.006354625877790454069 15.29841086374610803 0.006354625877790454069 15.38402056033998733
0.008000000000009777068 19.24412454534160233 0.008000000000009777068 19.33838323474664733
0.010071403294361402914 24.20332799811675883 0.010071403294361402914 24.30126222124399504
0.012679145539692626699 30.43410277917534046 0.012679145539692626699 30.52559658135383813
0.015962098519750611558 38.25904004358195465 0.015962098519750611558 38.32544819388208879
0.020095091452091651263 48.08070847617420185 0.020095091452091651263 48.08950586968967400
0.025298221281360611101 60.40047104310735193 0.025298221281360611101 60.29686527306754584
0.031848573644296607199 75.84117335742001842 0.031848573644296607199 75.53504678241652925
0.040094978690191851456 95.17418579899791098 0.040094978690191851456 94.51989591620842646
0.050476587558435426217 119.35114490181707936 0.050476587558435426217 118.11647394239332698
0.063546258777947173257 149.54044485108340723 0.063546258777947173257 147.35918426936117953
0.080000000000012505552 187.16798679769277669 0.080000000000012505552 183.46805468608570777
0.100714032943542974863 233.96077553318599485 0.100714032943542974863 227.85613742510372504
0.126791455396883634421 291.99049122864772698 0.126791455396883634421 282.12021486554328931
0.159620985197506115583 363.71194802632174969 0.159620985197506115583 348.00325077997109702
0.200950914520774404082 451.98814319350174173 0.200950914520774404082 427.31225544792931714
0.252982212813464002465 560.08917525261222181 0.252982212813464002465 521.76965011100276115
0.318485736442809752589 691.64654471766368715 0.318485736442809752589 632.77059805330509334
0.400949786901833249431 850.53741372262015830 0.400949786901833249431 761.01508158602416643
0.504765875584169521062 1040.66613399616016977 0.504765875584169521062 905.98619673315783984
0.635462587779443310865 1265.60506461195541306 0.635462587779443310865 1065.26444439962483557
0.800000000000011368684 1528.05859820902878710 0.800000000000011368684 1233.71832857248887194
1.007140329435344483500 1829.13341319328446843 1.007140329435344483500 1402.71690692623019459
1.267914553968907398485 2167.44968168617515403 1.267914553968907398485 1559.68278286531540289
1.596209851975117999245 2538.22734396899159037 1.596209851975117999245 1688.50538514637310072
2.009509145207687197399 2932.62426717313428526 2.009509145207687197399 1771.41745673342416012
2.529822128134725289783 3337.73415116883597875 2.529822128134725289783 1792.64884102360997531
3.184857364427983839050 3737.64938092860893448 3.184857364427983839050 1743.32294109271174420
4.009497869018204596614 4115.72085091101052967 4.009497869018204596614 1626.15298853889521524
5.009497869018190385759 4447.01915379615365964 5.009497869018190385759 1462.85126898475937196
6.009497869018190385759 4686.57857846925708145 6.009497869018190385759 1307.13004471148883567
7.009497869018204596614 4865.64975423133182630 7.009497869018204596614 1170.60821355634175234
8.009497869018190385759 5003.59972852417286049 8.009497869018190385759 1055.92512562893784889
9.009497869018204596614 5112.78872334466814209 9.009497869018204596614 962.55382425950062952
10.009497869018190385759 5201.32102775712155562 10.009497869018190385759 887.37575491849565879
11.009497869018190385759 5274.65447031355415675 11.009497869018190385759 823.85270456266584915
12.009497869018204596614 5336.54872729872204218 12.009497869018204596614 771.76044599351530451
13.009497869018190385759 5389.65342366237109673 13.009497869018190385759 728.90937037392711773
14.009497869018204596614 5435.87443993338911241 14.009497869018204596614 693.49842414286104031
15.009497869018190385759 5476.60901874267165113 15.009497869018190385759 664.07271881194367324
16.009497869018190385759 5512.89982514208350040 16.009497869018190385759 639.47046010178485176
17.009497869018204596614 5545.53793143607981619 17.009497869018204596614 619.31669222853031442
18.009497869018190385759 5575.13297317983960966 18.009497869018190385759 601.69222321193353764
19.009497869018204596614 5602.16287170079431235 19.009497869018204596614 587.38491847468412743
20.009497869018190385759 5627.00438259907605243 20.009497869018190385759 574.38438768820299174
21.009497869018190385759 5649.96032871150691790 21.009497869018190385759 563.17348786028924224
22.009497869018204596614 5671.27846769722691533 22.009497869018204596614 553.44030005462661848
23.009497869018190385759 5691.15940989792943583 23.009497869018190385759 545.20057651992772207
24.009497869018204596614 5709.77145304855548602 24.009497869018204596614 537.69890700935332006
25.009497869018204596614 5727.25491914678968897 25.009497869018204596614 531.07168091534185805
26.009497869018190385759 5743.72799331378973875 26.009497869018190385759 525.46920411398025408
27.009497869018204596614 5759.29210694682024041 27.009497869018204596614 520.17596496008570739
28.009497869018190385759 5774.03337782179733040 28.009497869018190385759 515.43251576454576934
29.009497869018190385759 5788.02697258371517819 29.009497869018190385759 511.28361363217430835
30.009497869018190385759 5801.33789469548992201 30.009497869018190385759 507.39817524037943031
31.009497869018218807469 5814.02288702609985194 31.009497869018218807469 503.86523688644069807
32.009497869018190385759 5826.13264285746026871 32.009497869018190385759 500.64321236850236119
33.009497869018190385759 5837.71074679718731204 33.009497869018190385759 497.81132567427715685
34.009497869018218807469 5848.79745362632638717 34.009497869018218807469 495.07706758031304162
35.009497869018190385759 5859.42742372668908502 35.009497869018190385759 492.62075487297283871
36.009497869018190385759 5869.63228059644643508 36.009497869018190385759 490.27724342898466148
37.009497869018190385759 5879.44091977151038009 37.009497869018190385759 488.09979421921048015
38.009497869018218807469 5888.87852564152399282 38.009497869018218807469 486.07251336056452828
39.009497869018190385759 5897.96862163790228806 39.009497869018190385759 484.21381929346659945
40.009497869018190385759 5906.73260747187214292 40.009497869018190385759 482.54081487133333894
41.009497869018218807469 5915.18950984468574461 41.009497869018218807469 480.82116184907022216
42.009497869018190385759 5923.35716544027036434 42.009497869018190385759 479.27201663310859203
43.009497869018190385759 5931.25202497615009634 43.009497869018190385759 477.74782874283715728
44.009497869018218807469 5938.88875927723438508 44.009497869018218807469 476.36247234608441659
46.009497869018190385759 5953.44226185167190124 46.009497869018190385759 473.79189780235270746
48.009497869018218807469 5967.11609992489320575 48.009497869018218807469 471.42277637913042554
50.009497869018190385759 5979.99488355653102190 50.009497869018190385759 469.29840018667403001
52.009497869018190385759 5992.15182181115233107 52.009497869018190385759 467.34669744541247383
54.009497869018218807469 6003.65098634932292043 54.009497869018218807469 465.52138168780044225
56.009497869018190385759 6014.54837317644978611 56.009497869018190385759 463.83396972451572537
58.009497869018218807469 6024.89359469495320809 58.009497869018218807469 462.32410841751658381
60.009497869018190385759 6034.73051490066154656 60.009497869018190385759 460.85557564777883499
62.009497869018190385759 6044.09822585432902997 62.009497869018190385759 459.48366162220048636
64.009497869018218807469 6053.03175911552443722 64.009497869018218807469 458.19703114936947941
66.009497869018190385759 6061.56240718571007164 66.009497869018190385759 456.99962276382098025
68.009497869018190385759 6069.71856901768296666 68.009497869018190385759 455.87988970580960313
70.009497869018190385759 6077.52572076423530234 70.009497869018190385759 454.79809598991033681
72.009497869018190385759 6085.00706549448659644 72.009497869018190385759 453.78388099116881449
74.009497869018218807469 6092.18372841008567775 74.009497869018218807469 452.81569589518551311
76.009497869018190385759 6099.07485696844469203 76.009497869018190385759 451.89474399707717112
78.009497869018190385759 6105.69805112464564445 78.009497869018190385759 451.02148192271437210
80.009497869018218807469 6112.06941298939636908 80.009497869018218807469 450.18488237174665301
82.009497869018190385759 6118.20367063334470004 82.009497869018190385759 449.38390849605565336
84.009497869018218807469 6124.11445241021556285 84.009497869018218807469 448.61058052026589849
86.009497869018190385759 6129.81431413330210489 86.009497869018190385759 447.87898167901335000
88.009497869018190385759 6135.31479849984498287 88.009497869018190385759 447.16891241802608192
91.009497869018218807469 6143.21494992603584251 91.009497869018218807469 446.16037078861336340
94.009497869018218807469 6150.72343496986377431 94.009497869018218807469 445.20691594709785477
97.009497869018218807469 6157.86971208735030814 97.009497869018218807469 444.31154364742712914
99.504748934509137825444 6163.55692278307833476 99.504748934509137825444 443.47455665582737083
nan nan nan nan

