Time Pressure difference Time.1 Pressure.1 difference.1
(hr) (psi) (hr) (psi)
0.000200000000020850166 0.04324939381969650 0.000200000000020850166 0.03447201179765907
0.000399999999999067768 0.08648340613859419 0.000399999999999067768 0.09027533850562178
0.000600000000019917934 0.12970444836002901 0.000600000000019917934 0.13210212470755714
0.000799999999998135536 0.17291355001661832 0.000799999999998135536 0.17469668113604700
0.001007140329434719206 0.21765348900737255 0.001007140329434719206 0.21942493927573564
0.001267914553977789183 0.27396141520464273 0.001267914553977789183 0.27615111429020861
0.001596209851982166583 0.34482410746247139 0.001596209851982166583 0.34751915708558667
0.002009509145224797066 0.43399725659540600 0.002009509145224797066 0.43729608328868741
0.002529822128153114136 0.54620220637720673 0.002529822128153114136 0.55021150889560133
0.003184857364431081805 0.68737238405974599 0.003184857364431081805 0.69220008707668712
0.004009497869034817086 0.86496161651131731 0.004009497869034817086 0.87070307916833212
0.005047658755856332391 1.08832932685545547 0.005047658755856332391 1.09504242270114971
0.006354625877790454069 1.36922093789121813 0.006354625877790454069 1.37688307941080756
0.008000000000009777068 1.72236570801680444 0.008000000000009777068 1.73080194183618885
0.010071403294361402914 2.16621868485726621 0.010071403294361402914 2.17498388210789617
0.012679145539692626699 2.72387838987455710 0.012679145539692626699 2.73206716390774451
0.015962098519750611558 3.42421700906413351 0.015962098519750611558 3.43016059566586673
0.020095091452091651263 4.30326478616361197 0.020095091452091651263 4.30405216045415351
0.025298221281360611101 5.40589413810943586 0.025298221281360611101 5.39662133252928111
0.031848573644296607199 6.78785028328027540 0.031848573644296607199 6.76045169136946544
0.040094978690191851456 8.51817153450583575 0.040094978690191851456 8.45961202692399183
0.050476587558435426217 10.68203018054128783 0.050476587558435426217 10.57152606713330911
0.063546258777947173257 13.38399850646529643 0.063546258777947173257 13.18877380724058668
0.080000000000012505552 16.75169589239246903 0.080000000000012505552 16.42054878429682674
0.100714032943542974863 20.93969075340046615 0.100714032943542974863 20.39332038916591117
0.126791455396883634421 26.13340024765865977 0.126791455396883634421 25.25000201894707530
0.159620985197506115583 32.55253235347458229 0.159620985197506115583 31.14659043125386617
0.200950914520774404082 40.45332779012407798 0.200950914520774404082 38.24481460119159948
0.252982212813464002465 50.12846318956253810 0.252982212813464002465 46.69883271217236143
0.318485736442809752589 61.90296097300949185 0.318485736442809752589 56.63351307878117780
0.400949786901833249431 76.12383048808302988 0.400949786901833249431 68.11150472026376690
0.504765875584169521062 93.14051457452725913 0.504765875584169521062 81.08654428592808472
0.635462587779443310865 113.27274244375504964 0.635462587779443310865 95.34208452457916394
0.800000000000011368684 136.76255956431927530 0.800000000000011368684 110.41885212696973895
1.007140329435344483500 163.70901460593941579 1.007140329435344483500 125.54437032730460544
1.267914553968907398485 193.98861178602601285 1.267914553968907398485 139.59295130636215276
1.596209851975117999245 227.17353164610594263 1.596209851975117999245 151.12268507334147216
2.009509145207687197399 262.47239568503096052 2.009509145207687197399 158.54338683328410298
2.529822128134725289783 298.73007893421595327 2.529822128134725289783 160.44361399867077012
3.184857364427983839050 334.52283615884277879 3.184857364427983839050 156.02890350571601630
4.009497869018204596614 368.36055808497854969 4.009497869018204596614 145.54209191742262419
5.009497869018190385759 398.01204130361446687 5.009497869018190385759 130.92644748228482854
6.009497869018190385759 419.45281597315215549 6.009497869018190385759 116.98926389844650942
7.009497869018204596614 435.47984030986100379 7.009497869018204596614 104.77044252139374692
8.009497869018190385759 447.82648172677625098 8.009497869018190385759 94.50620745732318539
9.009497869018204596614 457.59899072964327615 9.009497869018204596614 86.14939563079867924
10.009497869018190385759 465.52270816414852561 10.009497869018190385759 79.42089372764505129
11.009497869018190385759 472.08611438262443016 11.009497869018190385759 73.73552605380142211
12.009497869018204596614 477.62570364807839951 12.009497869018204596614 69.07322408203579300
13.009497869018190385759 482.37861967374055894 13.009497869018190385759 65.23801593708124358
14.009497869018204596614 486.51544040711917205 14.009497869018204596614 62.06870577526467514
15.009497869018190385759 490.16122026612555374 15.009497869018190385759 59.43507982482111629
16.009497869018190385759 493.40927867020366193 16.009497869018190385759 57.23315649792223070
17.009497869018204596614 496.33041727138743227 17.009497869018204596614 55.42937692923162984
18.009497869018190385759 498.97919897650888288 18.009497869018190385759 53.85197178488905934
19.009497869018204596614 501.39839815566494963 19.009497869018204596614 52.57145569825055276
20.009497869018190385759 503.62173475929768074 20.009497869018190385759 51.40789700479613344
21.009497869018190385759 505.67631169190775609 21.009497869018190385759 50.40451182226341587
22.009497869018204596614 507.58430347720451437 22.009497869018204596614 49.53338313741924992
23.009497869018190385759 509.36366491341192386 23.009497869018190385759 48.79592079007959171
24.009497869018204596614 511.02945879264183304 24.009497869018204596614 48.12451491305743900
25.009497869018204596614 512.59424405444588047 25.009497869018204596614 47.53137247435073931
26.009497869018190385759 514.06859836887622350 26.009497869018190385759 47.02994597922026543
27.009497869018204596614 515.46159993327819393 27.009497869018204596614 46.55619651966344463
28.009497869018190385759 516.78095636270813884 28.009497869018190385759 46.13165373452044804
29.009497869018190385759 518.03339513658033866 29.009497869018190385759 45.76032342318944046
30.009497869018190385759 519.22473412076681143 30.009497869018190385759 45.41257334337303320
31.009497869018218807469 520.36005185087287828 31.009497869018218807469 45.09637232030105736
32.009497869018190385759 521.44388541925638947 32.009497869018190385759 44.80799835311897539
33.009497869018190385759 522.48013568580688570 33.009497869018190385759 44.55454205690604397
34.009497869018218807469 523.47240548807053528 34.009497869018218807469 44.30982360443421442
35.009497869018190385759 524.42379696004786638 35.009497869018190385759 44.08998150326090837
36.009497869018190385759 525.33714043203997335 36.009497869018190385759 43.88023521223270507
37.009497869018190385759 526.21502207937783169 37.009497869018190385759 43.68535163407735666
38.009497869018218807469 527.05969592660812850 38.009497869018218807469 43.50390825258064353
39.009497869018190385759 527.87326734108592063 39.009497869018190385759 43.33755353401078025
40.009497869018190385759 528.65765161538274697 40.009497869018190385759 43.18781819846701353
41.009497869018218807469 529.41455165563445462 41.009497869018218807469 43.03390777306653092
42.009497869018190385759 530.14556386040283087 42.009497869018190385759 42.89525794306651818
43.009497869018190385759 530.85216058306343712 43.009497869018190385759 42.75884181519368354
44.009497869018218807469 531.53565487507080434 44.009497869018218807469 42.63485122546710926
46.009497869018190385759 532.83820588001196938 46.009497869018190385759 42.40478259160471453
48.009497869018218807469 534.06202615506788334 48.009497869018218807469 42.19274418539549742
50.009497869018190385759 535.21468837339000402 50.009497869018190385759 42.00261068796393715
52.009497869018190385759 536.30274480925970693 52.009497869018190385759 41.82793161301453466
54.009497869018218807469 537.33192993143688909 54.009497869018218807469 41.66456428186854311
56.009497869018190385759 538.30725543059440952 56.009497869018190385759 41.51353945899279552
58.009497869018218807469 539.23316165944504519 58.009497869018218807469 41.37840557265209185
60.009497869018190385759 540.11357448336389098 60.009497869018190385759 41.24697062596299446
62.009497869018190385759 540.95199267543034694 62.009497869018190385759 41.12418314002483299
64.009497869018218807469 541.75155159037399244 64.009497869018218807469 41.00902860545131290
66.009497869018190385759 542.51505193400498683 66.009497869018190385759 40.90185952447278339
68.009497869018190385759 543.24503543703872310 68.009497869018190385759 40.80164245215507890
70.009497869018190385759 543.94378223707440156 70.009497869018190385759 40.70482098360643164
72.009497869018190385759 544.61336902876655586 72.009497869018190385759 40.61404786840065384
74.009497869018218807469 545.25568653584230105 74.009497869018218807469 40.52739446910438659
76.009497869018190385759 545.87244847221882083 76.009497869018190385759 40.44496848166611613
78.009497869018190385759 546.46523004902167031 78.009497869018190385759 40.36681077449423327
80.009497869018218807469 547.03547241901640064 80.009497869018218807469 40.29193439471742977
82.009497869018190385759 547.58449375720124408 82.009497869018190385759 40.22024654353682394
84.009497869018218807469 548.11351381296253749 84.009497869018218807469 40.15103302418903297
86.009497869018190385759 548.62365634239540668 86.009497869018190385759 40.08555429829379335
88.009497869018190385759 549.11595442683631063 88.009497869018190385759 40.02200248836033580
91.009497869018218807469 549.82302477823373010 91.009497869018218807469 39.93173714459189938
94.009497869018218807469 550.49504065134749453 94.009497869018218807469 39.84640211574714641
97.009497869018218807469 551.13463860334297806 97.009497869018218807469 39.76626552438246165
99.504748934509137825444 551.64364885493989732 99.504748934509137825444 39.69135446833566760
nan nan nan nan

