Time Pressure difference Time.1 Pressure.1 difference.1
(hr) (psi) (hr) (psi)
0.000200000000020850166 0.28278449805186179 0.000200000000020850166 0.22539392329238619
0.000399999999999067768 0.56546842475234660 0.000399999999999067768 0.59026182869060384
0.000600000000019917934 0.84806754696942044 0.000600000000019917934 0.86374466154941210
0.000799999999998135536 1.13058859626250441 0.000799999999998135536 1.14224753050492267
0.001007140329434719206 1.42311896658666659 0.001007140329434719206 1.43470152603365619
0.001267914553977789183 1.79128617633804854 0.001267914553977789183 1.80560343958982550
0.001596209851982166583 2.25461916417769803 0.001596209851982166583 2.27224064248268220
0.002009509145224797066 2.83767437004688539 0.002009509145224797066 2.85924362150295597
0.002529822128153114136 3.57132211862019755 0.002529822128153114136 3.59753678893277806
0.003184857364431081805 4.49435789577526190 0.003184857364431081805 4.52592364627064647
0.004009497869034817086 5.65551826180476613 0.004009497869034817086 5.69305859456217167
0.005047658755856332391 7.11599944482413260 0.005047658755856332391 7.15989276381520945
0.006354625877790454069 8.95259844005796523 0.006354625877790454069 9.00269705768604922
0.008000000000009777068 11.26162193703295245 0.008000000000009777068 11.31678192739046551
0.010071403294361402914 14.16373755483597030 0.010071403294361402914 14.22104845993624522
0.012679145539692626699 17.80997408764133283 0.012679145539692626699 17.86351607170448474
0.015962098519750611558 22.38911121311164010 0.015962098519750611558 22.42797312550759159
0.020095091452091651263 28.13673129414669205 0.020095091452091651263 28.14187951066177007
0.025298221281360611101 35.34623090302324044 0.025298221281360611101 35.28560102038376556
0.031848573644296607199 44.38209800606334454 0.031848573644296607199 44.20295336664650421
0.040094978690191851456 55.69573695638432298 0.040094978690191851456 55.31284786834917355
0.050476587558435426217 69.84404348815456842 0.050476587558435426217 69.12151659279471971
0.063546258777947173257 87.51075946535002004 0.063546258777947173257 86.23429027811152991
0.080000000000012505552 109.53031929641228714 0.080000000000012505552 107.36512666655616499
0.100714032943542974863 136.91336261838765154 0.100714032943542974863 133.34094100608479039
0.126791455396883634421 170.87223238853741236 0.126791455396883634421 165.09616704696165357
0.159620985197506115583 212.84348077271840793 0.159620985197506115583 203.65078358896758459
0.200950914520774404082 264.50252785850358350 0.200950914520774404082 250.06224931548354107
0.252982212813464002465 327.76302854713964052 0.252982212813464002465 305.33852157958853013
0.318485736442809752589 404.75012943890817496 0.318485736442809752589 370.29604705356928207
0.400949786901833249431 497.73273780669683219 0.400949786901833249431 445.34445394018621300
0.504765875584169521062 608.99567221806285033 0.504765875584169521062 530.18125110029893676
0.635462587779443310865 740.62946982455241596 0.635462587779443310865 623.39055266070988637
0.800000000000011368684 894.21673561285672349 0.800000000000011368684 721.96941775326376955
1.007140329435344483500 1070.40509550037313602 1.007140329435344483500 820.86703675545322767
1.267914553968907398485 1268.38707706247782880 1.267914553968907398485 912.72314315698326936
1.596209851975117999245 1485.36539922453903273 1.596209851975117999245 988.10986394107885644
2.009509145207687197399 1716.16566409443316843 2.009509145207687197399 1036.62983698685775380
2.529822128134725289783 1953.23513149295035873 2.529822128134725289783 1049.05439922207824566
3.184857364427983839050 2187.26469796166429660 3.184857364427983839050 1020.18898446045091077
4.009497869018204596614 2408.51134132486004091 4.009497869018204596614 951.62137022930176045
5.009497869018190385759 2602.38642390824816175 5.009497869018190385759 856.05754123032397729
6.009497869018190385759 2742.57610443984094672 6.009497869018190385759 764.92980241291934362
7.009497869018204596614 2847.36818664139900648 7.009497869018204596614 685.03750879372830696
8.009497869018190385759 2928.09622667507528604 8.009497869018190385759 617.92520260557466827
9.009497869018204596614 2991.99340092459078733 9.009497869018204596614 563.28450989368366209
10.009497869018190385759 3043.80232261174069208 10.009497869018190385759 519.29045898844833573
11.009497869018190385759 3086.71690173254455658 11.009497869018190385759 482.11690112100927763
12.009497869018204596614 3122.93729308358979324 12.009497869018204596614 451.63261899792632903
13.009497869018190385759 3154.01405171291935403 13.009497869018190385759 426.55625805014659591
14.009497869018204596614 3181.06249496962527701 14.009497869018204596614 405.83384545365362328
15.009497869018190385759 3204.90028635543558266 15.009497869018190385759 388.61398346998419129
16.009497869018190385759 3226.13759130517746598 16.009497869018190385759 374.21679248641453341
17.009497869018204596614 3245.23734369753356077 17.009497869018204596614 362.42284915266833423
18.009497869018190385759 3262.55630100025018692 18.009497869018190385759 352.10904628581306497
19.009497869018204596614 3278.37414178704011647 19.009497869018204596614 343.73644110394587869
20.009497869018190385759 3292.91134265694654459 20.009497869018190385759 336.12855733905161060
21.009497869018190385759 3306.34511490862723804 21.009497869018190385759 329.56796191479924119
22.009497869018204596614 3318.82044581249101611 22.009497869018204596614 323.87212051389514045
23.009497869018190385759 3330.45473212615479497 23.009497869018190385759 319.05025131975116892
24.009497869018204596614 3341.34646133650403499 24.009497869018204596614 314.66028981614476834
25.009497869018204596614 3351.57774958676145616 25.009497869018204596614 310.78205079383172915
26.009497869018190385759 3361.21775856572912744 26.009497869018190385759 307.50349294105558329
27.009497869018204596614 3370.32584571758798120 27.009497869018204596614 304.40590032087635564
28.009497869018190385759 3378.95240698693760351 28.009497869018190385759 301.63004364878759134
29.009497869018190385759 3387.14142973917887502 29.009497869018190385759 299.20211469008478389
30.009497869018190385759 3394.93095386655204493 30.009497869018190385759 296.92836416820830436
31.009497869018218807469 3402.35418517878451894 31.009497869018218807469 294.86089594042999806
32.009497869018190385759 3409.44078927975306215 32.009497869018190385759 292.97537384731634802
33.009497869018190385759 3416.21627179181359679 33.009497869018190385759 291.31815960284717448
34.009497869018218807469 3422.70418972969173410 34.009497869018218807469 289.71807741360834143
35.009497869018190385759 3428.92482627723620681 35.009497869018190385759 288.28064829055210794
36.009497869018190385759 3434.89668744026130298 36.009497869018190385759 286.90923023382919155
37.009497869018190385759 3440.63668282670096232 37.009497869018190385759 285.63499145358269971
38.009497869018218807469 3446.15955028936014060 38.009497869018218807469 284.44863088225810088
39.009497869018190385759 3451.47905569171552997 39.009497869018190385759 283.36092695314738421
40.009497869018190385759 3456.60772210057939446 40.009497869018190385759 282.38188822074585005
41.009497869018218807469 3461.55668390222581365 41.009497869018218807469 281.37555082389650352
42.009497869018190385759 3466.33637908724949739 42.009497869018190385759 280.46899424312721294
43.009497869018190385759 3470.95643458156837369 43.009497869018190385759 279.57704263780487963
44.009497869018218807469 3475.42543572161685006 44.009497869018218807469 278.76633493574649947
46.009497869018190385759 3483.94211536930879447 46.009497869018190385759 277.26204002203081700
48.009497869018218807469 3491.94401716775200839 48.009497869018218807469 275.87563505835515798
50.009497869018190385759 3499.48065474908889882 50.009497869018190385759 274.63245449822574074
52.009497869018190385759 3506.59486990669847728 52.009497869018190385759 273.49032208509504471
54.009497869018218807469 3513.32415724401016632 54.009497869018218807469 272.42215107375579919
56.009497869018190385759 3519.70128550773324605 56.009497869018190385759 271.43468107802982558
58.009497869018218807469 3525.75528777329463992 58.009497869018218807469 270.55111335964829777
60.009497869018190385759 3531.51183316045580796 60.009497869018190385759 269.69173101591189834
62.009497869018190385759 3536.99379826242966374 62.009497869018190385759 268.88888976170079559
64.009497869018218807469 3542.22168347552178602 64.009497869018218807469 268.13595626641244962
66.009497869018190385759 3547.21380110695599797 66.009497869018190385759 267.43523535232208133
68.009497869018190385759 3551.98677016525334693 68.009497869018190385759 266.77996987947551588
70.009497869018190385759 3556.55549924240949622 70.009497869018190385759 266.14690643127283920
72.009497869018190385759 3560.93356672654999784 72.009497869018190385759 265.55338990877345395
74.009497869018218807469 3565.13333504204638302 74.009497869018218807469 264.98680999029789973
76.009497869018190385759 3569.16600924143085649 76.009497869018190385759 264.44787084166301838
78.009497869018190385759 3573.04188878206468871 78.009497869018190385759 263.93683967938534352
80.009497869018218807469 3576.77039658587727899 80.009497869018218807469 263.44726335007550233
82.009497869018190385759 3580.36015148939304709 82.009497869018190385759 262.97853509235613956
84.009497869018218807469 3583.81912877706281506 84.009497869018218807469 262.52598515815907376
86.009497869018190385759 3587.15467608489279883 86.009497869018190385759 262.09785502730562712
88.009497869018190385759 3590.37354817546884078 88.009497869018190385759 261.68232396235600845
91.009497869018218807469 3594.99670047306699416 91.009497869018218807469 261.09212748387011516
94.009497869018218807469 3599.39065041265666878 94.009497869018218807469 260.53416767988517222
97.009497869018218807469 3603.57263702185764487 97.009497869018218807469 260.01019765942379536
99.504748934509137825444 3606.90078097460718709 99.504748934509137825444 259.52039460065628873
nan nan nan nan

