Time Pressure difference Time.1 Pressure.1 difference.1
(hr) (psi) (hr) (psi)
0.000200000000020850166 0.65788981752653719 0.000200000000020850166 0.52437233330669852
0.000399999999999067768 1.31554565876207685 0.000399999999999067768 1.37322678380666985
0.000600000000019917934 1.97300420486121042 0.000600000000019917934 2.00947655083995569
0.000799999999998135536 2.63028111659894392 0.000799999999998135536 2.65740528420409916
0.001007140329434719206 3.31084441932368634 0.001007140329434719206 3.33779090321359417
0.001267914553977789183 4.16737460436293095 0.001267914553977789183 4.20068329622221182
0.001596209851982166583 5.24530517313105538 0.001596209851982166583 5.28630102412882863
0.002009509145224797066 6.60176596090319556 0.002009509145224797066 6.65194619002599463
0.002529822128153114136 8.30857587008404863 0.002529822128153114136 8.36956352954655181
0.003184857364431081805 10.45599145752421322 0.003184857364431081805 10.52942824764729757
0.004009497869034817086 13.15739689731638506 0.004009497869034817086 13.24473337734905165
0.005047658755856332391 16.55516341428202409 0.005047658755856332391 16.65727992993479845
0.006354625877790454069 20.82795695907602962 0.006354625877790454069 20.94450991949901919
0.008000000000009777068 26.19983221233254156 0.008000000000009777068 26.32816030754664283
0.010071403294361402914 32.95151884080956961 0.010071403294361402914 33.08485097591049851
0.012679145539692626699 41.43438089213027808 0.012679145539692626699 41.55894474328896138
0.015962098519750611558 52.08760873403326030 0.015962098519750611558 52.17801983022501133
0.020095091452091651263 65.45927780491186354 0.020095091452091651263 65.47125497921605586
0.025298221281360611101 82.23196660085700671 0.025298221281360611101 82.09091296212811528
0.031848573644296607199 103.25364565528265359 0.031848573644296607199 102.83687092063937030
0.040094978690191851456 129.57449391911762859 0.040094978690191851456 128.68371371724762753
0.050476587558435426217 162.49011293861843797 0.050476587558435426217 160.80917536735475437
0.063546258777947173257 203.59120805027018264 0.063546258777947173257 200.62154002937126052
0.080000000000012505552 254.81906636312390901 0.080000000000012505552 249.78180939189979881
0.100714032943542974863 318.52491126807245791 0.100714032943542974863 310.21377745827379613
0.126791455396883634421 397.52922299803844908 0.126791455396883634421 384.09137686513724930
0.159620985197506115583 495.17409791535368413 0.159620985197506115583 473.78755829080398598
0.200950914520774404082 615.35735157669512319 0.200950914520774404082 581.76246826043382043
0.252982212813464002465 762.53104582584546733 0.252982212813464002465 710.36108991016033087
0.318485736442809752589 941.63927172404817156 0.318485736442809752589 861.48286240992138119
0.400949786901833249431 1157.96057530910934474 0.400949786901833249431 1036.08077372555067086
0.504765875584169521062 1416.81051977790502860 0.504765875584169521062 1233.45108711863667850
0.635462587779443310865 1723.05267832712024756 0.635462587779443310865 1450.29978574888696130
0.800000000000011368684 2080.36893491108730814 0.800000000000011368684 1679.64061600832815202
1.007140329435344483500 2490.26597217880907920 1.007140329435344483500 1909.72301786342177365
1.267914553968907398485 2950.86522928358817808 1.267914553968907398485 2123.42354775639341824
1.596209851975117999245 3455.65891407826529758 1.596209851975117999245 2298.80853640409850414
2.009509145207687197399 3992.60894205498971132 2.009509145207687197399 2411.68882663707199754
2.529822128134725289783 4544.14408532624656800 2.529822128134725289783 2440.59420524901133831
3.184857364427983839050 5088.60698849316668202 3.184857364427983839050 2373.43966678887272792
4.009497869018204596614 5603.33079702342365636 4.009497869018204596614 2213.91912897464044363
5.009497869018190385759 6054.37547444536539842 5.009497869018190385759 1991.59269150937120685
6.009497869018190385759 6380.52264297621786682 6.009497869018190385759 1779.58668737829202655
7.009497869018204596614 6624.31834009807789698 7.009497869018204596614 1593.71961604658554279
8.009497869018190385759 6812.12975088230814436 8.009497869018190385759 1437.58480959120447551
9.009497869018204596614 6960.78464744515076745 9.009497869018204596614 1310.46484507618765747
10.009497869018190385759 7081.31657995849036524 10.009497869018190385759 1208.11397958783140894
11.009497869018190385759 7181.15608608953789371 11.009497869018190385759 1121.63079054917170652
12.009497869018204596614 7265.42176126211597875 12.009497869018204596614 1050.71000478635187392
13.009497869018190385759 7337.72092619093746180 13.009497869018190385759 992.37058858137049810
14.009497869018204596614 7400.64833388521674351 14.009497869018204596614 944.16050515835308943
15.009497869018190385759 7456.10625443279332103 15.009497869018190385759 904.09900271987498854
16.009497869018190385759 7505.51421977175141365 16.009497869018190385759 870.60436134339397540
17.009497869018204596614 7549.94923195514456893 17.009497869018204596614 843.16609905811958470
18.009497869018190385759 7590.24127673881775991 18.009497869018190385759 819.17134003552394006
19.009497869018204596614 7627.04101809867188422 19.009497869018204596614 799.69272033300353542
20.009497869018190385759 7660.86138835777819622 20.009497869018190385759 781.99320251526421544
21.009497869018190385759 7692.11466439036576048 21.009497869018190385759 766.73017021942996507
22.009497869018204596614 7721.13815481670644658 22.009497869018204596614 753.47896272497359860
23.009497869018190385759 7748.20497974055433588 23.009497869018190385759 742.26102586447996146
24.009497869018204596614 7773.54426740345479629 24.009497869018204596614 732.04790954285454063
25.009497869018204596614 7797.34705859743644396 25.009497869018204596614 723.02530052329677801
26.009497869018190385759 7819.77425595732893271 26.009497869018190385759 715.39783210698510629
27.009497869018204596614 7840.96395283121182729 27.009497869018204596614 708.19137398180350829
28.009497869018190385759 7861.03339390196379100 28.009497869018190385759 701.73342507703227966
29.009497869018190385759 7880.08491448144286551 29.009497869018190385759 696.08491976428547332
30.009497869018190385759 7898.20701326012658683 30.009497869018190385759 690.79510605015514102
31.009497869018218807469 7915.47694257770126569 31.009497869018218807469 685.98520202611791774
32.009497869018190385759 7931.96371858907241403 32.009497869018190385759 681.59859033302132048
33.009497869018190385759 7947.72667937448477460 33.009497869018190385759 677.74313013485914325
34.009497869018218807469 7962.82062963584121462 34.009497869018218807469 674.02058598283576885
35.009497869018190385759 7977.29275760380551219 35.009497869018190385759 670.67644940537275033
36.009497869018190385759 7991.18611695660729310 36.009497869018190385759 667.48588563223199799
37.009497869018190385759 8004.54004739976699057 37.009497869018190385759 664.52140658759969938
38.009497869018218807469 8017.38883611436358478 38.009497869018218807469 661.76137361137091375
39.009497869018190385759 8029.76450897690301645 39.009497869018190385759 659.23086241158705434
40.009497869018190385759 8041.69620053399466997 40.009497869018190385759 656.95315759591164806
41.009497869018218807469 8053.20981460782422801 41.009497869018218807469 654.61194324030043390
42.009497869018190385759 8064.32963487651340984 42.009497869018190385759 652.50286601856953439
43.009497869018190385759 8075.07805810006084357 43.009497869018190385759 650.42776684265788845
44.009497869018218807469 8085.47505781117433798 44.009497869018218807469 648.54167921816303988
46.009497869018190385759 8105.28886252095162490 46.009497869018190385759 645.04198134537182341
48.009497869018218807469 8123.90505170497544896 48.009497869018218807469 641.81655097399698207
50.009497869018190385759 8141.43881737214542227 50.009497869018190385759 638.92432796498985681
52.009497869018190385759 8157.98982969470034732 52.009497869018190385759 636.26719049797111438
54.009497869018218807469 8173.64531876474120509 54.009497869018218807469 633.78212205688487302
56.009497869018190385759 8188.48152010769535991 56.009497869018190385759 631.48480215506356217
58.009497869018218807469 8202.56597831963335921 58.009497869018218807469 629.42920784553461999
60.009497869018190385759 8215.95841185270728602 60.009497869018190385759 627.42988009878331468
62.009497869018190385759 8228.71204242818203056 62.009497869018190385759 625.56209353383917460
64.009497869018218807469 8240.87456361511067371 64.009497869018218807469 623.81041590215363613
66.009497869018190385759 8252.48857845765269303 66.009497869018190385759 622.18020930496106757
68.009497869018190385759 8263.59275059034007427 68.009497869018190385759 620.65575345489742176
70.009497869018190385759 8274.22176441395822621 70.009497869018190385759 619.18294996216707204
72.009497869018190385759 8284.40720964912179625 72.009497869018190385759 617.80215122894060187
74.009497869018218807469 8294.17784711252534180 74.009497869018218807469 616.48401971272244282
76.009497869018190385759 8303.55974502932986070 76.009497869018190385759 615.23019363457490272
78.009497869018190385759 8312.57686478415598685 78.009497869018190385759 614.04129466586414310
80.009497869018218807469 8321.25112852773236227 80.009497869018218807469 612.90230973502855250
82.009497869018190385759 8329.60258772973429586 82.009497869018190385759 611.81182722956975795
84.009497869018218807469 8337.64979665487226157 84.009497869018218807469 610.75898311795242535
86.009497869018190385759 8345.40984936220593227 86.009497869018190385759 609.76295096058447598
88.009497869018190385759 8352.89846060822310392 88.009497869018190385759 608.79623015948129705
91.009497869018218807469 8363.65408845351703349 91.009497869018218807469 607.42315541100379050
94.009497869018218807469 8373.87648375415119517 94.009497869018218807469 606.12507833761526399
97.009497869018218807469 8383.60575260085170157 97.009497869018218807469 604.90607749589480591
99.504748934509137825444 8391.34858162033560802 99.504748934509137825444 603.76656508564451542
nan nan nan nan

