Time Pressure difference Time.1 Pressure.1 difference.1
(hr) (psi) (hr) (psi)
0.000200000000020850166 0.65456294107886825 0.000200000000020850166 0.52172064009149399
0.000399999999999067768 1.30889308905910817 0.000399999999999067768 1.36628252699854502
0.000600000000019917934 1.96302693960274666 0.000600000000019917934 1.99931484893937461
0.000799999999998135536 2.61698007428997315 0.000799999999998135536 2.64396707796286501
0.001007140329434719206 3.29410184324619593 0.001007140329434719206 3.32091206173084519
0.001267914553977789183 4.14630064934718856 0.001267914553977789183 4.17944090281527281
0.001596209851982166583 5.21878024178778865 0.001596209851982166583 5.25956878127609073
0.002009509145224797066 6.56838155654970191 0.002009509145224797066 6.61830802977301857
0.002529822128153114136 8.26656031574733952 0.002529822128153114136 8.32723956732381154
0.003184857364431081805 10.40311665875038649 0.003184857364431081805 10.47618208710293786
0.004009497869034817086 13.09086138835397506 0.004009497869034817086 13.17775621741302672
0.005047658755856332391 16.47144577375468089 0.005047658755856332391 16.57304589741932332
0.006354625877790454069 20.72263227154593679 0.006354625877790454069 20.83859583646741598
0.008000000000009777068 26.06734254248509686 0.008000000000009777068 26.19502169663616442
0.010071403294361402914 32.78488663428208127 0.010071403294361402914 32.91754452344066806
0.012679145539692626699 41.22485178521685611 0.012679145539692626699 41.34878573068067453
0.015962098519750611558 51.82420742564371352 0.015962098519750611558 51.91416132286610008
0.020095091452091651263 65.12825743674542878 0.020095091452091651263 65.14017404379650600
0.025298221281360611101 81.81612859023320539 0.025298221281360611101 81.67578824424124662
0.031848573644296607199 102.73150332579956512 0.031848573644296607199 102.31683617514941886
0.040094978690191851456 128.91924995492487938 0.040094978690191851456 128.03297433056116006
0.050476587558435426217 161.66841830934600921 0.050476587558435426217 159.99598105449834406
0.063546258777947173257 202.56166970361900326 0.063546258777947173257 199.60701896727579197
0.080000000000012505552 253.53047437140139664 0.080000000000012505552 248.51869025464617380
0.100714032943542974863 316.91416582550323255 0.100714032943542974863 308.64506050526102854
0.126791455396883634421 395.51896144052625459 0.126791455396883634421 382.14906901752596013
0.159620985197506115583 492.67005696508641677 0.159620985197506115583 471.39166671916910900
0.200950914520774404082 612.24555713130087042 0.200950914520774404082 578.82055944495755284
0.252982212813464002465 758.67501019587905375 0.252982212813464002465 706.76887200922396914
0.318485736442809752589 936.87750549535519440 0.318485736442809752589 857.12643832693822787
0.400949786901833249431 1152.10489604079521087 0.400949786901833249431 1030.84142720860745612
0.504765875584169521062 1409.64586481063361134 0.504765875584169521062 1227.21366063510367894
0.635462587779443310865 1714.33939044683143038 0.635462587779443310865 1442.96577924699636242
0.800000000000011368684 2069.84873802152424105 0.800000000000011368684 1671.14685815240750344
1.007140329435344483500 2477.67297105527541135 1.007140329435344483500 1900.06575860747534534
1.267914553968907398485 2935.94302837697068753 1.267914553968907398485 2112.68562842513438227
1.596209851975117999245 3438.18402702856519682 1.596209851975117999245 2287.18371447537947461
2.009509145207687197399 3972.41875777152654337 2.009509145207687197399 2399.49318149604960126
2.529822128134725289783 4521.16484848515301564 2.529822128134725289783 2428.25238878757500061
3.184857364427983839050 5062.87446263479432673 3.184857364427983839050 2361.43744344227934562
4.009497869018204596614 5574.99536947842534573 4.009497869018204596614 2202.72358344253098039
5.009497869018190385759 6023.75916357585720107 5.009497869018190385759 1981.52142631842639275
6.009497869018190385759 6348.25704174751354003 6.009497869018190385759 1770.58751323225760643
7.009497869018204596614 6590.81989084347333119 7.009497869018204596614 1585.66035123724759615
8.009497869018190385759 6777.68155998024849396 8.009497869018190385759 1430.31510132525636436
9.009497869018204596614 6925.58472508133218071 9.009497869018204596614 1303.83796848920292177
10.009497869018190385759 7045.50714086894004140 10.009497869018190385759 1202.00468007032031892
11.009497869018190385759 7144.84176959856631584 11.009497869018190385759 1115.95882700657148234
12.009497869018204596614 7228.68132251995666593 12.009497869018204596614 1045.39667985696473806
13.009497869018190385759 7300.61487852372738416 13.009497869018190385759 987.35227966313357229
14.009497869018204596614 7363.22406923851576721 14.009497869018204596614 939.38598932948650599
15.009497869018190385759 7418.40154518155304686 15.009497869018190385759 899.52707350258117458
16.009497869018190385759 7467.55965987404306361 16.009497869018190385759 866.20181084355363055
17.009497869018204596614 7511.76996908811452158 17.009497869018204596614 838.90230083279413975
18.009497869018190385759 7551.85826143293252244 18.009497869018190385759 815.02888066745560991
19.009497869018204596614 7588.47191054823633749 19.009497869018204596614 795.64876220236897097
20.009497869018190385759 7622.12125491475489980 20.009497869018190385759 778.03874889951077876
21.009497869018190385759 7653.21648656791148824 21.009497869018190385759 762.85290007925584632
22.009497869018204596614 7682.09320839538395376 22.009497869018204596614 749.66870248363363771
23.009497869018190385759 7709.02315936260038143 23.009497869018190385759 738.50749349601233007
24.009497869018204596614 7734.23430903479038534 24.009497869018204596614 728.34602378031161152
25.009497869018204596614 7757.91673213171088719 25.009497869018204596614 719.36904110219290942
26.009497869018190385759 7780.23051762126033282 26.009497869018190385759 711.78014395473746845
27.009497869018204596614 7801.31306052865238598 27.009497869018204596614 704.61012809567557724
28.009497869018190385759 7821.28101264329416153 28.009497869018190385759 698.18483632822301388
29.009497869018190385759 7840.23619177863020013 29.009497869018190385759 692.56489488557861023
30.009497869018190385759 7858.26664909699047712 30.009497869018190385759 687.30183117758804201
31.009497869018218807469 7875.44924628148055490 31.009497869018218807469 682.51625030917170989
32.009497869018190385759 7891.85265047989832965 32.009497869018190385759 678.15182122893520500
33.009497869018190385759 7907.53589970634493511 33.009497869018190385759 674.31585766894329481
34.009497869018218807469 7922.55352152137584198 34.009497869018218807469 670.61213801326391604
35.009497869018190385759 7936.95246552995558886 35.009497869018190385759 667.28491236666025088
36.009497869018190385759 7950.77556769260445435 36.009497869018190385759 664.11048292359873813
37.009497869018190385759 7964.06196877827551361 37.009497869018190385759 661.16099492343994370
38.009497869018218807469 7976.84578258154760988 38.009497869018218807469 658.41491913040329109
39.009497869018190385759 7989.15887302758892474 39.009497869018190385759 655.89720444743238659
40.009497869018190385759 8001.03022733281250112 40.009497869018190385759 653.63101773449113807
41.009497869018218807469 8012.48561832662289817 41.009497869018218807469 651.30164264237214411
42.009497869018190385759 8023.54920688725087530 42.009497869018190385759 649.20323079217973827
43.009497869018190385759 8034.24327651674866502 43.009497869018190385759 647.13862516456595131
44.009497869018218807469 8044.58769974386086687 44.009497869018218807469 645.26207527774261052
46.009497869018190385759 8064.30130822248884215 46.009497869018190385759 641.78007499217142140
48.009497869018218807469 8082.82335738535584824 48.009497869018218807469 638.57095526742807579
50.009497869018190385759 8100.26845672803938214 50.009497869018190385759 635.69335791206958675
52.009497869018190385759 8116.73577240168106073 52.009497869018190385759 633.04965729697005372
54.009497869018218807469 8132.31209338540065801 54.009497869018218807469 630.57715557366429948
56.009497869018190385759 8147.07326968995766947 56.009497869018190385759 628.29145296591013903
58.009497869018218807469 8161.08650434583250899 58.009497869018218807469 626.24625357071533927
60.009497869018190385759 8174.41121381552602543 60.009497869018190385759 624.25703620447836784
62.009497869018190385759 8187.10035068391880486 62.009497869018190385759 622.39869483076040524
64.009497869018218807469 8199.20136733892832126 64.009497869018218807469 620.65587524019588272
66.009497869018190385759 8210.75665138580552593 66.009497869018190385759 619.03391241846316007
68.009497869018190385759 8221.80467094133564387 68.009497869018190385759 617.51716557396241569
70.009497869018190385759 8232.37993501110577199 70.009497869018190385759 616.05180988650499785
72.009497869018190385759 8242.51387356998384348 72.009497869018190385759 614.67799370060208730
74.009497869018218807469 8252.23510199438351265 74.009497869018218807469 613.36652783048361925
76.009497869018190385759 8261.56955668531190895 76.009497869018190385759 612.11904221290831174
78.009497869018190385759 8270.54107785730957403 78.009497869018190385759 610.93615537551841044
80.009497869018218807469 8279.17147680319249048 80.009497869018218807469 609.80293016620419166
82.009497869018190385759 8287.48070359456505685 82.009497869018190385759 608.71796211083608341
84.009497869018218807469 8295.48721866926098301 84.009497869018218807469 607.67044211609174909
86.009497869018190385759 8303.20802964355971199 86.009497869018190385759 606.67944678379274137
88.009497869018190385759 8310.65877180615825637 88.009497869018190385759 605.71761458345361007
91.009497869018218807469 8321.36000962442267337 91.009497869018218807469 604.35148332295818818
94.009497869018218807469 8331.53071139635540021 94.009497869018218807469 603.05997048255767368
97.009497869018218807469 8341.21078040059546765 97.009497869018218807469 601.84713399401914558
99.504748934509137825444 8348.91445478533933056 99.504748934509137825444 600.71338397269573761
nan nan nan nan

