Time Pressure difference Time.1 Pressure.1 difference.1
(hr) (psi) (hr) (psi)
0.000200000000020850166 0.40088861194410996 0.000200000000020850166 0.31952903243214753
0.000399999999999067768 0.80163464920773853 0.000399999999999067768 0.83678294537903264
0.000600000000019917934 1.20226046364488437 0.000600000000019917934 1.22448507902004877
0.000799999999998135536 1.60277559823096194 0.000799999999998135536 1.61930385206874328
0.001007140329434719206 2.01748041733756844 0.001007140329434719206 2.03390039867124184
0.001267914553977789183 2.53941157939688056 0.001267914553977789183 2.55970840553616430
0.001596209851982166583 3.19625422686367733 0.001596209851982166583 3.22123526375486113
0.002009509145224797066 4.02282072459587869 0.002009509145224797066 4.05339831048360200
0.002529822128153114136 5.06287429757333829 0.002529822128153114136 5.10003744783999746
0.003184857364431081805 6.37141325224610711 0.003184857364431081805 6.41616234559544552
0.004009497869034817086 8.01752882997028671 0.004009497869034817086 8.07074777229107987
0.005047658755856332391 10.08797568354479957 0.005047658755856332391 10.15020091811450342
0.006354625877790454069 12.69162484737629093 0.006354625877790454069 12.76264700530787266
0.008000000000009777068 15.96500521661730332 0.008000000000009777068 16.04320261471236719
0.010071403294361402914 20.07918088656158062 0.010071403294361402914 20.16042752261549964
0.012679145539692626699 25.24825738306801171 0.012679145539692626699 25.32416101929870678
0.015962098519750611558 31.73985766094062555 0.015962098519750611558 31.79495013674899795
0.020095091452091651263 39.88795436405501249 0.020095091452091651263 39.89525271805580076
0.025298221281360611101 50.10848028016823719 0.025298221281360611101 50.02252850536757478
0.031848573644296607199 62.91815070271333354 0.031848573644296607199 62.66418683154005009
0.040094978690191851456 78.95689768522719021 0.040094978690191851456 78.41409609571853423
0.050476587558435426217 99.01420282732500766 0.050476587558435426217 97.98991469919721453
0.063546258777947173257 124.05937077146677439 0.063546258777947173257 122.24978798249929923
0.080000000000012505552 155.27533500256095067 0.080000000000012505552 152.20585603905905714
0.100714032943542974863 194.09482582959662977 0.100714032943542974863 189.03039283803784087
0.126791455396883634421 242.23651768022065767 0.126791455396883634421 234.04809563716329990
0.159620985197506115583 301.73693450720668352 0.159620985197506115583 288.70493438200702485
0.200950914520774404082 374.97123066999625962 0.200950914520774404082 354.50001226489138162
0.252982212813464002465 464.65229341094499205 0.252982212813464002465 432.86225706282846204
0.318485736442809752589 573.79283055751113807 0.318485736442809752589 524.94910199947173624
0.400949786901833249431 705.60935183184665220 0.400949786901833249431 631.34125529167579316
0.504765875584169521062 863.34092355619486625 0.504765875584169521062 751.60989126571791985
0.635462587779443310865 1049.95118957480644895 0.635462587779443310865 883.74778347783001209
0.800000000000011368684 1267.68372519234389983 0.800000000000011368684 1023.49782163845031846
1.007140329435344483500 1517.45663538582311958 1.007140329435344483500 1163.69974034155416120
1.267914553968907398485 1798.12520924739510519 1.267914553968907398485 1293.91927941666449442
1.596209851975117999245 2105.72388948890557003 1.596209851975117999245 1400.79104241058826119
2.009509145207687197399 2432.91720615740223366 2.009509145207687197399 1469.57523949313349476
2.529822128134725289783 2768.99803935177124004 2.529822128134725289783 1487.18888360306368668
3.184857364427983839050 3100.76936593388927577 3.184857364427983839050 1446.26791326452166686
4.009497869018204596614 3414.41901917230143226 4.009497869018204596614 1349.06323661918668222
5.009497869018190385759 3689.26545977581099578 5.009497869018190385759 1213.58745550887078934
6.009497869018190385759 3888.00494805883317895 6.009497869018190385759 1084.40048459713852935
7.009497869018204596614 4036.56313517986518491 7.009497869018204596614 971.14140952522677708
8.009497869018190385759 4151.00700369819514890 8.009497869018190385759 875.99984604672636124
9.009497869018204596614 4241.59064484015561902 9.009497869018204596614 798.53862873163382119
10.009497869018190385759 4315.03741029076081759 10.009497869018190385759 736.17059186009441873
11.009497869018190385759 4375.87513716201920033 11.009497869018190385759 683.47160688331314304
12.009497869018204596614 4427.22286843026540737 12.009497869018204596614 640.25565399117783727
13.009497869018190385759 4471.27874389890348539 13.009497869018190385759 604.70622464756081627
14.009497869018204596614 4509.62388992752767081 14.009497869018204596614 575.32915737841494774
15.009497869018190385759 4543.41746477447122743 15.009497869018190385759 550.91747068391873654
16.009497869018190385759 4573.52446767381024983 16.009497869018190385759 530.50733523074063669
17.009497869018204596614 4600.60117547709160135 17.009497869018204596614 513.78768615172384671
18.009497869018190385759 4625.15334435917793598 18.009497869018190385759 499.16635385224094534
19.009497869018204596614 4647.57745982750930125 19.009497869018204596614 487.29695474147632694
20.009497869018190385759 4668.18607988425901567 20.009497869018190385759 476.51166069830264860
21.009497869018190385759 4687.23042760576026922 21.009497869018190385759 467.21105189098011579
22.009497869018204596614 4704.91604376947270794 22.009497869018204596614 459.13635908146306974
23.009497869018190385759 4721.40935554354837222 23.009497869018190385759 452.30065040035316315
24.009497869018204596614 4736.84998342410290206 24.009497869018204596614 446.07723438641704661
25.009497869018204596614 4751.35433912005555612 25.009497869018204596614 440.57926024302025780
26.009497869018190385759 4765.02046949612122262 26.009497869018190385759 435.93142234584939843
27.009497869018204596614 4777.93252245846360893 27.009497869018204596614 431.54012927841887404
28.009497869018190385759 4790.16194166971854429 28.009497869018190385759 427.60494423151646970
29.009497869018190385759 4801.77108568907078734 29.009497869018190385759 424.16299788417904892
30.009497869018190385759 4812.81388165787666367 30.009497869018190385759 420.93962214434230873
31.009497869018218807469 4823.33740369462975650 31.009497869018218807469 418.00868189202134317
32.009497869018190385759 4833.38370715541532263 32.009497869018190385759 415.33567704237208318
33.009497869018190385759 4842.98895001074743050 33.009497869018190385759 412.98633214285985105
34.009497869018218807469 4852.18652779326930613 34.009497869018218807469 410.71798033340940037
35.009497869018190385759 4861.00519489890484692 35.009497869018190385759 408.68021316484151839
36.009497869018190385759 4869.47118631237117370 36.009497869018190385759 406.73602639031076933
37.009497869018190385759 4877.60847388961792603 37.009497869018190385759 404.92960553125544720
38.009497869018218807469 4885.43795070432770444 38.009497869018218807469 403.24776495661291165
39.009497869018190385759 4892.97913189237351617 39.009497869018190385759 401.70578468063837363
40.009497869018190385759 4900.24977074258549692 40.009497869018190385759 400.31785330117497779
41.009497869018218807469 4907.26565188491986191 41.009497869018218807469 398.89122205034743729
42.009497869018190385759 4914.04157270604173391 42.009497869018190385759 397.60604477996270134
43.009497869018190385759 4920.59118078916435479 43.009497869018190385759 396.34157221006455529
44.009497869018218807469 4926.92664711123325105 44.009497869018218807469 395.19227482067589108
46.009497869018190385759 4939.00029296472621354 46.009497869018190385759 393.05971556064372407
48.009497869018218807469 4950.34416551428330422 48.009497869018218807469 391.09428264155059196
50.009497869018190385759 4961.02845761488424614 50.009497869018190385759 389.33189137689652171
52.009497869018190385759 4971.11390380890770757 52.009497869018190385759 387.71275072063474454
54.009497869018218807469 4980.65365821062550822 54.009497869018218807469 386.19846122808917244
56.009497869018190385759 4989.69417533743308013 56.009497869018190385759 384.79857729297168589
58.009497869018218807469 4998.27661384331804584 58.009497869018218807469 383.54599011573668577
60.009497869018190385759 5006.43736348041056772 60.009497869018190385759 382.32768926373393015
62.009497869018190385759 5014.20885518379782297 62.009497869018190385759 381.18954372099938155
64.009497869018218807469 5021.62015128000439290 64.009497869018218807469 380.12214976591405957
66.009497869018190385759 5028.69721215750814736 66.009497869018190385759 379.12877482299779786
68.009497869018190385759 5035.46359770485923946 68.009497869018190385759 378.19983965266823134
70.009497869018190385759 5041.94044304365070275 70.009497869018190385759 377.30237911727505207
72.009497869018190385759 5048.14699753587410669 72.009497869018190385759 376.46098216479060738
74.009497869018218807469 5054.10078673607677047 74.009497869018218807469 375.65777180977528360
76.009497869018190385759 5059.81769545402858057 76.009497869018190385759 374.89374631082819178
78.009497869018190385759 5065.31232468516282097 78.009497869018190385759 374.16928448665805718
80.009497869018218807469 5070.59803280703818018 80.009497869018218807469 373.47523804334235820
82.009497869018190385759 5075.68703828790421539 82.009497869018190385759 372.81074680739897076
84.009497869018218807469 5080.59064726630640507 84.009497869018218807469 372.16919072421370629
86.009497869018190385759 5085.31927609681861213 86.009497869018190385759 371.56225330341561630
88.009497869018190385759 5089.88250064875228418 88.009497869018190385759 370.97317691134003326
91.009497869018218807469 5096.43649890593678720 91.009497869018218807469 370.13648660948649649
94.009497869018218807469 5102.66556911441330158 94.009497869018218807469 369.34549653442547879
97.009497869018218807469 5108.59415013098623604 97.009497869018218807469 368.60269197600666757
99.504748934509137825444 5113.31228361694229534 99.504748934509137825444 367.90832411034216420
nan nan nan nan

