Time Pressure difference Time.1 Pressure.1 difference.1
(hr) (psi) (hr) (psi)
0.000200000000020850166 0.72609078470375099 0.000200000000020850166 0.57873204421839164
0.000399999999999067768 1.45192333767293724 0.000399999999999067768 1.51558404837322702
0.000600000000019917934 2.17753814265971757 0.000600000000019917934 2.21779143980187321
0.000799999999998135536 2.90295248393284178 0.000799999999998135536 2.93288851214940438
0.001007140329434719206 3.65406722891223490 0.001007140329434719206 3.68380715360994682
0.001267914553977789183 4.59939068218563651 0.001267914553977789183 4.63615236106446371
0.001596209851982166583 5.78906626566802984 0.001596209851982166583 5.83431200260994576
0.002009509145224797066 7.28614625014979733 0.002009509145224797066 7.34152847521200158
0.002529822128153114136 9.16989473398656685 0.002529822128153114136 9.23720475511269079
0.003184857364431081805 11.53992483238765843 0.003184857364431081805 11.62097453880669029
0.004009497869034817086 14.52137483104576887 0.004009497869034817086 14.61776515603757609
0.005047658755856332391 18.27137504509255095 0.005047658755856332391 18.38407759650199225
0.006354625877790454069 22.98711305344295042 0.006354625877790454069 23.11574862164682997
0.008000000000009777068 28.91587044420519703 0.008000000000009777068 29.05750183121140040
0.010071403294361402914 36.36747907462294194 0.010071403294361402914 36.51463325154217898
0.012679145539692626699 45.72972758385554926 0.012679145539692626699 45.86720450175886299
0.015962098519750611558 57.48733555601901202 0.015962098519750611558 57.58711923108272401
0.020095091452091651263 72.24519535232370515 0.020095091452091651263 72.25841415531682799
0.025298221281360611101 90.75664581864495517 0.025298221281360611101 90.60096967880890872
0.031848573644296607199 113.95756340968617337 0.031848573644296607199 113.49758320318353810
0.040094978690191851456 143.00699518506917229 0.040094978690191851456 142.02387114432008275
0.050476587558435426217 179.33485283870277271 0.050476587558435426217 177.47965878091113723
0.063546258777947173257 224.69674415661930311 0.063546258777947173257 221.41922180232754158
0.080000000000012505552 281.23520219343510007 0.080000000000012505552 275.67575170559865683
0.100714032943542974863 351.54519284074245888 0.100714032943542974863 342.37247499503536119
0.126791455396883634421 438.73958492703866341 0.126791455396883634421 423.90868774116916029
0.159620985197506115583 546.50693739583277875 0.159620985197506115583 522.90333550931973150
0.200950914520774404082 679.14913770727537212 0.200950914520774404082 642.07159897769759027
0.252982212813464002465 841.57977624015563833 0.252982212813464002465 784.00155687935534843
0.318485736442809752589 1039.25547941225545401 0.318485736442809752589 950.78955611107630830
0.400949786901833249431 1278.00200030954806607 0.400949786901833249431 1143.48737732288986990
0.504765875584169521062 1563.68594660696703613 0.504765875584169521062 1361.31833003106157776
0.635462587779443310865 1901.67507987304156813 0.635462587779443310865 1600.64691903764628478
0.800000000000011368684 2296.03297114712904659 0.800000000000011368684 1853.76265205470372166
1.007140329435344483500 2748.42249521125222600 1.007140329435344483500 2107.69683261032514565
1.267914553968907398485 3256.77034786924423315 1.267914553968907398485 2343.55089404719547019
1.596209851975117999245 3813.89409859712532125 1.596209851975117999245 2537.11738594282905979
2.009509145207687197399 4406.50771986600011587 2.009509145207687197399 2661.69955202801975247
2.529822128134725289783 5015.21844056866484607 2.529822128134725289783 2693.60144270845376013
3.184857364427983839050 5616.12376858980314864 3.184857364427983839050 2619.48524539404024836
4.009497869018204596614 6184.20706169589084311 4.009497869018204596614 2443.42781238288353052
5.009497869018190385759 6682.00984727029663190 5.009497869018190385759 2198.05362792374353376
6.009497869018190385759 7041.96746816465019947 6.009497869018190385759 1964.06975737199604737
7.009497869018204596614 7311.03654981747422426 7.009497869018204596614 1758.93454463801413112
8.009497869018190385759 7518.31766437453188701 8.009497869018190385759 1586.61382904313722975
9.009497869018204596614 7682.38305590343497897 9.009497869018204596614 1446.31581510937007806
10.009497869018190385759 7815.41008129426154483 10.009497869018190385759 1333.35461969681000483
11.009497869018190385759 7925.59957415444478102 11.009497869018190385759 1237.90604317247402832
12.009497869018204596614 8018.60075547639280558 12.009497869018204596614 1159.63316583879327482
13.009497869018190385759 8098.39490336875951471 13.009497869018190385759 1095.24592140522963746
14.009497869018204596614 8167.84575914259767160 14.009497869018204596614 1042.03807965011651504
15.009497869018190385759 8229.05279408322167001 15.009497869018190385759 997.82355167440061905
16.009497869018190385759 8283.58269767476485868 16.009497869018190385759 960.85664659011740696
17.009497869018204596614 8332.62412072925508255 17.009497869018204596614 930.57396267729245665
18.009497869018190385759 8377.09309050946649222 18.009497869018190385759 904.09175708092595869
19.009497869018204596614 8417.70772288260559435 19.009497869018204596614 882.59386201101403913
20.009497869018190385759 8455.03412393974758743 20.009497869018190385759 863.05950163821205479
21.009497869018190385759 8489.52730975068152475 21.009497869018190385759 846.21420809299922894
22.009497869018204596614 8521.55955645383801311 22.009497869018204596614 831.58929767244239883
23.009497869018190385759 8551.43229748862540873 23.009497869018190385759 819.20843941806697330
24.009497869018204596614 8579.39841396108204208 24.009497869018204596614 807.93656767498350746
25.009497869018204596614 8605.66875114483082143 25.009497869018204596614 797.97861865592676622
26.009497869018190385759 8630.42089184671021940 26.009497869018190385759 789.56043922806327373
27.009497869018204596614 8653.80724503368946898 27.009497869018204596614 781.60691464742660628
28.009497869018190385759 8675.95720970469665190 28.009497869018190385759 774.47949442762217132
29.009497869018190385759 8696.98372988912706205 29.009497869018190385759 768.24542977777650776
30.009497869018190385759 8716.98447860441228841 30.009497869018190385759 762.40724093778180759
31.009497869018218807469 8736.04471665023265814 31.009497869018218807469 757.09871222351580400
32.009497869018190385759 8754.24061482713113946 32.009497869018190385759 752.25735696678589193
33.009497869018190385759 8771.63766257133465842 33.009497869018190385759 748.00221568613415002
34.009497869018218807469 8788.29634598241500498 34.009497869018218807469 743.89376935905909249
35.009497869018190385759 8804.26874511772621190 35.009497869018190385759 740.20295869897643115
36.009497869018190385759 8819.60237686867003504 36.009497869018190385759 736.68164115921433677
37.009497869018190385759 8834.34065914032362343 37.009497869018190385759 733.40984570287560018
38.009497869018218807469 8848.52143353709288931 38.009497869018218807469 730.36369047120967934
39.009497869018190385759 8862.18004593784644385 39.009497869018190385759 727.57085067675791379
40.009497869018190385759 8875.34865115825232351 40.009497869018190385759 725.05702475503278492
41.009497869018218807469 8888.05583837248013879 41.009497869018218807469 722.47310549782832823
42.009497869018190385759 8900.32840865637990646 42.009497869018190385759 720.14538815955893369
43.009497869018190385759 8912.19108055796823464 43.009497869018190385759 717.85517124354021234
44.009497869018218807469 8923.66589819109321979 44.009497869018218807469 715.77355999678434273
46.009497869018190385759 8945.53372563943048590 46.009497869018190385759 711.91106158597926878
48.009497869018218807469 8966.07978525719772733 48.009497869018218807469 708.35126295865904922
50.009497869018190385759 8985.43121057633834425 50.009497869018190385759 705.15921404985613208
52.009497869018190385759 9003.69800420160936483 52.009497869018190385759 702.22662111849399480
54.009497869018218807469 9020.97643904123651737 54.009497869018218807469 699.48393496290839266
56.009497869018190385759 9037.35065367132665415 56.009497869018190385759 696.94846053270600805
58.009497869018218807469 9052.89519478260626784 58.009497869018218807469 694.67977047933220547
60.009497869018190385759 9067.67597161493540625 60.009497869018190385759 692.47317993203262176
62.009497869018190385759 9081.75172318559270934 62.009497869018190385759 690.41176694695525384
64.009497869018218807469 9095.17508727685526537 64.009497869018218807469 688.47849947228837664
66.009497869018190385759 9107.99308343050688563 66.009497869018190385759 686.67929547816811464
68.009497869018190385759 9120.24838339490088401 68.009497869018190385759 684.99680501406498934
70.009497869018190385759 9131.97926717242262384 70.009497869018190385759 683.37132151323874041
72.009497869018190385759 9143.22059927140617219 72.009497869018190385759 681.84738055988009364
74.009497869018218807469 9154.00412203443011094 74.009497869018218807469 680.39260329861781429
76.009497869018190385759 9164.35860608167240571 76.009497869018190385759 679.00879777874069987
78.009497869018190385759 9174.31049678453564411 78.009497869018190385759 677.69665011795120790
80.009497869018218807469 9183.88398888079609605 80.009497869018218807469 676.43959089592920009
82.009497869018190385759 9193.10121250070551469 82.009497869018190385759 675.23606216360860799
84.009497869018218807469 9201.98264535992893798 84.009497869018218807469 674.07407365609662975
86.009497869018190385759 9210.54715359444526257 86.009497869018190385759 672.97478658481702496
88.009497869018190385759 9218.81208105054247426 88.009497869018190385759 671.90784946804944866
91.009497869018218807469 9230.68270444996232982 91.009497869018218807469 670.39243321593710334
94.009497869018218807469 9241.96481708896862983 94.009497869018218807469 668.95978936629342115
97.009497869018218807469 9252.70268270612359629 97.009497869018218807469 667.61441928434408055
99.504748934509137825444 9261.24818173774110619 99.504748934509137825444 666.35677790109696161
nan nan nan nan

