Time Pressure difference Time.1 Pressure.1 difference.1
(hr) (psi) (hr) (psi)
0.000200000000020850166 0.48655568047158576 0.000200000000020850166 0.38781013272366449
0.000399999999999067768 0.97293831905918460 0.000399999999999067768 1.01559755818824504
0.000600000000019917934 1.45917504405032616 0.000600000000019917934 1.48614890296001789
0.000799999999998135536 1.94527743768695571 0.000799999999998135536 1.96533766278052879
0.001007140329434719206 2.44860175133294078 0.001007140329434719206 2.46853056685202610
0.001267914553977789183 3.08206592105223054 0.001267914553977789183 3.10670003576484710
0.001596209851982166583 3.87927120895280364 0.001596209851982166583 3.90959051721285045
0.002009509145224797066 4.88246913669831706 0.002009509145224797066 4.91958093699773258
0.002529822128153114136 6.14477482174357537 0.002529822128153114136 6.18987947507551528
0.003184857364431081805 7.73293932067214218 0.003184857364431081805 7.78725097961272894
0.004009497869034817086 9.73081818575231949 0.004009497869034817086 9.79540964064373654
0.005047658755856332391 12.24370492712387559 0.005047658755856332391 12.31922725538793451
0.006354625877790454069 15.40373555127620442 0.006354625877790454069 15.48993464337158699
0.008000000000009777068 19.37661421518905058 0.008000000000009777068 19.47152184565712219
0.010071403294361402914 24.36996020464424362 0.010071403294361402914 24.46856867371383615
0.012679145539692626699 30.64363188608876953 0.012679145539692626699 30.73575559396212498
0.015962098519750611558 38.52244135197150143 0.015962098519750611558 38.58930670124100004
0.020095091452091651263 48.41172884434062951 0.020095091452091651263 48.42058680510922386
0.025298221281360611101 60.81630905373116036 0.025298221281360611101 60.71198999095442161
0.031848573644296607199 76.36331568690310689 0.031848573644296607199 76.05508152790649490
0.040094978690191851456 95.82942976319066020 0.040094978690191851456 95.17063530289489393
0.050476587558435426217 120.17283953108947969 0.050476587558435426217 118.92966825524972307
0.063546258777947173257 150.56998319773458661 0.063546258777947173257 148.37370533145661966
0.080000000000012505552 188.45657878941528907 0.080000000000012505552 184.73117382333930436
0.100714032943542974863 235.57152097575524863 0.100714032943542974863 229.42485437811649263
0.126791455396883634421 294.00075278615992147 0.126791455396883634421 284.06252271315463531
0.159620985197506115583 366.21598897658901706 0.159620985197506115583 350.39914235160597400
0.200950914520774404082 455.09993763889588081 0.200950914520774404082 430.25416426340558473
0.252982212813464002465 563.94521088257852170 0.252982212813464002465 525.36186801193900919
0.318485736442809752589 696.40831094635677800 0.318485736442809752589 637.12702213628824666
0.400949786901833249431 856.39309299093417849 0.400949786901833249431 766.25442810296749485
0.504765875584169521062 1047.83078896343158704 0.504765875584169521062 912.22362321669083940
0.635462587779443310865 1274.31835249224445761 0.635462587779443310865 1072.59845090151566183
0.800000000000011368684 1538.57879509859162681 0.800000000000011368684 1242.21208642840952052
1.007140329435344483500 1841.72641431681836366 1.007140329435344483500 1412.37416618217685027
1.267914553968907398485 2182.37188259279264457 1.267914553968907398485 1570.42070219657421148
1.596209851975117999245 2555.70223101869169113 1.596209851975117999245 1700.13020707509144813
2.009509145207687197399 2952.81445145659790796 2.009509145207687197399 1783.61310187444610165
2.529822128134725289783 3360.71338800992953111 2.529822128134725289783 1804.99065748504631301
3.184857364427983839050 3763.38190678698128977 3.184857364427983839050 1755.32516443930535388
4.009497869018204596614 4144.05627845600884029 4.009497869018204596614 1637.34853407100467848
5.009497869018190385759 4477.63546466566276649 5.009497869018190385759 1472.92253417570441343
6.009497869018190385759 4718.84417969796140824 6.009497869018190385759 1316.12921885752302842
7.009497869018204596614 4899.14820348593639210 7.009497869018204596614 1178.66747836567969898
8.009497869018190385759 5038.04791942623251089 8.009497869018190385759 1063.19483389488596004
9.009497869018204596614 5147.98864570848672884 9.009497869018204596614 969.18070084648513784
10.009497869018190385759 5237.13046684667096997 10.009497869018190385759 893.48505443600674880
11.009497869018190385759 5310.96878680452573462 11.009497869018190385759 829.52466810526595964
12.009497869018204596614 5373.28916604088226450 12.009497869018204596614 777.07377092290266773
13.009497869018190385759 5426.75947132958117436 13.009497869018190385759 733.92767929216415723
14.009497869018204596614 5473.29870458009099821 14.009497869018204596614 698.27293997172762374
15.009497869018190385759 5514.31372799391192530 15.009497869018190385759 668.64464802923748721
16.009497869018190385759 5550.85438503979094094 16.009497869018190385759 643.87301060162496924
17.009497869018204596614 5583.71719430310895405 17.009497869018204596614 623.58049045385575937
18.009497869018190385759 5613.51598848572484712 18.009497869018190385759 605.83468258000186779
19.009497869018204596614 5640.73197925123076857 19.009497869018204596614 591.42887660531869187
20.009497869018190385759 5665.74451604209934885 20.009497869018190385759 578.33884130395654211
21.009497869018190385759 5688.85850653396209964 21.009497869018190385759 567.05075800046336099
22.009497869018204596614 5710.32341411855122715 22.009497869018204596614 557.25056029596657936
23.009497869018190385759 5730.34123027588339028 23.009497869018190385759 548.95410888839535346
24.009497869018204596614 5749.08141141721989698 24.009497869018204596614 541.40079277189613549
25.009497869018204596614 5766.68524561251615523 25.009497869018204596614 534.72794033644572664
26.009497869018190385759 5783.27173164985742915 26.009497869018190385759 529.08689226622800561
27.009497869018204596614 5798.94299924937968171 27.009497869018204596614 523.75721084621375212
28.009497869018190385759 5813.78575908046695986 28.009497869018190385759 518.98110451335503512
29.009497869018190385759 5827.87569528652875306 29.009497869018190385759 514.80363851088111460
30.009497869018190385759 5841.27825885862603172 30.009497869018190385759 510.89145011294664300
31.009497869018218807469 5854.05058332232056273 31.009497869018218807469 507.33418860338690592
32.009497869018190385759 5866.24371096663435310 32.009497869018190385759 504.08998147258847666
33.009497869018190385759 5877.90152646532624203 33.009497869018190385759 501.23859814019300529
34.009497869018218807469 5889.06456174079357879 34.009497869018218807469 498.48551554988489443
35.009497869018190385759 5899.76771580053900834 35.009497869018190385759 496.01229191168528132
36.009497869018190385759 5910.04282986044927384 36.009497869018190385759 493.65264613761792134
37.009497869018190385759 5919.91899839300094754 37.009497869018190385759 491.46020588337023582
38.009497869018218807469 5929.42157917433996772 38.009497869018218807469 489.41896784153220779
39.009497869018190385759 5938.57425758721637976 39.009497869018190385759 487.54747725762126720
40.009497869018190385759 5947.39858067305613076 40.009497869018190385759 485.86295473275390577
41.009497869018218807469 5955.91370612588889344 41.009497869018218807469 484.13146244699839826
42.009497869018190385759 5964.13759342953198939 42.009497869018190385759 482.57165185949833131
43.009497869018190385759 5972.08680655946318439 43.009497869018190385759 481.03697042092903757
44.009497869018218807469 5979.77611734454694670 44.009497869018218807469 479.64207628650495963
46.009497869018190385759 5994.42981615013468399 46.009497869018190385759 477.05380415555305262
48.009497869018218807469 6008.19779424451462546 48.009497869018218807469 474.66837208569933182
50.009497869018190385759 6021.16524420063888101 50.009497869018190385759 472.52937023959430007
52.009497869018190385759 6033.40587910417161766 52.009497869018190385759 470.56423064641359133
54.009497869018218807469 6044.98421172866437701 54.009497869018218807469 468.72634817102107263
56.009497869018190385759 6055.95662359418747656 56.009497869018190385759 467.02731891366897798
58.009497869018218807469 6066.37306866875587730 58.009497869018218807469 465.50706269233603507
60.009497869018190385759 6076.27771293784280715 60.009497869018190385759 464.02841954208366815
62.009497869018190385759 6085.70991759859225567 62.009497869018190385759 462.64706032527931256
64.009497869018218807469 6094.70495539170678967 64.009497869018218807469 461.35157181132723281
66.009497869018190385759 6103.29433425755632925 66.009497869018190385759 460.14591965031883092
68.009497869018190385759 6111.50664866668557806 68.009497869018190385759 459.01847758674466604
70.009497869018190385759 6119.36755016708684707 70.009497869018190385759 457.92923606557235416
72.009497869018190385759 6126.90040157362273021 72.009497869018190385759 456.90803851950732906
74.009497869018218807469 6134.12647352822659741 74.009497869018218807469 455.93318777742433667
76.009497869018190385759 6141.06504531246173428 76.009497869018190385759 455.00589541874381894
78.009497869018190385759 6147.73383805149387626 78.009497869018190385759 454.12662121306010476
80.009497869018218807469 6154.14906471393533138 80.009497869018218807469 453.28426194057107068
82.009497869018190385759 6160.32555476851393905 82.009497869018190385759 452.47777361478927105
84.009497869018218807469 6166.27703039582866040 84.009497869018218807469 451.69912152212657475
86.009497869018190385759 6172.01613385194741568 86.009497869018190385759 450.96248585580525514
88.009497869018190385759 6177.55448730190983042 88.009497869018190385759 450.24752799405382575
91.009497869018218807469 6185.50902875513020263 91.009497869018218807469 449.23204287665890888
94.009497869018218807469 6193.06920732765956927 94.009497869018218807469 448.27202380215533140
97.009497869018218807469 6200.26468428760745155 97.009497869018218807469 447.37048714930267579
99.504748934509137825444 6205.99104961807370273 99.504748934509137825444 446.52773776877631917
nan nan nan nan

