Time Pressure difference Time.1 Pressure.1 difference.1
(hr) (psi) (hr) (psi)
0.000200000000020850166 0.75520095362085438 0.000200000000020850166 0.60193435985143140
0.000399999999999067768 1.51013332257391397 0.000399999999999067768 1.57634629544431859
0.000600000000019917934 2.26483921367127605 0.000600000000019917934 2.30670633143195980
0.000799999999998135536 3.01933660413633520 0.000799999999998135536 3.05047281676020487
0.001007140329434719206 3.80056476959027378 0.001007140329434719206 3.83149701658399966
0.001267914553977789183 4.78378778857337661 0.001267914553977789183 4.82202330337518070
0.001596209851982166583 6.02115941492161610 0.001596209851982166583 6.06821912757139881
0.002009509145224797066 7.57825978824285862 0.002009509145224797066 7.63586237742554097
0.002529822128153114136 9.53753083443276317 0.002529822128153114136 9.60753942456165433
0.003184857364431081805 12.00257932165864005 0.003184857364431081805 12.08687844356984442
0.004009497869034817086 15.10356053446684754 0.004009497869034817086 15.20381530547780002
0.005047658755856332391 19.00390439970679779 0.005047658755856332391 19.12112538101238357
0.006354625877790454069 23.90870406933127157 0.006354625877790454069 24.04249684817333232
0.008000000000009777068 30.07515505537035239 0.008000000000009777068 30.22246467667806868
0.010071403294361402914 37.82551088173840981 0.010071403294361402914 37.97856471065326645
0.012679145539692626699 47.56310726934803768 0.012679145539692626699 47.70609586208138353
0.015962098519750611558 59.79209700442756059 0.015962098519750611558 59.89588117047321703
0.020095091452091651263 75.14162357377998092 0.020095091452091651263 75.15537234023790347
0.025298221281360611101 94.39522841160324163 0.025298221281360611101 94.23331096031900245
0.031848573644296607199 118.52630879266328634 0.031848573644296607199 118.04788722622068065
0.040094978690191851456 148.74037987175577769 0.040094978690191851456 147.71784077782660916
0.050476587558435426217 186.52468084483632538 0.050476587558435426217 184.59510901840471320
0.063546258777947173257 233.70520468981709428 0.063546258777947173257 230.29628109566255034
0.080000000000012505552 292.51038212100695546 0.080000000000012505552 286.72804415656770516
0.100714032943542974863 365.63921546322353606 0.100714032943542974863 356.09874833389704918
0.126791455396883634421 456.32937355527042200 0.126791455396883634421 440.90388140776821047
0.159620985197506115583 568.41729571067151028 0.159620985197506115583 543.86738676112520352
0.200950914520774404082 706.37733910447423114 0.200950914520774404082 667.81330111311501696
0.252982212813464002465 875.32008800236121715 0.252982212813464002465 815.43346351254820092
0.318485736442809752589 1080.92093391331968633 0.318485736442809752589 988.90826683717898504
0.400949786901833249431 1329.23919390729633960 0.400949786901833249431 1189.33165934614430626
0.504765875584169521062 1626.37667757059125506 0.504765875584169521062 1415.89581176197475543
0.635462587779443310865 1977.91634882556923003 0.635462587779443310865 1664.81947592919004819
0.800000000000011368684 2388.08469393080576992 0.800000000000011368684 1928.08303329401019255
1.007140329435344483500 2858.61125504217307025 1.007140329435344483500 2192.19785109985741656
1.267914553968907398485 3387.33960580214670699 1.267914553968907398485 2437.50768819570794221
1.596209851975117999245 3966.79936028200427245 1.596209851975117999245 2638.83457781911647544
2.009509145207687197399 4583.17183234631011146 2.009509145207687197399 2768.41144701196117239
2.529822128134725289783 5216.28676292823274707 2.529822128134725289783 2801.59233674602000974
3.184857364427983839050 5841.28336985056284902 3.184857364427983839050 2724.50469967673370775
4.009497869018204596614 6432.14205271462560631 4.009497869018204596614 2541.38883578884133385
5.009497869018190385759 6949.90256737849904312 5.009497869018190385759 2286.17719834451236238
6.009497869018190385759 7324.29147891581033036 6.009497869018190385759 2042.81253114979654129
7.009497869018204596614 7604.14798079526553920 7.009497869018204596614 1829.45311171972139164
8.009497869018190385759 7819.73933476755519223 8.009497869018190385759 1650.22377637018166752
9.009497869018204596614 7990.38237658684738562 9.009497869018204596614 1504.30098524548452588
10.009497869018190385759 8128.74267332782346784 10.009497869018190385759 1386.81099047503289512
11.009497869018190385759 8243.34984345044176735 11.009497869018190385759 1287.53572417022496666
12.009497869018204596614 8340.07959447029315925 12.009497869018204596614 1206.12475897093258936
13.009497869018190385759 8423.07282045685315097 13.009497869018190385759 1139.15612443980353419
14.009497869018204596614 8495.30807480123439746 14.009497869018204596614 1083.81509315269863691
15.009497869018190385759 8558.96900003157679748 15.009497869018190385759 1037.82793232572248598
16.009497869018190385759 8615.68509677971087513 16.009497869018190385759 999.37896346371894651
17.009497869018204596614 8666.69267081576617784 17.009497869018204596614 967.88219714889078205
18.009497869018190385759 8712.94447443596254743 18.009497869018190385759 940.33827655152424541
19.009497869018204596614 8755.18741394891731034 19.009497869018204596614 917.97849565406727379
20.009497869018190385759 8794.01029156619733840 20.009497869018190385759 897.66097077605559207
21.009497869018190385759 8829.88636569715890801 21.009497869018190385759 880.14032181952268274
22.009497869018204596614 8863.20283764041596442 22.009497869018204596614 864.92907478416691447
23.009497869018190385759 8894.27322579573046823 23.009497869018190385759 852.05184764215903215
24.009497869018204596614 8923.36054968689859379 24.009497869018204596614 840.32806809723365404
25.009497869018204596614 8950.68410771993876551 25.009497869018204596614 829.97088859058590060
26.009497869018190385759 8976.42860228729841765 26.009497869018190385759 821.21521056023084384
27.009497869018204596614 9000.75255268108776363 27.009497869018204596614 812.94281615104625871
28.009497869018190385759 9023.79054571805863816 28.009497869018190385759 805.52964597970321847
29.009497869018190385759 9045.66005353874788852 29.009497869018190385759 799.04564746646178719
30.009497869018190385759 9066.46266503184961039 30.009497869018190385759 792.97339607274443551
31.009497869018218807469 9086.28705924216592393 31.009497869018218807469 787.45203974679532166
32.009497869018190385759 9105.21246078239892086 32.009497869018190385759 782.41658662753900444
33.009497869018190385759 9123.30698466754984111 33.009497869018190385759 777.99084976289782389
34.009497869018218807469 9140.63354198400156747 34.009497869018218807469 773.71768909281274773
35.009497869018190385759 9157.24630076391258626 35.009497869018190385759 769.87890778770974975
36.009497869018190385759 9173.19468292869714787 36.009497869018190385759 766.21641485975567321
37.009497869018190385759 9188.52384707836608868 37.009497869018190385759 762.81344776427374654
38.009497869018218807469 9203.27315194923176023 38.009497869018218807469 759.64516717967740078
39.009497869018190385759 9217.47936049434611050 39.009497869018190385759 756.74035786311128504
40.009497869018190385759 9231.17591666860607802 40.009497869018190385759 754.12574854246247469
41.009497869018218807469 9244.39255583300291619 41.009497869018218807469 751.43823572970006808
42.009497869018190385759 9257.15715356242071721 42.009497869018190385759 749.01719639046916654
43.009497869018190385759 9269.49541941195275285 43.009497869018190385759 746.63516092684358227
44.009497869018218807469 9281.43028128008336353 44.009497869018218807469 744.47009447546406591
46.009497869018190385759 9304.17482575097710651 46.009497869018190385759 740.45274217648238846
48.009497869018218807469 9325.54461055387764645 48.009497869018218807469 736.75022539113672337
50.009497869018190385759 9345.67186621227301657 50.009497869018190385759 733.43020201290880777
52.009497869018190385759 9364.67100551553448895 52.009497869018190385759 730.38003662725384402
54.009497869018218807469 9382.64216111047426239 54.009497869018218807469 727.52739169108906481
56.009497869018190385759 9399.67284482653303712 56.009497869018190385759 724.89026593779738050
58.009497869018218807469 9415.84059205338598986 58.009497869018218807469 722.53062038400196343
60.009497869018190385759 9431.21395444027621124 60.009497869018190385759 720.23556400720008241
62.009497869018190385759 9445.85402594790139119 62.009497869018190385759 718.09150559889508258
64.009497869018218807469 9459.81555469345221354 64.009497869018218807469 716.08073026441911679
66.009497869018190385759 9473.14744530916323129 66.009497869018190385759 714.20939323502477691
68.009497869018190385759 9485.89408032367828127 68.009497869018190385759 712.45944897224637771
70.009497869018190385759 9498.09527444737614132 70.009497869018190385759 710.76879717528163383
72.009497869018190385759 9509.78728996384597849 72.009497869018190385759 709.18375893284212452
74.009497869018218807469 9521.00314181817157078 74.009497869018218807469 707.67065726820726468
76.009497869018190385759 9531.77275409182038857 76.009497869018190385759 706.23137271832376882
78.009497869018190385759 9542.12363239445585350 78.009497869018190385759 704.86661890847619816
80.009497869018218807469 9552.08094147051997425 80.009497869018218807469 703.55916212314275526
82.009497869018190385759 9561.66769868343726557 82.009497869018190385759 702.30738195252763489
84.009497869018218807469 9570.90520273403853935 84.009497869018218807469 701.09880742237771756
86.009497869018190385759 9579.81307613259559730 86.009497869018190385759 699.95544813174547016
88.009497869018190385759 9588.40935806860397861 88.009497869018190385759 698.84573575829199399
91.009497869018218807469 9600.75589420454343781 91.009497869018218807469 697.26956398633546996
94.009497869018218807469 9612.49032521968365472 94.009497869018218807469 695.77948309804628479
97.009497869018218807469 9623.65868945837246429 97.009497869018218807469 694.38017492575534106
99.504748934509137825444 9632.54679154394943907 99.504748934509137825444 693.07211263939984747
nan nan nan nan

