Time Pressure difference Time.1 Pressure.1 difference.1
(hr) (psi) (hr) (psi)
0.000200000000020850166 0.84419489859599905 0.000200000000020850166 0.67286715335815295
0.000399999999999067768 1.68808956212832895 0.000399999999999067768 1.76210516506165593
0.000600000000019917934 2.53173105933518183 0.000600000000019917934 2.57853185727250933
0.000799999999998135536 3.37513948590129953 0.000799999999998135536 3.40994483371322454
0.001007140329434719206 4.24842867966313698 0.001007140329434719206 4.28300602624753246
0.001267914553977789183 5.34751608524446898 0.001267914553977789183 5.39025732701080251
0.001596209851982166583 6.73070132835400869 0.001596209851982166583 6.78330662388212424
0.002009509145224797066 8.47129260469879064 0.002009509145224797066 8.53568316419264761
0.002529822128153114136 10.66144691293970759 0.002529822128153114136 10.73970541401991063
0.003184857364431081805 13.41698018885850452 0.003184857364431081805 13.51121323813148756
0.004009497869034817086 16.88338539921128856 0.004009497869034817086 16.99545433376648162
0.005047658755856332391 21.24335128381321880 0.005047658755856332391 21.37438575080128800
0.006354625877790454069 26.72613946076127789 0.006354625877790454069 26.87569856926864986
0.008000000000009777068 33.61925372378954791 0.008000000000009777068 33.78392251853330208
0.010071403294361402914 42.28292240634855403 0.010071403294361402914 42.45401231422143695
0.012679145539692626699 53.16801087928222103 0.012679145539692626699 53.32784944935308857
0.015962098519750611558 66.83808200384800102 0.015962098519750611558 66.95409624232412682
0.020095091452091651263 83.99641842223203980 0.020095091452091651263 84.01178736271087644
0.025298221281360611101 105.51889519578995191 0.025298221281360611101 105.33789716379271795
0.031848573644296607199 132.49361610633616237 0.031848573644296607199 131.95881666807707688
0.040094978690191851456 166.26815591391201110 0.040094978690191851456 165.12511937168943632
0.050476587558435426217 208.50501217787322616 0.050476587558435426217 206.34805688731361784
0.063546258777947173257 261.24535546273602904 0.063546258777947173257 257.43471950671528248
0.080000000000012505552 326.98021789958380623 0.080000000000012505552 320.51648107810149213
0.100714032943542974863 408.72665605195140870 0.100714032943542974863 398.06192682698844010
0.126791455396883634421 510.10387021872190871 0.126791455396883634421 492.86061633137080662
0.159620985197506115583 635.40039113032105433 0.159620985197506115583 607.95748630235914334
0.200950914520774404082 789.61784051876804824 0.200950914520774404082 746.50936192710537398
0.252982212813464002465 978.46904110396110354 0.252982212813464002465 911.52529236259510981
0.318485736442809752589 1208.29818053085841711 0.318485736442809752589 1105.44261105697887615
0.400949786901833249431 1485.87861433469788608 0.400949786901833249431 1329.48417867437956374
0.504765875584169521062 1818.03119794509916574 0.504765875584169521062 1582.74697019648078822
0.635462587779443310865 2210.99679962329582850 0.635462587779443310865 1861.00414985476641050
0.800000000000011368684 2669.49996072661633661 0.800000000000011368684 2155.29105593989015688
1.007140329435344483500 3195.47403509670175481 1.007140329435344483500 2450.52953619642585181
1.267914553968907398485 3786.50848005416173692 1.267914553968907398485 2724.74703030687669525
1.596209851975117999245 4434.25258886149094906 1.596209851975117999245 2949.79856441233823716
2.009509145207687197399 5123.25926192896986322 2.009509145207687197399 3094.64495453429526606
2.529822128134725289783 5830.98134842748459050 2.529822128134725289783 3131.73592708943897378
3.184857364427983839050 6529.62843656202858256 3.184857364427983839050 3045.56417419811077707
4.009497869018204596614 7190.11473954333177971 4.009497869018204596614 2840.86967877276856598
5.009497869018190385759 7768.88888313785810169 5.009497869018190385759 2555.58354220229057319
6.009497869018190385759 8187.39631178364197694 6.009497869018190385759 2283.54043955621546047
7.009497869018204596614 8500.23149835594085744 7.009497869018204596614 2045.03844536951260125
8.009497869018190385759 8741.22844139765038562 8.009497869018190385759 1844.68847248428892271
9.009497869018204596614 8931.98029981899890117 9.009497869018204596614 1681.56993394732012348
10.009497869018190385759 9086.64516897328212508 10.009497869018190385759 1550.23475256845608783
11.009497869018190385759 9214.75780958391987951 11.009497869018190385759 1439.26074893477789374
12.009497869018204596614 9322.88633082306841970 12.009497869018204596614 1348.25620083204466937
13.009497869018190385759 9415.65959555474364606 13.009497869018190385759 1273.39588800264368729
14.009497869018204596614 9496.40715410049779166 14.009497869018204596614 1211.53339157487789635
15.009497869018190385759 9567.56997250225686003 15.009497869018190385759 1160.12703888833539168
16.009497869018190385759 9630.96957404339809727 16.009497869018190385759 1117.14718933444351023
17.009497869018204596614 9687.98795250881448737 17.009497869018204596614 1081.93879967634802597
18.009497869018190385759 9739.69013386839469604 18.009497869018190385759 1051.14906464735372538
19.009497869018204596614 9786.91104092307614337 19.009497869018204596614 1026.15437564854437369
20.009497869018190385759 9830.30886116706096800 20.009497869018190385759 1003.44260499746303594
21.009497869018190385759 9870.41262244781319168 21.009497869018190385759 983.85729806918016038
22.009497869018204596614 9907.65515441081879544 22.009497869018204596614 966.85353624001038497
23.009497869018190385759 9942.38692090602125973 23.009497869018190385759 952.45883849866891069
24.009497869018204596614 9974.90193604868181865 24.009497869018204596614 939.35351224525584257
25.009497869018204596614 10005.44534067812674039 25.009497869018204596614 927.77582810511535172
26.009497869018190385759 10034.22360277710322407 26.009497869018190385759 917.98836863285703203
27.009497869018204596614 10061.41392177456509671 27.009497869018204596614 908.74114360496912468
28.009497869018190385759 10087.16674438747577369 28.009497869018190385759 900.45439501035116336
29.009497869018190385759 10111.61338583902033861 29.009497869018190385759 893.20631297187071596
30.009497869018190385759 10134.86740639573690714 30.009497869018190385759 886.41849891391598248
31.009497869018218807469 10157.02793516607744095 31.009497869018218807469 880.24649817510726280
32.009497869018190385759 10178.18353270279112621 32.009497869018190385759 874.61766016184151340
33.009497869018190385759 10198.41034079026758263 33.009497869018190385759 869.67038822614676974
34.009497869018218807469 10217.77868404599212226 34.009497869018218807469 864.89367227886009459
35.009497869018190385759 10236.34911373939576151 35.009497869018190385759 860.60252357326578476
36.009497869018190385759 10254.17687574077899626 36.009497869018190385759 856.50843731569591455
37.009497869018190385759 10271.31245020324058714 37.009497869018190385759 852.70445978054840452
38.009497869018218807469 10287.79983395206181740 38.009497869018218807469 849.16282454556449011
39.009497869018190385759 10303.68012213850306580 39.009497869018190385759 845.91570840424890321
40.009497869018190385759 10318.99069980025888071 40.009497869018190385759 842.99298983546191266
41.009497869018218807469 10333.76480635517327755 41.009497869018218807469 839.98877672427931884
42.009497869018190385759 10348.03360227517077874 42.009497869018190385759 837.28243869639447894
43.009497869018190385759 10361.82582676556376100 43.009497869018190385759 834.61970081579988801
44.009497869018218807469 10375.16710958070871129 44.009497869018218807469 832.19949988171379118
46.009497869018190385759 10400.59190323484835972 46.009497869018190385759 827.70873712459217586
48.009497869018218807469 10424.47993360373038740 48.009497869018218807469 823.56991054185436951
50.009497869018190385759 10446.97901344213278207 50.009497869018190385759 819.85865092852679936
52.009497869018190385759 10468.21703810382132360 52.009497869018190385759 816.44904975403380831
54.009497869018218807469 10488.30594000785276876 54.009497869018218807469 813.26024511724165222
56.009497869018190385759 10507.34354350102512399 56.009497869018190385759 810.31235674764786836
58.009497869018218807469 10525.41652085262830951 58.009497869018218807469 807.67464723542059346
60.009497869018190385759 10542.60150193489062076 60.009497869018190385759 805.10913817985453989
62.009497869018190385759 10558.96678010695904959 62.009497869018190385759 802.71242090625389665
64.009497869018218807469 10574.57355508133696276 64.009497869018218807469 800.46469297179010027
66.009497869018190385759 10589.47649448105948977 66.009497869018190385759 798.37283494884377433
68.009497869018190385759 10603.72521093450632179 68.009497869018190385759 796.41667478725776164
70.009497869018190385759 10617.36421097366292088 70.009497869018190385759 794.52679419924095328
72.009497869018190385759 10630.43403008073073579 72.009497869018190385759 792.75497281589730392
74.009497869018218807469 10642.97157372846049839 74.009497869018218807469 791.06356511809519816
76.009497869018190385759 10655.01029229427149403 76.009497869018190385759 789.45467324790581642
78.009497869018190385759 10666.58093268763514061 78.009497869018190385759 787.92909492522392156
80.009497869018218807469 10677.71162510195790674 80.009497869018218807469 786.46756558919605595
82.009497869018190385759 10688.42809929921713774 82.009497869018190385759 785.06827387865143919
84.009497869018218807469 10698.75416384917298274 84.009497869018218807469 783.71727922215131912
86.009497869018190385759 10708.71175360637062113 86.009497869018190385759 782.43918486092695730
88.009497869018190385759 10718.32103352382546291 88.009497869018190385759 781.19870241703347347
91.009497869018218807469 10732.12250288283212285 91.009497869018218807469 779.43679234155342783
94.009497869018218807469 10745.23973579072480788 94.009497869018218807469 777.77111822083361403
97.009497869018218807469 10757.72419581525173271 97.009497869018218807469 776.20691360092689592
99.504748934509137825444 10767.65968438007621444 99.504748934509137825444 774.74470741078278024
nan nan nan nan

