Time Pressure difference Time.1 Pressure.1 difference.1
(hr) (psi) (hr) (psi)
0.000200000000020850166 0.26448667758968247 0.000200000000020850166 0.21080961060876122
0.000399999999999067768 0.52887929138601830 0.000399999999999067768 0.55206841624591774
0.000600000000019917934 0.79319258804786974 0.000600000000019917934 0.80785530109621484
0.000799999999998135536 1.05743286356316579 0.000799999999998135536 1.06833739617813350
0.001007140329434719206 1.33103479816047043 0.001007140329434719206 1.34186789787853722
0.001267914553977789183 1.67537942375146898 0.001267914553977789183 1.68877027585166029
0.001596209851982166583 2.10873204178972884 0.001596209851982166583 2.12521330679262599
0.002009509145224797066 2.65406014610267516 0.002009509145224797066 2.67423374011158854
0.002529822128153114136 3.34023656976830274 0.002529822128153114136 3.36475499670771638
0.003184857364431081805 4.20354650251921580 0.003184857364431081805 4.23306976327666273
0.004009497869034817086 5.28957296251151643 0.004009497869034817086 5.32468421491403099
0.005047658755856332391 6.65555242192374763 0.005047658755856332391 6.69660558498010783
0.006354625877790454069 8.37331265864244934 0.006354625877790454069 8.42016960101224754
0.008000000000009777068 10.53292875287199593 0.008000000000009777068 10.58451956738284672
0.010071403294361402914 13.24726041893481820 0.010071403294361402914 13.30086297135213513
0.012679145539692626699 16.65756399961748713 0.012679145539692626699 16.70764150235889645
0.015962098519750611558 20.94040401696912568 0.015962098519750611558 20.97675133503356903
0.020095091452091651263 26.31611926923131861 0.020095091452091651263 26.32093436585424229
0.025298221281360611101 33.05912184459231895 0.025298221281360611101 33.00241507200598789
0.031848573644296607199 41.51031519390630820 0.031848573644296607199 41.34276226645172869
0.040094978690191851456 52.09189515332415965 0.040094978690191851456 51.73378124157363800
0.050476587558435426217 65.32472302715632395 0.050476587558435426217 64.64894787208446303
0.063546258777947173257 81.84829855876853344 0.063546258777947173257 80.65442443658668026
0.080000000000012505552 102.44306334193855434 0.080000000000012505552 100.41797141166135532
0.100714032943542974863 128.05426268425668468 0.100714032943542974863 124.71299776451461128
0.126791455396883634421 159.81579382222028585 0.126791455396883634421 154.41347388509942107
0.159620985197506115583 199.07125554624840902 0.159620985197506115583 190.47337994497556224
0.200950914520774404082 247.38765840883570490 0.200950914520774404082 233.88175083036404089
0.252982212813464002465 306.55483258232470689 0.252982212813464002465 285.58132312443871115
0.318485736442809752589 378.56041518109651633 0.318485736442809752589 346.33571459716182517
0.400949786901833249431 465.52650183096932324 0.400949786901833249431 416.52804809699767929
0.504765875584169521062 569.59006989807051013 0.504765875584169521062 495.87540544086789396
0.635462587779443310865 692.70638648296358042 0.635462587779443310865 583.05351690031113776
0.800000000000011368684 836.35565272026008188 0.800000000000011368684 675.25374954569963393
1.007140329435344483500 1001.14358932093705334 1.007140329435344483500 767.75211084774730352
1.267914553968907398485 1186.31497207608208555 1.267914553968907398485 853.66458683506084526
1.596209851975117999245 1389.25352045118643218 1.596209851975117999245 924.17334333312669514
2.009509145207687197399 1605.11965053538165193 2.009509145207687197399 969.55378871123741646
2.529822128134725289783 1826.84932886693604814 2.529822128134725289783 981.17440868417895672
3.184857364427983839050 2045.73580574061566040 3.184857364427983839050 954.17675605418651230
4.009497869018204596614 2252.66648982736887774 4.009497869018204596614 890.04586980269982632
5.009497869018190385759 2433.99671412594989306 5.009497869018190385759 800.66558268012647659
6.009497869018190385759 2565.11529768196896839 6.009497869018190385759 715.43434460973060141
7.009497869018204596614 2663.12671574107343986 7.009497869018204596614 640.71155234236948672
8.009497869018190385759 2738.63117671374720885 8.009497869018190385759 577.94180714286108014
9.009497869018204596614 2798.39382792358765073 9.009497869018204596614 526.83668866526875263
10.009497869018190385759 2846.85040761921618468 10.009497869018190385759 485.68931164213699958
11.009497869018190385759 2886.98816103220360674 11.009497869018190385759 450.92110163670872680
12.009497869018204596614 2920.86488000171038948 12.009497869018204596614 422.40933188629577444
13.009497869018190385759 2949.93078954325983432 13.009497869018190385759 398.95555899984304915
14.009497869018204596614 2975.22903941276717887 14.009497869018204596614 379.57400839488781230
15.009497869018190385759 2997.52438547361361998 15.009497869018190385759 363.46837277486758921
16.009497869018190385759 3017.38751186778381452 16.009497869018190385759 350.00276473729360305
17.009497869018204596614 3035.25139792886920986 17.009497869018204596614 338.97195891337804596
18.009497869018190385759 3051.44971681788138085 18.009497869018190385759 329.32551976143696493
19.009497869018204596614 3066.24405025964324523 19.009497869018204596614 321.49467138545526268
20.009497869018190385759 3079.84060872032068801 20.009497869018190385759 314.37906245240708358
21.009497869018190385759 3092.40513688512783119 21.009497869018190385759 308.24297614384164490
22.009497869018204596614 3104.07324049521230336 22.009497869018204596614 302.91568918652541242
23.009497869018190385759 3114.95472004740349803 23.009497869018190385759 298.40582329317902577
24.009497869018204596614 3125.14169030884795575 24.009497869018204596614 294.29991812215894242
25.009497869018204596614 3134.71095402526543694 25.009497869018204596614 290.67262397776028138
26.009497869018190385759 3143.72719771735819450 26.009497869018190385759 287.60620810369317724
27.009497869018204596614 3152.24593805350878029 27.009497869018204596614 284.70904794717262121
28.009497869018190385759 3160.31431006425373198 28.009497869018190385759 282.11280553033662954
29.009497869018190385759 3167.97345487370284900 29.009497869018190385759 279.84197785719698004
30.009497869018190385759 3175.25895096930480577 30.009497869018190385759 277.71535236908891875
31.009497869018218807469 3182.20185554956879059 31.009497869018218807469 275.78166149722574119
32.009497869018190385759 3188.82991467929832652 32.009497869018190385759 274.01814377484299712
33.009497869018190385759 3195.16698361704948184 33.009497869018190385759 272.46816104031000805
34.009497869018218807469 3201.23509510012354440 34.009497869018218807469 270.97161358096309414
35.009497869018190385759 3207.05321987106208326 35.009497869018190385759 269.62719457763404307
36.009497869018190385759 3212.63866648824432559 36.009497869018190385759 268.34451533634614862
37.009497869018190385759 3218.00725040850284131 37.009497869018190385759 267.15272730070381613
38.009497869018218807469 3223.17275585887227862 38.009497869018218807469 266.04313123693543730
39.009497869018190385759 3228.14805797048711611 39.009497869018190385759 265.02580815029665473
40.009497869018190385759 3232.94486949407109933 40.009497869018190385759 264.11011898293287459
41.009497869018218807469 3237.57360435561122358 41.009497869018218807469 263.16889753529147811
42.009497869018190385759 3242.04402514630965015 42.009497869018190385759 262.32100049798373220
43.009497869018190385759 3246.36513587334911790 43.009497869018190385759 261.48676340829990750
44.009497869018218807469 3250.54496635139457794 44.009497869018218807469 260.72851326343351275
46.009497869018190385759 3258.51056672776530831 46.009497869018190385759 259.32155507942883332
48.009497869018218807469 3265.99469840983874747 48.009497869018218807469 258.02485867222634397
50.009497869018190385759 3273.04367120650067591 50.009497869018190385759 256.86211920716408486
52.009497869018190385759 3279.69755479508830831 52.009497869018190385759 255.79388947958892686
54.009497869018218807469 3285.99141765763306466 54.009497869018218807469 254.79483541604221841
56.009497869018190385759 3291.95590821017367489 56.009497869018190385759 253.87126053768673728
58.009497869018218807469 3297.61818091737541181 58.009497869018218807469 253.04486484814162850
60.009497869018190385759 3303.00224395595614624 60.009497869018190385759 252.24108959723525913
62.009497869018190385759 3308.12949366897873915 62.009497869018190385759 251.49019689476722306
64.009497869018218807469 3313.01910395651748331 64.009497869018218807469 250.78598262564455013
66.009497869018190385759 3317.68820221180021690 66.009497869018190385759 250.13060247658356161
68.009497869018190385759 3322.15233209573716522 68.009497869018190385759 249.51773653433301092
70.009497869018190385759 3326.42543752672372648 70.009497869018190385759 248.92563601513165850
72.009497869018190385759 3330.52021829130262631 72.009497869018190385759 248.37052350291170910
74.009497869018218807469 3334.44823689226677743 74.009497869018218807469 247.84060463798448382
76.009497869018190385759 3338.21997334933848833 76.009497869018190385759 247.33653802249662590
78.009497869018190385759 3341.84506068440168747 78.009497869018190385759 246.85857358248392757
80.009497869018218807469 3345.33231210090843888 80.009497869018218807469 246.40067572154117670
82.009497869018190385759 3348.68978874596132300 82.009497869018190385759 245.96227693932132752
84.009497869018218807469 3351.92494985619441650 84.009497869018218807469 245.53900964792524064
86.009497869018190385759 3355.04466763234040627 86.009497869018190385759 245.13858205495051834
88.009497869018190385759 3358.05525976411490774 88.009497869018190385759 244.74993829420358793
91.009497869018218807469 3362.37926691304483029 91.009497869018218807469 244.19793099961970029
94.009497869018218807469 3366.48890244477934175 94.009497869018218807469 243.67607447706907919
97.009497869018218807469 3370.40028992044335610 97.009497869018218807469 243.18600839910811828
99.504748934509137825444 3373.51308338213220850 99.504748934509137825444 242.72789847943738550
nan nan nan nan

