Time Pressure difference Time.1 Pressure.1 difference.1
(hr) (psi) (hr) (psi)
0.000200000000020850166 0.20709805886739288 0.000200000000020850166 0.16506790264648286
0.000399999999999067768 0.41412246400980685 0.000399999999999067768 0.43227998630576586
0.000600000000019917934 0.62108476233936971 0.000600000000019917934 0.63256594331118710
0.000799999999998135536 0.82798988373342219 0.000799999999998135536 0.83652833851684039
0.001007140329434719206 1.04222536082376460 0.001007140329434719206 1.05070788230111867
0.001267914553977789183 1.31185369972992372 0.001267914553977789183 1.32233898958196039
0.001596209851982166583 1.65117697611837277 0.001596209851982166583 1.66408211758290547
0.002009509145224797066 2.07817917100492489 0.002009509145224797066 2.09397547574775311
0.002529822128153114136 2.61546825746008604 0.002529822128153114136 2.63466664836547571
0.003184857364431081805 3.29145622367070656 0.003184857364431081805 3.31457349388644396
0.004009497869034817086 4.14183543290996159 0.004009497869034817086 4.16932820601759069
0.005047658755856332391 5.21142312282708531 0.005047658755856332391 5.24356852408819751
0.006354625877790454069 6.55646179874833290 0.006354625877790454069 6.59315166871713654
0.008000000000009777068 8.24748194800354462 0.008000000000009777068 8.28787852917713508
0.010071403294361402914 10.37285485633575277 0.010071403294361402914 10.41482666624742670
0.012679145539692626699 13.04318690536086045 0.012679145539692626699 13.08239853486593063
0.015962098519750611558 16.39673144724940812 0.015962098519750611558 16.42519208309232326
0.020095091452091651263 20.60601791836036867 0.020095091452091651263 20.60978822986700010
0.025298221281360611101 25.88591616133172479 0.025298221281360611101 25.84151368845752117
0.031848573644296607199 32.50336001032285793 0.031848573644296607199 32.37216290674994212
0.040094978690191851456 40.78893677099910064 0.040094978690191851456 40.50852682123218784
0.050476587558435426217 51.15049067220732582 0.050476587558435426217 50.62134597531142788
0.063546258777947173257 64.08876207903574596 0.063546258777947173257 63.15393611544050856
0.080000000000012505552 80.21485148472548588 0.080000000000012505552 78.62916629403673596
0.100714032943542974863 100.26890379993685087 0.100714032943542974863 97.65263032504445562
0.126791455396883634421 125.13878195513473202 0.126791455396883634421 120.90866351380427091
0.159620985197506115583 155.87654915413787649 0.159620985197506115583 149.14425033427332323
0.200950914520774404082 193.70920422578643638 0.200950914520774404082 183.13382376339825441
0.252982212813464002465 240.03821796540520950 0.252982212813464002465 223.61556433328689764
0.318485736442809752589 296.41994773614158021 0.318485736442809752589 271.18739916570223158
0.400949786901833249431 364.51603445255148017 0.400949786901833249431 326.14932067972455343
0.504765875584169521062 445.99977171264009712 0.504765875584169521062 388.27979859992484535
0.635462587779443310865 542.40217054798097251 0.635462587779443310865 456.54190474269637434
0.800000000000011368684 654.88225637529808409 0.800000000000011368684 528.73642653106662692
1.007140329435344483500 783.91431993997900918 1.007140329435344483500 601.16438868267005091
1.267914553968907398485 928.90700643693230631 1.267914553968907398485 668.43547837084952334
1.596209851975117999245 1087.81171884385366866 1.596209851975117999245 723.64516506273128016
2.009509145207687197399 1256.83897164562904436 2.009509145207687197399 759.17891002861040306
2.529822128134725289783 1430.45749335807272473 2.529822128134725289783 768.27807472440429137
3.184857364427983839050 1601.84973468368957583 3.184857364427983839050 747.13840332544793910
4.009497869018204596614 1763.88036467614733738 4.009497869018204596614 696.92270937381226759
5.009497869018190385759 1905.86535162692302947 5.009497869018190385759 626.93625813632547761
6.009497869018190385759 2008.53367648682456093 6.009497869018190385759 560.19859059063810491
7.009497869018204596614 2085.27846609914240616 7.009497869018204596614 501.68923438128928183
8.009497869018190385759 2144.39988365321687525 8.009497869018190385759 452.53933955525906185
9.009497869018204596614 2191.19516714771498300 9.009497869018204596614 412.52306753978598408
10.009497869018190385759 2229.13758332448060173 10.009497869018190385759 380.30389496506955993
11.009497869018190385759 2260.56620156295184643 11.009497869018190385759 353.07973052685679249
12.009497869018204596614 2287.09231169945269357 12.009497869018204596614 330.75447685436370193
13.009497869018190385759 2309.85146728387280746 13.009497869018190385759 312.38973016025443030
14.009497869018204596614 2329.66047425716669750 14.009497869018204596614 297.21361034694047021
15.009497869018190385759 2347.11815088971616206 15.009497869018190385759 284.60259377654722357
16.009497869018190385759 2362.67135363232137024 16.009497869018190385759 274.05876861505066699
17.009497869018204596614 2376.65911347260544062 17.009497869018204596614 265.42143952651298378
18.009497869018190385759 2389.34270279135989767 18.009497869018190385759 257.86809566225718982
19.009497869018204596614 2400.92694501462619883 19.009497869018204596614 251.73639363200743446
20.009497869018190385759 2411.57330682817564593 20.009497869018190385759 246.16473758065839661
21.009497869018190385759 2421.41156944778913385 21.009497869018190385759 241.36006622583823855
22.009497869018204596614 2430.54791472738315861 22.009497869018204596614 237.18870002341142822
23.009497869018190385759 2439.06831852768391400 23.009497869018190385759 233.65738993711187277
24.009497869018204596614 2447.04490844938118244 24.009497869018204596614 230.44238871829426785
25.009497869018204596614 2454.53782249148116534 25.009497869018204596614 227.60214896371795135
26.009497869018190385759 2461.59771142019599210 26.009497869018190385759 225.20108747742011701
27.009497869018204596614 2468.26804583435114182 27.009497869018204596614 222.93255641146532753
28.009497869018190385759 2474.58573335219898581 28.009497869018190385759 220.89964961337676641
29.009497869018190385759 2480.58298825016345290 29.009497869018190385759 219.12154869950325065
30.009497869018190385759 2486.28766915521055125 30.009497869018190385759 217.45636081730549449
31.009497869018218807469 2491.72409443975675458 31.009497869018218807469 215.94224437990314414
32.009497869018190385759 2496.91398979605446584 32.009497869018190385759 214.56137672935818728
33.009497869018190385759 2501.87603434165157523 33.009497869018190385759 213.34771100326162241
34.009497869018218807469 2506.62748012556812682 34.009497869018218807469 212.17588610584843423
35.009497869018190385759 2511.18318159715227011 35.009497869018190385759 211.12318065984553073
36.009497869018190385759 2515.55669168419126436 36.009497869018190385759 210.11881861242196123
37.009497869018190385759 2519.76039418778964318 37.009497869018190385759 209.18562609394732021
38.009497869018218807469 2523.80508241779580203 38.009497869018218807469 208.31679144024192851
39.009497869018190385759 2527.70083784481494149 39.009497869018190385759 207.52020826862855074
40.009497869018190385759 2531.45683177365981464 40.009497869018190385759 206.80320637342856571
41.009497869018218807469 2535.08121850486577387 41.009497869018218807469 206.06621222103009927
42.009497869018190385759 2538.58164233154457179 42.009497869018190385759 205.40229284276080080
43.009497869018190385759 2541.96515356120744400 43.009497869018190385759 204.74906946121592455
44.009497869018218807469 2545.23803969024311300 44.009497869018218807469 204.15534529117906004
46.009497869018190385759 2551.47525507928821753 46.009497869018190385759 203.05367048672258079
48.009497869018218807469 2557.33547139638312728 48.009497869018218807469 202.03833273391305170
50.009497869018190385759 2562.85495009565602231 50.009497869018190385759 201.12788579428885782
52.009497869018190385759 2568.06506649049379121 52.009497869018190385759 200.29144176231963570
54.009497869018218807469 2572.99327986399566726 54.009497869018218807469 199.50916358048587540
56.009497869018190385759 2577.66358850419283044 56.009497869018190385759 198.78598702479243343
58.009497869018218807469 2582.09725486926572557 58.009497869018218807469 198.13890360750710329
60.009497869018190385759 2586.31307781456916928 60.009497869018190385759 197.50953242047665981
62.009497869018190385759 2590.32781108042627238 62.009497869018190385759 196.92156926665734318
64.009497869018218807469 2594.15646819236735610 64.009497869018218807469 196.37015620687265027
66.009497869018190385759 2597.81246022244704363 66.009497869018190385759 195.85698118449468552
68.009497869018190385759 2601.30795815043575203 68.009497869018190385759 195.37709558820412781
70.009497869018190385759 2604.65388032752889558 70.009497869018190385759 194.91346970996156074
72.009497869018190385759 2607.86017092620886615 72.009497869018190385759 194.47880613907236125
74.009497869018218807469 2610.93588360432204354 74.009497869018218807469 194.06386966936523208
76.009497869018190385759 2613.88922441504792005 76.009497869018190385759 193.66917599874736311
78.009497869018190385759 2616.72773619627696462 78.009497869018190385759 193.29492082402043707
80.009497869018218807469 2619.45831985259837893 80.009497869018218807469 192.93637815931998603
82.009497869018190385759 2622.08728741429058573 82.009497869018190385759 192.59310364116672076
84.009497869018218807469 2624.62047960437848815 84.009497869018218807469 192.26167736582826251
86.009497869018190385759 2627.06327748570083713 86.009497869018190385759 191.94813500529144790
88.009497869018190385759 2629.42062792850492770 88.009497869018190385759 191.64381960772544744
91.009497869018218807469 2632.80640711115802333 91.009497869018218807469 191.21158748083428236
94.009497869018218807469 2636.02432927279869546 94.009497869018218807469 190.80296397732766422
97.009497869018218807469 2639.08701946600785959 97.009497869018218807469 190.41923299175448392
99.504748934509137825444 2641.52439547846188361 99.504748934509137825444 190.06052428106886509
nan nan nan nan

