Time Pressure difference Time.1 Pressure.1 difference.1
(hr) (psi) (hr) (psi)
0.000200000000020850166 0.83754114570066118 0.000200000000020850166 0.66756376692774388
0.000399999999999067768 1.67478442272239136 0.000399999999999067768 1.74821665144540628
0.000600000000019917934 2.51177652881825431 0.000600000000019917934 2.55820845347134673
0.000799999999998135536 3.34853740128335842 0.000799999999998135536 3.38306842123075624
0.001007140329434719206 4.21494352750815615 0.001007140329434719206 4.24924834328203449
0.001267914553977789183 5.30536817521298509 0.001267914553977789183 5.34777254019692450
0.001596209851982166583 6.67765146566747525 0.001596209851982166583 6.72984213817664934
0.002009509145224797066 8.40452379599180510 0.002009509145224797066 8.46840684368669550
0.002529822128153114136 10.57741580426629113 0.002529822128153114136 10.65505748957443366
0.003184857364431081805 13.31123059131084929 0.003184857364431081805 13.40472091704276814
0.004009497869034817086 16.75031438128647210 0.004009497869034817086 16.86150001389443176
0.005047658755856332391 21.07591600275853239 0.005047658755856332391 21.20591768577034131
0.006354625877790454069 26.51549008570108867 0.006354625877790454069 26.66387040320545054
0.008000000000009777068 33.35427438409465140 0.008000000000009777068 33.51764529671235238
0.010071403294361402914 41.94965799329359157 0.010071403294361402914 42.11939940928176185
0.012679145539692626699 52.74895266545536288 0.012679145539692626699 52.90753142413651489
0.015962098519750611558 66.31127938706889324 0.015962098519750611558 66.42637922760630431
0.020095091452091651263 83.33437768589917027 0.020095091452091651263 83.34962549187176251
0.025298221281360611101 104.68721917454234926 0.025298221281360611101 104.50764772801898062
0.031848573644296607199 131.44933144736995700 0.031848573644296607199 130.91874717709717402
0.040094978690191851456 164.95766798552648424 0.040094978690191851456 163.82364059831652980
0.050476587558435426217 206.86162291932839707 0.050476587558435426217 204.72166826160082564
0.063546258777947173257 259.18627876943372712 0.063546258777947173257 255.40567738252445906
0.080000000000012505552 324.40303391613878148 0.080000000000012505552 317.99024280359435579
0.100714032943542974863 405.50516516681284429 0.100714032943542974863 394.92449292096290492
0.126791455396883634421 506.08334710369751974 0.126791455396883634421 488.97600063614817145
0.159620985197506115583 630.39230922978663330 0.159620985197506115583 603.16570315908927569
0.200950914520774404082 783.39425162797965640 0.200950914520774404082 740.62554429615272511
0.252982212813464002465 970.75696984402827638 0.252982212813464002465 904.34085656072250003
0.318485736442809752589 1198.77464807347246278 0.318485736442809752589 1096.72976289101256953
0.400949786901833249431 1474.16725579806984570 0.400949786901833249431 1319.00548564049267952
0.504765875584169521062 1803.70188801055655858 0.504765875584169521062 1570.27211722941478911
0.635462587779443310865 2193.57022386271819414 0.635462587779443310865 1846.33613685098498536
0.800000000000011368684 2648.45956694749020244 0.800000000000011368684 2138.30354022804840497
1.007140329435344483500 3170.28803284963441911 1.007140329435344483500 2431.21501768453299519
1.267914553968907398485 3756.66407824092721057 1.267914553968907398485 2703.27119164435953280
1.596209851975117999245 4399.30281476208983804 1.596209851975117999245 2926.54892055490154235
2.009509145207687197399 5082.87889336204170831 2.009509145207687197399 3070.25366425225183775
2.529822128134725289783 5785.02287474529748579 2.529822128134725289783 3107.05229416656675312
3.184857364427983839050 6478.16338484528296249 3.184857364427983839050 3021.55972750492401246
4.009497869018204596614 7133.44388445333515847 4.009497869018204596614 2818.47858770854963950
5.009497869018190385759 7707.65626139884170698 5.009497869018190385759 2535.44101182040049025
6.009497869018190385759 8122.86510932623514236 6.009497869018190385759 2265.54209126414662023
7.009497869018204596614 8433.23459984673172585 7.009497869018204596614 2028.91991575083670796
8.009497869018190385759 8672.33205959353108483 8.009497869018190385759 1830.14905595239315517
9.009497869018204596614 8861.58045509136172768 9.009497869018204596614 1668.31618077335133421
10.009497869018190385759 9015.02629079418511537 10.009497869018190385759 1538.01615353343368042
11.009497869018190385759 9142.12917660197854275 11.009497869018190385759 1427.91682184957767277
12.009497869018204596614 9249.40545333874979406 12.009497869018204596614 1337.62955097326994292
13.009497869018190385759 9341.44750022032167180 13.009497869018190385759 1263.35927016616960827
14.009497869018204596614 9421.55862480709583906 14.009497869018204596614 1201.98435991714495685
15.009497869018190385759 9492.16055399977631168 15.009497869018190385759 1150.98318045374730900
16.009497869018190385759 9555.06045424798139720 16.009497869018190385759 1108.34208833476327527
17.009497869018204596614 9611.62942677475257369 17.009497869018204596614 1073.41120322569713608
18.009497869018190385759 9662.92410325662422110 18.009497869018190385759 1042.86414591121706508
19.009497869018204596614 9709.77282582220323093 19.009497869018204596614 1018.06645938727524481
20.009497869018190385759 9752.82859428101619415 20.009497869018190385759 995.53369776595582152
21.009497869018190385759 9792.61626680290464719 21.009497869018190385759 976.10275778883180919
22.009497869018204596614 9829.56526156817199080 22.009497869018204596614 959.23301575733046320
23.009497869018190385759 9864.02328015011153184 23.009497869018190385759 944.95177376173353423
24.009497869018204596614 9896.28201931135117775 24.009497869018204596614 931.94974072016998434
25.009497869018204596614 9926.58468774667380785 25.009497869018204596614 920.46330926290750085
26.009497869018190385759 9955.13612610496784328 26.009497869018190385759 910.75299232836164265
27.009497869018204596614 9982.11213716944439511 27.009497869018204596614 901.57865183271314891
28.009497869018190385759 10007.66198187013833376 28.009497869018190385759 893.35721751273263180
29.009497869018190385759 10031.91594043339136988 29.009497869018190385759 886.16626321445698977
30.009497869018190385759 10054.98667806946468772 30.009497869018190385759 879.43194916878155709
31.009497869018218807469 10076.97254257363601937 31.009497869018218807469 873.30859474121473340
32.009497869018190385759 10097.96139648444477643 32.009497869018190385759 867.72412195366939613
33.009497869018190385759 10118.02878145398972265 33.009497869018190385759 862.81584329431507285
34.009497869018218807469 10137.24446781705773901 34.009497869018218807469 858.07677633971638897
35.009497869018190385759 10155.66852959169591486 35.009497869018190385759 853.81944949584112692
36.009497869018190385759 10173.35577721277331875 36.009497869018190385759 849.75763189842939482
37.009497869018190385759 10190.35629296025763324 37.009497869018190385759 845.98363645222877949
38.009497869018218807469 10206.71372688642986759 38.009497869018218807469 842.46991558362890373
39.009497869018190385759 10222.46885023987488239 39.009497869018190385759 839.24839247593956770
40.009497869018190385759 10237.65875339789090503 40.009497869018190385759 836.34871011262077900
41.009497869018218807469 10252.31641379276879888 41.009497869018218807469 833.36817552842285295
42.009497869018190385759 10266.47274629664752865 42.009497869018190385759 830.68316824361511408
43.009497869018190385759 10280.15626359893940389 43.009497869018190385759 828.04141745961624110
44.009497869018218807469 10293.39239344608176907 44.009497869018218807469 825.64029200087259142
46.009497869018190385759 10318.61679463792279421 46.009497869018190385759 821.18492441819137184
48.009497869018218807469 10342.31654496448936698 48.009497869018218807469 817.07871912871655695
50.009497869018190385759 10364.63829215391888283 50.009497869018190385759 813.39671082268625923
52.009497869018190385759 10385.70892351777911244 52.009497869018190385759 810.01398335203157330
54.009497869018218807469 10405.63948924917167460 54.009497869018218807469 806.85031215080039146
56.009497869018190385759 10424.52704266554974311 56.009497869018190385759 803.92565836934136314
58.009497869018218807469 10442.45757290502297110 58.009497869018218807469 801.30873868578180463
60.009497869018190385759 10459.50710586052628059 60.009497869018190385759 798.76345039124487357
62.009497869018190385759 10475.74339661843077920 62.009497869018190385759 796.38562350009624424
64.009497869018218807469 10491.22716252897043887 64.009497869018218807469 794.15561164787447979
66.009497869018190385759 10506.01264033736697456 66.009497869018190385759 792.08024117584795931
68.009497869018190385759 10520.14905163650109898 68.009497869018190385759 790.13949902538774950
70.009497869018190385759 10533.68055216795983142 70.009497869018190385759 788.26451404791691857
72.009497869018190385759 10546.64735792246028723 72.009497869018190385759 786.50665775922027478
74.009497869018218807469 10559.08608349217865907 74.009497869018218807469 784.82858135361755103
76.009497869018190385759 10571.02991560623740952 76.009497869018190385759 783.23237040457263447
78.009497869018190385759 10582.50935883393867698 78.009497869018190385759 781.71881634453245624
80.009497869018218807469 10593.55232165287634416 80.009497869018218807469 780.26880645154710692
82.009497869018190385759 10604.18433102887684072 82.009497869018190385759 778.88054364118420381
84.009497869018218807469 10614.42900787794678763 84.009497869018218807469 777.54019721842996660
86.009497869018190385759 10624.30811416907999956 86.009497869018190385759 776.27217650734337440
88.009497869018190385759 10633.84165591969576781 88.009497869018190385759 775.04147126497809950
91.009497869018218807469 10647.53434522464340262 91.009497869018218807469 773.29344816546233687
94.009497869018218807469 10660.54819107513321796 94.009497869018218807469 771.64090251071866078
97.009497869018218807469 10672.93425141473744588 97.009497869018218807469 770.08902659717568895
99.504748934509137825444 10682.79143071008547849 99.504748934509137825444 768.63834518488499725
nan nan nan nan

