Time Pressure difference Time.1 Pressure.1 difference.1
(hr) (psi) (hr) (psi)
0.000200000000020850166 0.23620822778449629 0.000200000000020850166 0.18827021827952262
0.000399999999999067768 0.47233244891078363 0.000399999999999067768 0.49304223337685732
0.000600000000019917934 0.70838583335092764 0.000600000000019917934 0.72148083494127369
0.000799999999998135536 0.94437400393691540 0.000799999999998135536 0.95411264312764132
0.001007140329434719206 1.18872290150180393 0.001007140329434719206 1.19839774527517151
0.001267914553977789183 1.49625080611766403 0.001267914553977789183 1.50820993189267760
0.001596209851982166583 1.88327012537195926 0.001596209851982166583 1.89798924254435786
0.002009509145224797066 2.37029270909798662 0.002009509145224797066 2.38830937796129250
0.002529822128153114136 2.98310435790628281 0.002529822128153114136 3.00500131781443836
0.003184857364431081805 3.75411071294168952 0.003184857364431081805 3.78047739864959897
0.004009497869034817086 4.72402113633104026 0.004009497869034817086 4.75537835545781373
0.005047658755856332391 5.94395247744133393 0.005047658755856332391 5.98061630859858706
0.006354625877790454069 7.47805281463665317 0.006354625877790454069 7.51989989524364244
0.008000000000009777068 9.40676655916869997 0.008000000000009777068 9.45284137464379981
0.010071403294361402914 11.83088666345122242 0.010071403294361402914 11.87875812535851061
0.012679145539692626699 14.87656659085335065 0.012679145539692626699 14.92128989518844939
0.015962098519750611558 18.70149289565795669 0.015962098519750611558 18.73395402248281272
0.020095091452091651263 23.50244613981664799 0.020095091452091651263 23.50674641478806493
0.025298221281360611101 29.52449875429000059 0.025298221281360611101 29.47385496996761489
0.031848573644296607199 37.07210539329997090 0.031848573644296607199 36.92246692978708467
0.040094978690191851456 46.52232145768572025 0.040094978690191851456 46.20249645473872135
0.050476587558435426217 58.34031867834087848 0.050476587558435426217 57.73679621280499674
0.063546258777947173257 73.09722261223355133 0.063546258777947173257 72.03099540877552442
0.080000000000012505552 91.49003141229734126 0.080000000000012505552 89.68145874500574166
0.100714032943542974863 114.36292642241792805 0.100714032943542974863 111.37890366390612940
0.126791455396883634421 142.72857058336654745 0.126791455396883634421 137.90385718040326424
0.159620985197506115583 177.78690746897655117 0.159620985197506115583 170.10830158607882368
0.200950914520774404082 220.93740562298535224 0.200950914520774404082 208.87552589881568110
0.252982212813464002465 273.77852972761075989 0.252982212813464002465 255.04747096647980698
0.318485736442809752589 338.08540223720569884 0.318485736442809752589 309.30610989180490833
0.400949786901833249431 415.75322805029964002 0.400949786901833249431 371.99360270297904663
0.504765875584169521062 508.69050267626425921 0.504765875584169521062 442.85728033083796618
0.635462587779443310865 618.64343950050840704 0.635462587779443310865 520.71446163424013776
0.800000000000011368684 746.93397915897446637 0.800000000000011368684 603.05680777037321150
1.007140329435344483500 894.10307977089985343 1.007140329435344483500 685.66540717220198076
1.267914553968907398485 1059.47626436983432541 1.267914553968907398485 762.39227251936245011
1.596209851975117999245 1240.71698052873261986 1.596209851975117999245 825.36235693901880950
2.009509145207687197399 1433.50308412593835783 2.009509145207687197399 865.89080501255170930
2.529822128134725289783 1631.52581571764108048 2.529822128134725289783 876.26896876197110942
3.184857364427983839050 1827.00933594444904884 3.184857364427983839050 852.15785760814139849
4.009497869018204596614 2011.81535569488301007 4.009497869018204596614 794.88373277976972986
5.009497869018190385759 2173.75807173512475856 5.009497869018190385759 715.05982855709407886
6.009497869018190385759 2290.85768723798446445 6.009497869018190385759 638.94136436843859883
7.009497869018204596614 2378.38989707693326636 7.009497869018204596614 572.20780146299659918
8.009497869018190385759 2445.82155404623927097 8.009497869018190385759 516.14928688230349962
9.009497869018204596614 2499.19448783112875390 9.009497869018204596614 470.50823767590043190
10.009497869018190385759 2542.47017535804207000 10.009497869018190385759 433.76026574329216601
11.009497869018190385759 2578.31647085894883276 11.009497869018190385759 402.70941152460778767
12.009497869018204596614 2608.57115069335122826 12.009497869018204596614 377.24606998650313017
13.009497869018190385759 2634.52938437196780797 13.009497869018190385759 356.29993319482838388
14.009497869018204596614 2657.12278991580478760 14.009497869018204596614 338.99062384952247839
15.009497869018190385759 2677.03435683806992529 15.009497869018190385759 324.60697442786914735
16.009497869018190385759 2694.77375273726602245 16.009497869018190385759 312.58108548865214971
17.009497869018204596614 2710.72766355911608116 17.009497869018204596614 302.72967399811119549
18.009497869018190385759 2725.19408671785595288 18.009497869018190385759 294.11461513285564706
19.009497869018204596614 2738.40663608093927905 19.009497869018204596614 287.12102727506072597
20.009497869018190385759 2750.54947445462585165 20.009497869018190385759 280.76620671850196231
21.009497869018190385759 2761.77062539426560761 21.009497869018190385759 275.28617995236169236
22.009497869018204596614 2772.19119591396292890 22.009497869018204596614 270.52847713513591543
23.009497869018190385759 2781.90924683478851875 23.009497869018190385759 266.50079816120393161
24.009497869018204596614 2791.00704417519727940 24.009497869018204596614 262.83388914054444285
25.009497869018204596614 2799.55317906658910942 25.009497869018204596614 259.59441889837711415
26.009497869018190385759 2807.60542186078555460 26.009497869018190385759 256.85585880958757343
27.009497869018204596614 2815.21335348174989122 27.009497869018204596614 254.26845791508492312
28.009497869018190385759 2822.41906936556006258 28.009497869018190385759 251.94980116545787041
29.009497869018190385759 2829.25931189978473412 29.009497869018190385759 249.92176638818847323
30.009497869018190385759 2835.76585558264969222 30.009497869018190385759 248.02251595226812242
31.009497869018218807469 2841.96643703169047512 31.009497869018218807469 246.29557190318269022
32.009497869018190385759 2847.88583575132315673 32.009497869018190385759 244.72060639011129979
33.009497869018190385759 2853.54535643786766741 33.009497869018190385759 243.33634508002529628
34.009497869018218807469 2858.96467612715423456 34.009497869018218807469 241.99980583960223157
35.009497869018190385759 2864.16073724333818973 35.009497869018190385759 240.79912974857882091
36.009497869018190385759 2869.14899774421792245 36.009497869018190385759 239.65359231296321241
37.009497869018190385759 2873.94358212583256318 37.009497869018190385759 238.58922815534555184
38.009497869018218807469 2878.55680082993603719 38.009497869018218807469 237.59826814870967837
39.009497869018190385759 2883.00015240131506289 39.009497869018190385759 236.68971545498195042
40.009497869018190385759 2887.28409728401356915 40.009497869018190385759 235.87193016085828390
41.009497869018218807469 2891.41793596538855127 41.009497869018218807469 235.03134245290178228
42.009497869018190385759 2895.41038723758492779 42.009497869018190385759 234.27410107367100522
43.009497869018190385759 2899.26949241519241696 43.009497869018190385759 233.52905914451937974
44.009497869018218807469 2903.00242277923280199 44.009497869018218807469 232.85187976985884006
46.009497869018190385759 2910.11635519083438339 46.009497869018190385759 231.59535107722575731
48.009497869018218807469 2916.80029669306304640 48.009497869018218807469 230.43729516639078270
50.009497869018190385759 2923.09560573159205887 50.009497869018190385759 229.39887375734150510
52.009497869018190385759 2929.03806780441891533 52.009497869018190385759 228.44485727107939965
54.009497869018218807469 2934.65900193323204803 54.009497869018218807469 227.55262030866666123
56.009497869018190385759 2939.98577965940057766 56.009497869018190385759 226.72779242988374904
58.009497869018218807469 2945.04265214004590234 58.009497869018218807469 225.98975351217680441
60.009497869018190385759 2949.85106063991042902 60.009497869018190385759 225.27191649564406362
62.009497869018190385759 2954.43011384273540898 62.009497869018190385759 224.60130791859714350
64.009497869018218807469 2958.79693560896521376 64.009497869018218807469 223.97238699900333359
66.009497869018190385759 2962.96682210110429878 66.009497869018190385759 223.38707894135137622
68.009497869018190385759 2966.95365507921133030 68.009497869018190385759 222.83973954638543091
70.009497869018190385759 2970.76988760248332255 70.009497869018190385759 222.31094537200436889
72.009497869018190385759 2974.42686161864776295 72.009497869018190385759 221.81518451203433528
74.009497869018218807469 2977.93490338806213913 74.009497869018218807469 221.34192363895471090
76.009497869018190385759 2981.30337242519544816 76.009497869018190385759 220.89175093833031838
78.009497869018190385759 2984.54087180619535502 78.009497869018190385759 220.46488961454539890
80.009497869018218807469 2987.65527244232089288 80.009497869018218807469 220.05594938653365489
82.009497869018190385759 2990.65377359702188187 82.009497869018190385759 219.66442343008571925
84.009497869018218807469 2993.54303697848808952 84.009497869018218807469 219.28641113210932190
86.009497869018190385759 2996.32920002385162661 86.009497869018190385759 218.92879655221997837
88.009497869018190385759 2999.01790494656825103 88.009497869018190385759 218.58170589796799277
91.009497869018218807469 3002.87959686573822182 91.009497869018218807469 218.08871825123267740
94.009497869018218807469 3006.54983740351326560 94.009497869018218807469 217.62265770908055629
97.009497869018218807469 3010.04302621825763708 97.009497869018218807469 217.18498863316577285
99.504748934509137825444 3012.82300528467158074 99.504748934509137825444 216.77585901937172252
nan nan nan nan

