Time Pressure difference Time.1 Pressure.1 difference.1
(hr) (psi) (hr) (psi)
0.000200000000020850166 0.19295883396479979 0.000200000000020850166 0.15379820648186354
0.000399999999999067768 0.38584904277218951 0.000399999999999067768 0.40276689487123563
0.000600000000019917934 0.57868138499089861 0.000600000000019917934 0.58937871023371646
0.000799999999998135536 0.77146045392029705 0.000799999999998135536 0.77941596199159424
0.001007140329434719206 0.97106941249443124 0.001007140329434719206 0.97897280599943615
0.001267914553977789183 1.22228939091302125 0.001267914553977789183 1.23205881760246916
0.001596209851982166583 1.53844601790948787 0.001596209851982166583 1.55047008545877141
0.002009509145224797066 1.93629545250258039 0.002009509145224797066 1.95101329467260531
0.002529822128153114136 2.43690215152907586 0.002529822128153114136 2.45478980891883669
0.003184857364431081805 3.06673832888194342 0.003184857364431081805 3.08827731157291163
0.004009497869034817086 3.85905951981972306 0.004009497869034817086 3.88467527628948162
0.005047658755856332391 4.85562315058587846 0.005047658755856332391 4.88557388589743713
0.006354625877790454069 6.10883187674543482 0.006354625877790454069 6.14301681583283443
0.008000000000009777068 7.68440085115189664 0.008000000000009777068 7.72203943280761251
0.010071403294361402914 9.66466797859395577 0.010071403294361402914 9.70377424325061355
0.012679145539692626699 12.15268820097879221 0.012679145539692626699 12.18922273128070444
0.015962098519750611558 15.27727588659382540 0.015962098519750611558 15.30379342681694510
0.020095091452091651263 19.19918135365303868 0.020095091452091651263 19.20269425433391319
0.025298221281360611101 24.11860461618056206 0.025298221281360611101 24.07723363743833644
0.031848573644296607199 30.28425511001969284 0.031848573644296607199 30.16201523841761656
0.040094978690191851456 38.00414992317988805 0.040094978690191851456 37.74288442781472952
0.050476587558435426217 47.65828849779958887 0.050476587558435426217 47.16527014567168408
0.063546258777947173257 59.71322410576824780 0.063546258777947173257 58.84222160153493064
0.080000000000012505552 74.73833551990486512 0.080000000000012505552 73.26090996070891492
0.100714032943542974863 93.42323566901745835 0.100714032943542974863 90.98558327474022178
0.126791455396883634421 116.59517033570786282 0.126791455396883634421 112.65385516145617828
0.159620985197506115583 145.23437511550196177 0.159620985197506115583 138.96171115482493974
0.200950914520774404082 180.48407783286126005 0.200950914520774404082 170.63071129762408873
0.252982212813464002465 223.65006653804823600 0.252982212813464002465 208.34863825430744555
0.318485736442809752589 276.18244126419614304 0.318485736442809752589 252.67259681302374474
0.400949786901833249431 339.62939756221663856 0.400949786901833249431 303.88209798271532236
0.504765875584169521062 415.54998810173702850 0.504765875584169521062 361.77073604490988146
0.635462587779443310865 505.37069705675338582 0.635462587779443310865 425.37237710966087434
0.800000000000011368684 610.17141959465516265 0.800000000000011368684 492.63795564340347255
1.007140329435344483500 730.39406516496046606 1.007140329435344483500 560.12103684489738953
1.267914553968907398485 865.48765258380842624 1.267914553968907398485 622.79932121300032577
1.596209851975117999245 1013.54344888262653512 1.596209851975117999245 674.23967186567733734
2.009509145207687197399 1171.03068844090739731 2.009509145207687197399 707.34741817926749263
2.529822128134725289783 1332.79573678342512721 2.529822128134725289783 715.82535476330031088
3.184857364427983839050 1492.48649978560638374 3.184857364427983839050 696.12895410242538219
4.009497869018204596614 1643.45479760990428986 4.009497869018204596614 649.34164086234704882
5.009497869018190385759 1775.74603043151068960 5.009497869018190385759 584.13338107480922190
6.009497869018190385759 1871.40487126483253633 6.009497869018190385759 521.95210046999204678
7.009497869018204596614 1942.91005676707254679 7.009497869018204596614 467.43735894160283806
8.009497869018190385759 1997.99507231946336105 8.009497869018190385759 421.64307942498032844
9.009497869018204596614 2041.59549710148530721 9.009497869018204596614 384.35884204510176687
10.009497869018190385759 2076.94746719389331702 10.009497869018190385759 354.33937201564708630
11.009497869018190385759 2106.23035647632423206 11.009497869018190385759 328.97388547080635135
12.009497869018204596614 2130.94544704527334034 12.009497869018204596614 308.17284590446740822
13.009497869018190385759 2152.15076469822679428 13.009497869018190385759 291.06191725774715451
14.009497869018204596614 2170.60734950868572923 14.009497869018204596614 276.92191807425780326
15.009497869018190385759 2186.87313657194454208 15.009497869018190385759 265.17189460304803106
16.009497869018190385759 2201.36447406706247421 16.009497869018190385759 255.34792899072991190
17.009497869018204596614 2214.39724628772864889 17.009497869018204596614 247.30029706887958696
18.009497869018190385759 2226.21488774134741107 18.009497869018190385759 240.26264334796655930
19.009497869018204596614 2237.00823792527398837 19.009497869018204596614 234.54957157681016611
20.009497869018190385759 2246.92773969532800038 20.009497869018190385759 229.35830971370583597
21.009497869018190385759 2256.09431370235779468 21.009497869018190385759 224.88166813009829070
22.009497869018204596614 2264.60689243675824400 22.009497869018204596614 220.99509399771665130
23.009497869018190385759 2272.54558192137619699 23.009497869018190385759 217.70487737112432569
24.009497869018204596614 2279.97758538255584426 24.009497869018204596614 214.70937422748701806
25.009497869018204596614 2286.95893501214322896 25.009497869018204596614 212.06304642402633931
26.009497869018190385759 2293.53682349190921741 26.009497869018190385759 209.82591283036734353
27.009497869018204596614 2299.75175354847215203 27.009497869018204596614 207.71226139542153533
28.009497869018190385759 2305.63811300285169636 28.009497869018190385759 205.81814743093738684
29.009497869018190385759 2311.22591676320462284 29.009497869018190385759 204.16144296499905408
30.009497869018190385759 2316.54112146188253973 30.009497869018190385759 202.60994260889506791
31.009497869018218807469 2321.60638518081759685 31.009497869018218807469 201.19919958288164707
32.009497869018190385759 2326.44195033206688095 32.009497869018190385759 199.91260803699236703
33.009497869018190385759 2331.06522075206112277 33.009497869018190385759 198.78180302311923811
34.009497869018218807469 2335.49227063908392665 34.009497869018218807469 197.68998223516800294
35.009497869018190385759 2339.73694028329055072 35.009497869018190385759 196.70914824531791965
36.009497869018190385759 2343.81185731217829016 36.009497869018190385759 195.77335710073049313
37.009497869018190385759 2347.72856004645518624 37.009497869018190385759 194.90387652126821649
38.009497869018218807469 2351.49710490332836343 38.009497869018218807469 194.09435989612902063
39.009497869018190385759 2355.12688506022959700 39.009497869018190385759 193.35216192097115595
40.009497869018190385759 2358.62644566863036744 40.009497869018190385759 192.68411196239128458
41.009497869018218807469 2362.00338430975398296 41.009497869018218807469 191.99743467983526557
42.009497869018190385759 2365.26482337718198323 42.009497869018190385759 191.37884313060445152
43.009497869018190385759 2368.41733183212909353 43.009497869018190385759 190.77021732932570330
44.009497869018218807469 2371.46676790416177028 44.009497869018218807469 190.21702854439172370
46.009497869018190385759 2377.27814931082275507 46.009497869018190385759 189.19056848562104278
48.009497869018218807469 2382.73827053799550413 48.009497869018218807469 188.24455098099528527
50.009497869018190385759 2387.88091735820171380 50.009497869018190385759 187.39626306937756794
52.009497869018190385759 2392.73532299515863997 52.009497869018190385759 186.61692565806487210
54.009497869018218807469 2397.32707200179538631 54.009497869018218807469 185.88805602679809681
56.009497869018190385759 2401.67852422880605445 56.009497869018190385759 185.21425297089095352
58.009497869018218807469 2405.80949048060074347 58.009497869018218807469 184.61134793952470545
60.009497869018190385759 2409.73748615654631067 60.009497869018190385759 184.02494586968106205
62.009497869018190385759 2413.47812116730483467 62.009497869018190385759 183.47712477857228919
64.009497869018218807469 2417.04538401859144869 64.009497869018218807469 182.96335839355199937
66.009497869018190385759 2420.45177016709931195 66.009497869018190385759 182.48521941687860703
68.009497869018190385759 2423.70861964217283457 68.009497869018190385759 182.03809709423035201
70.009497869018190385759 2426.82610536540914836 70.009497869018190385759 181.60612438839791594
72.009497869018190385759 2429.81349258988120710 72.009497869018190385759 181.20113664363367434
74.009497869018218807469 2432.67921685221972439 74.009497869018218807469 180.81452916985031720
76.009497869018190385759 2435.43092395297617259 76.009497869018190385759 180.44678245666420935
78.009497869018190385759 2438.07564175717334365 78.009497869018190385759 180.09807884005118694
80.009497869018218807469 2440.61980002330437856 80.009497869018218807469 179.76401499181622512
82.009497869018190385759 2443.06927983982086516 82.009497869018190385759 179.44417688654891663
84.009497869018218807469 2445.42952316552509728 84.009497869018218807469 179.13537810792030314
86.009497869018190385759 2447.70554368145621993 86.009497869018190385759 178.84324225392617791
88.009497869018190385759 2449.90195051973159934 88.009497869018190385759 178.55970340960763565
91.009497869018218807469 2453.05657208750426435 91.009497869018218807469 178.15698110664078513
94.009497869018218807469 2456.05479675216611213 94.009497869018218807469 177.77625559333341698
97.009497869018218807469 2458.90838761491477271 97.009497869018218807469 177.41872310878329699
99.504748934509137825444 2461.17935642973179711 99.504748934509137825444 177.08450455103607624
nan nan nan nan

