Time Pressure difference Time.1 Pressure.1 difference.1
(hr) (psi) (hr) (psi)
0.000200000000020850166 0.59467916502082696 0.000200000000020850166 0.47399016221781215
0.000399999999999067768 1.18914683440567015 0.000399999999999067768 1.24128590445229947
0.000600000000019917934 1.78343616495039892 0.000600000000019917934 1.81640421472891078
0.000799999999998135536 2.37756131272850180 0.000799999999998135536 2.40207936562064628
0.001007140329434719206 2.99273547385137206 0.001007140329434719206 3.01709291504136523
0.001267914553977789183 3.76696945906383718 0.001267914553977789183 3.79707782149036843
0.001596209851982166583 4.74133147760898144 0.001596209851982166583 4.77838840992681657
0.002009509145224797066 5.96746227818683206 0.002009509145224797066 6.01282114521945132
0.002529822128153114136 7.51028033768659231 0.002529822128153114136 7.56540824731451877
0.003184857364431081805 9.45137028082150721 0.003184857364431081805 9.51775119730444885
0.004009497869034817086 11.89322222703061094 0.004009497869034817086 11.97216733856456727
0.005047658755856332391 14.96452824426251382 0.005047658755856332391 15.05683331214080845
0.006354625877790454069 18.82678789600424807 0.006354625877790454069 18.93214234189860790
0.008000000000009777068 23.68252848523106380 0.008000000000009777068 23.79852670024759576
0.010071403294361402914 29.78550691678740847 0.010071403294361402914 29.90602837898357436
0.012679145539692626699 37.45332786077516118 0.012679145539692626699 37.56592350373148292
0.015962098519750611558 47.08298387463183587 0.015962098519750611558 47.16470819040566909
0.020095091452091651263 59.16989080974965987 0.020095091452091651263 59.18071720624460141
0.025298221281360611101 74.33104439900475313 0.025298221281360611101 74.20354332227762484
0.031848573644296607199 93.33294139510380205 0.031848573644296607199 92.95621075633015096
0.040094978690191851456 117.12485859945526556 0.040094978690191851456 116.31966537020487351
0.050476587558435426217 146.87791498244271793 0.050476587558435426217 145.35848342308301540
0.063546258777947173257 184.02997946389783124 0.063546258777947173257 181.34563984955806859
0.080000000000012505552 230.33581852039645810 0.080000000000012505552 225.78254578408137832
0.100714032943542974863 287.92074785925643710 0.100714032943542974863 280.40815535103126876
0.126791455396883634421 359.33425340530658332 0.126791455396883634421 347.18752776052230047
0.159620985197506115583 447.59731986027549056 0.159620985197506115583 428.26561842974064120
0.200950914520774404082 556.23325711420613970 0.200950914520774404082 525.86620076638450882
0.252982212813464002465 689.26636885648485986 0.252982212813464002465 642.10894979237002644
0.318485736442809752589 851.16571337888046855 0.318485736442809752589 778.71080483324124089
0.400949786901833249431 1046.70266921114171055 0.400949786901833249431 936.53318990362686236
0.504765875584169521062 1280.68207539974969222 0.504765875584169521062 1114.93998393151105120
0.635462587779443310865 1557.50020860163203906 0.635462587779443310865 1310.95366221296353615
0.800000000000011368684 1880.48519400938994295 0.800000000000011368684 1518.25921674583401000
1.007140329435344483500 2250.99895083166711629 1.007140329435344483500 1726.23509200043827150
1.267914553968907398485 2667.34341205785813145 1.267914553968907398485 1919.40308046247969287
1.596209851975117999245 3123.63606013395656191 1.596209851975117999245 2077.93691975844512854
2.009509145207687197399 3608.99544066917542295 2.009509145207687197399 2179.97156895765647278
2.529822128134725289783 4107.53858534546907322 2.529822128134725289783 2206.09969248172319567
3.184857364427983839050 4599.68899718408829358 3.184857364427983839050 2145.39742320359528094
4.009497869018204596614 5064.95767366845484503 4.009497869018204596614 2001.20376386456109685
5.009497869018190385759 5472.66556792469873471 5.009497869018190385759 1800.23865288141655583
6.009497869018190385759 5767.47621963084202434 6.009497869018190385759 1608.60237860363918116
7.009497869018204596614 5987.84780426058932790 7.009497869018204596614 1440.59358466916410180
8.009497869018190385759 6157.61412374317296781 8.009497869018190385759 1299.46035253819354693
9.009497869018204596614 6291.98612253259489080 9.009497869018204596614 1184.55418992348177198
10.009497869018190385759 6400.93723725704239769 10.009497869018190385759 1092.03728875511933438
11.009497869018190385759 6491.18407276108700898 11.009497869018190385759 1013.86348323976960728
12.009497869018204596614 6567.35342516107812116 12.009497869018204596614 949.75683112799208629
13.009497869018190385759 6632.70602051393234433 13.009497869018190385759 897.02271913486720223
14.009497869018204596614 6689.58730559788818937 14.009497869018204596614 853.44470440988936843
15.009497869018190385759 6739.71677865922538331 15.009497869018190385759 817.23234759129036320
16.009497869018190385759 6784.37758171530003892 16.009497869018190385759 786.95590184643060638
17.009497869018204596614 6824.54323748157730734 17.009497869018204596614 762.15393277693488017
18.009497869018190385759 6860.96398592699642904 18.009497869018190385759 740.46461204222464403
19.009497869018204596614 6894.22797464039285842 19.009497869018204596614 722.85751585094510574
20.009497869018190385759 6924.79885294034374965 20.009497869018190385759 706.85858381594687216
21.009497869018190385759 6953.04928576373185933 21.009497869018190385759 693.06203755612193618
22.009497869018204596614 6979.28417281156180252 22.009497869018204596614 681.08401813951479653
23.009497869018190385759 7003.75039255941373995 23.009497869018190385759 670.94391086359439669
24.009497869018204596614 7026.65505839882462169 24.009497869018204596614 661.71208005453979695
25.009497869018204596614 7048.17085574863085640 25.009497869018204596614 653.55637152232259268
26.009497869018190385759 7068.44322757204736263 26.009497869018190385759 646.66175721427862300
27.009497869018204596614 7087.59699908257425705 27.009497869018204596614 640.14770214537236370
28.009497869018190385759 7105.73814998723719327 28.009497869018190385759 634.31023884965611614
29.009497869018190385759 7122.95918312797948602 29.009497869018190385759 629.20444706885484720
30.009497869018190385759 7139.34009416054414032 30.009497869018190385759 624.42288347137923665
31.009497869018218807469 7154.95071294950230367 31.009497869018218807469 620.07511940413962748
32.009497869018190385759 7169.85342451477481518 32.009497869018190385759 616.10997735538592224
33.009497869018190385759 7184.10186567984328576 33.009497869018190385759 612.62495328245802284
34.009497869018218807469 7197.74557546096912120 34.009497869018218807469 609.26007456097033810
35.009497869018190385759 7210.82720820065878797 35.009497869018190385759 606.23724566983753448
36.009497869018190385759 7223.38568094054971880 36.009497869018190385759 603.35323416819960585
37.009497869018190385759 7235.45655359144438989 37.009497869018190385759 600.67358496856365946
38.009497869018218807469 7247.07081899086006160 38.009497869018218807469 598.17873847298392320
39.009497869018190385759 7258.25742593993163609 39.009497869018190385759 595.89136109264825336
40.009497869018190385759 7269.04270971151254344 40.009497869018190385759 593.83250022892138986
41.009497869018218807469 7279.45008526497440471 41.009497869018218807469 591.71623187966474688
42.009497869018190385759 7289.50150308053889603 42.009497869018190385759 589.80979671716454504
43.009497869018190385759 7299.21720801712126558 43.009497869018190385759 587.93407495891324288
44.009497869018218807469 7308.61525453222384385 44.009497869018218807469 586.22920435017283580
46.009497869018190385759 7326.52533085016420955 46.009497869018190385759 583.06576063456486736
48.009497869018218807469 7343.35285963218484540 48.009497869018218807469 580.15023254918810380
50.009497869018190385759 7359.20196513411428896 50.009497869018190385759 577.53589695950415717
52.009497869018190385759 7374.16274112732116919 52.009497869018190385759 575.13405967894993864
54.009497869018218807469 7388.31403655725716817 54.009497869018218807469 572.88775887569249790
56.009497869018190385759 7401.72476217067378457 56.009497869018190385759 570.81116756115090993
58.009497869018218807469 7414.45597281736900186 58.009497869018218807469 568.95307662396623982
60.009497869018190385759 7426.56164914625242091 60.009497869018190385759 567.14584610699114364
62.009497869018190385759 7438.08989928716800932 62.009497869018190385759 565.45751817534130623
64.009497869018218807469 7449.08383436764142971 64.009497869018218807469 563.87414332495552571
66.009497869018190385759 7459.58196409256925108 66.009497869018190385759 562.40056846150082492
68.009497869018190385759 7469.61923725928318163 68.009497869018190385759 561.02258371713230645
70.009497869018190385759 7479.22700575977250992 70.009497869018190385759 559.69128852458845813
72.009497869018190385759 7488.43382414553980198 72.009497869018190385759 558.44315819050893879
74.009497869018218807469 7497.26568986783240689 74.009497869018218807469 557.25167395018524985
76.009497869018190385759 7505.74616649300878635 76.009497869018190385759 556.11831662290910572
78.009497869018190385759 7513.89691317404867732 78.009497869018190385759 555.04364814929556360
80.009497869018218807469 7521.73774576147661719 80.009497869018218807469 554.01409792736467352
82.009497869018190385759 7529.28678916151693556 82.009497869018190385759 553.02838997363130602
84.009497869018218807469 7536.56081492823523149 84.009497869018218807469 552.07670408259923533
86.009497869018190385759 7543.57527470793593238 86.009497869018190385759 551.17637160153969944
88.009497869018190385759 7550.34437336899918591 88.009497869018190385759 550.30253421495456223
91.009497869018218807469 7560.06659070071418682 91.009497869018218807469 549.06138573813859693
94.009497869018218807469 7569.30680895602836245 94.009497869018218807469 547.88802909152320808
97.009497869018218807469 7578.10128079596597672 97.009497869018218807469 546.78615096025885123
99.504748934509137825444 7585.10017175542361656 99.504748934509137825444 545.75612393961546331
nan nan nan nan

