Time Pressure difference Time.1 Pressure.1 difference.1
(hr) (psi) (hr) (psi)
0.000200000000020850166 0.47158473645707538 0.000200000000020850166 0.37587751325524404
0.000399999999999067768 0.94300175539582520 0.000399999999999067768 0.98434840255168354
0.000600000000019917934 1.41427735038723945 0.000600000000019917934 1.44042124440740205
0.000799999999998135536 1.88542274729658810 0.000799999999998135536 1.90486573469497378
0.001007140329434719206 2.37326015898423481 0.001007140329434719206 2.39257578017965589
0.001267914553977789183 2.98723312348139247 0.001267914553977789183 3.01110926543362112
0.001596209851982166583 3.75990901790810206 0.001596209851982166583 3.78929542437553168
0.002009509145224797066 4.73223931710759960 0.002009509145224797066 4.76820921585934077
0.002529822128153114136 5.95570482722838879 0.002529822128153114136 5.99942164507319120
0.003184857364431081805 7.49500272618992192 0.003184857364431081805 7.54764325716310758
0.004009497869034817086 9.43140839542147802 0.004009497869034817086 9.49401242093162168
0.005047658755856332391 11.86697554475083294 0.005047658755856332391 11.94017410906830534
0.006354625877790454069 14.92977445739078135 0.006354625877790454069 15.01332126972938319
0.008000000000009777068 18.78041070087553877 0.008000000000009777068 18.87239809655998002
0.010071403294361402914 23.62011527527057453 0.010071403294361402914 23.71568963759956361
0.012679145539692626699 29.70075090497834580 0.012679145539692626699 29.79004003722482707
0.015962098519750611558 37.33713546421852669 0.015962098519750611558 37.40194341812589585
0.020095091452091651263 46.92213718759168728 0.020095091452091651263 46.93072259572124239
0.025298221281360611101 58.94503800592404730 0.025298221281360611101 58.84392876046351262
0.031848573644296607199 74.01367520422915902 0.031848573644296607199 73.71492517320166371
0.040094978690191851456 92.88083192432326030 0.040094978690191851456 92.24230806280581874
0.050476587558435426217 116.47521369936364977 0.050476587558435426217 115.27029384739589091
0.063546258777947173257 145.93706063780427939 0.063546258777947173257 143.80836055202718171
0.080000000000012505552 182.65791482666404022 0.080000000000012505552 179.04713770569810549
0.100714032943542974863 228.32316648419353555 0.100714032943542974863 222.36562808955906689
0.126791455396883634421 284.95457577735498944 0.126791455396883634421 275.32213739890369197
0.159620985197506115583 354.94780470038625708 0.159620985197506115583 339.61763027924888547
0.200950914520774404082 441.09686263462214129 0.200950914520774404082 417.01557459376232373
0.252982212813464002465 546.59305054772994481 0.252982212813464002465 509.19688745772560878
0.318485736442809752589 674.98036291723803970 0.318485736442809752589 617.52311376286399991
0.400949786901833249431 830.04253628352080341 0.400949786901833249431 742.67736877672223272
0.504765875584169521062 1015.58984161071066410 0.504765875584169521062 884.15520404079268246
0.635462587779443310865 1235.10855703094466662 0.635462587779443310865 1039.59542164300728473
0.800000000000011368684 1491.23790909555805229 0.800000000000011368684 1203.99017607676614716
1.007140329435344483500 1785.05790926091640358 1.007140329435344483500 1368.91649953041746812
1.267914553968907398485 2115.22197851301416449 1.267914553968907398485 1522.10006520591036860
1.596209851975117999245 2477.06523929504010084 1.596209851975117999245 1647.81850839585786161
2.009509145207687197399 2861.95862218101046892 2.009509145207687197399 1728.73269873984781952
2.529822128134725289783 3257.30682222500854550 2.529822128134725289783 1749.45248340858324809
3.184857364427983839050 3647.58554042430523623 3.184857364427983839050 1701.31515937963445140
4.009497869018204596614 4016.54685450351644249 4.009497869018204596614 1586.96857917651209391
5.009497869018190385759 4339.86206575287360465 5.009497869018190385759 1427.60184081645206788
6.009497869018190385759 4573.64897416879284719 6.009497869018190385759 1275.63293520036859263
7.009497869018204596614 4748.40518184021584602 7.009497869018204596614 1142.40078672365871171
8.009497869018190385759 4883.03106036696408410 8.009497869018190385759 1030.48114669812002830
9.009497869018204596614 4989.58899507130263373 9.009497869018204596614 939.35975620505485040
10.009497869018190385759 5075.98799094369587692 10.009497869018190385759 865.99320660720650267
11.009497869018190385759 5147.55436259515590791 11.009497869018190385759 804.00083216356563298
12.009497869018204596614 5207.95719170116262831 12.009497869018204596614 753.16380874065953321
13.009497869018190385759 5259.78225682713218703 13.009497869018190385759 711.34528916009742261
14.009497869018204596614 5304.88951366993387637 14.009497869018204596614 676.78761874182828251
15.009497869018190385759 5344.64253636332978203 15.009497869018190385759 648.07096655141481278
16.009497869018190385759 5380.05886550010563951 16.009497869018190385759 624.06153335234432689
17.009497869018204596614 5411.91051140147465048 17.009497869018204596614 604.39339843989102974
18.009497869018190385759 5440.79241960924082377 18.009497869018190385759 587.19361542369415474
19.009497869018204596614 5467.17099527426853456 19.009497869018204596614 573.23106501746281083
20.009497869018190385759 5491.41391554849633394 20.009497869018190385759 560.54380003306550861
21.009497869018190385759 5513.81670633291741979 21.009497869018190385759 549.60304236967988345
22.009497869018204596614 5534.62115522259500722 22.009497869018204596614 540.10438920993681222
23.009497869018190385759 5554.02303857508741203 23.009497869018190385759 532.06321323029089854
24.009497869018204596614 5572.18659875822868344 24.009497869018204596614 524.74230684045323869
25.009497869018204596614 5589.24877651674705703 25.009497869018204596614 518.27477294147820430
26.009497869018190385759 5605.32490913755373185 26.009497869018190385759 512.80729558111329425
27.009497869018204596614 5620.51398388786037685 27.009497869018204596614 507.64160435863789189
28.009497869018190385759 5634.90004341645271779 28.009497869018190385759 503.01245514371333911
29.009497869018190385759 5648.55644312386630190 29.009497869018190385759 498.96352655670023069
30.009497869018190385759 5661.54662012451444753 30.009497869018190385759 495.17171318639441324
31.009497869018218807469 5673.92594998932599992 31.009497869018218807469 491.72390587712880006
32.009497869018190385759 5685.74390447535279236 32.009497869018190385759 488.57952050420107071
33.009497869018190385759 5697.04301795870105707 33.009497869018190385759 485.81587204357157361
34.009497869018218807469 5707.86257522569121647 34.009497869018218807469 483.14749968681149994
35.009497869018190385759 5718.23640146821435337 35.009497869018190385759 480.75037523747954538
36.009497869018190385759 5728.19535817243558995 36.009497869018190385759 478.46333394876813827
37.009497869018190385759 5737.76764459629339399 37.009497869018190385759 476.33835339465116476
38.009497869018218807469 5746.97783827666808065 38.009497869018218807469 474.35992267717739423
39.009497869018190385759 5755.84889581530205760 39.009497869018190385759 472.54601641892526231
40.009497869018190385759 5764.40170126773136872 40.009497869018190385759 470.91332535636149714
41.009497869018218807469 5772.65482286047608795 41.009497869018218807469 469.23510975632154896
42.009497869018190385759 5780.62566747785422194 42.009497869018190385759 467.72329334074453300
43.009497869018190385759 5788.33028943455701665 43.009497869018190385759 466.23583286951577520
44.009497869018218807469 5795.78300604163723619 44.009497869018218807469 464.88385855461245910
46.009497869018190385759 5809.98582180705307110 46.009497869018190385759 462.37522556615141411
48.009497869018218807469 5823.33016980622142000 48.009497869018218807469 460.06319140613931040
50.009497869018190385759 5835.89862130215715297 50.009497869018190385759 457.99000500145297110
52.009497869018190385759 5847.76262128558209952 52.009497869018190385759 456.08533124190847730
54.009497869018218807469 5858.98469752162873192 54.009497869018218807469 454.30399899652809381
56.009497869018190385759 5869.61949671436559584 56.009497869018190385759 452.65724756247919913
58.009497869018218807469 5879.71543578664113738 58.009497869018218807469 451.18376845564870337
60.009497869018190385759 5889.31532177052486077 60.009497869018190385759 449.75062201771186210
62.009497869018190385759 5898.45730474940501153 62.009497869018190385759 448.41176616142456623
64.009497869018218807469 5907.17557214888438466 64.009497869018218807469 447.15613883251717198
66.009497869018190385759 5915.50066243424680579 66.009497869018190385759 445.98758366107824713
68.009497869018190385759 5923.46029024617200776 68.009497869018190385759 444.89483212253713873
70.009497869018190385759 5931.07931785425353155 70.009497869018190385759 443.83910572509324766
72.009497869018190385759 5938.38038921751194721 72.009497869018190385759 442.84932964198401351
74.009497869018218807469 5945.38412049658927572 74.009497869018218807469 441.90447430734974432
76.009497869018190385759 5952.10919776438549889 76.009497869018190385759 441.00571402124398901
78.009497869018190385759 5958.57279688067865209 78.009497869018190385759 440.15349440650442148
80.009497869018218807469 5964.79063195350681781 80.009497869018218807469 439.33705388086116272
82.009497869018190385759 5970.77707616025236348 82.009497869018190385759 438.55538058048801986
84.009497869018218807469 5976.54542946057244990 84.009497869018218807469 437.80068701375353157
86.009497869018190385759 5982.10794511804124340 86.009497869018190385759 437.08671706024199466
88.009497869018190385759 5987.47588769261983543 88.009497869018190385759 436.39375790192906379
91.009497869018218807469 5995.18567402420285362 91.009497869018218807469 435.40951848045398265
94.009497869018218807469 6002.51323171757758246 94.009497869018218807469 434.47903845439668657
97.009497869018218807469 6009.48730938645076094 97.009497869018218807469 433.60524139086260220
99.504748934509137825444 6015.03747886059409211 99.504748934509137825444 432.78842276050630744
nan nan nan nan

