Time Pressure difference Time.1 Pressure.1 difference.1
(hr) (psi) (hr) (psi)
0.000200000000020850166 0.59052056946124076 0.000200000000020850166 0.47067554569880649
0.000399999999999067768 1.18083112227695919 0.000399999999999067768 1.23260558344214344
0.000600000000019917934 1.77096458337731910 0.000600000000019917934 1.80370208735318416
0.000799999999998135536 2.36093500984228832 0.000799999999998135536 2.38528160781910303
0.001007140329434719206 2.97180725375450949 0.001007140329434719206 2.99599436318792911
0.001267914553977789183 3.74062701529416008 0.001267914553977789183 3.77052482973169445
0.001596209851982166583 4.70817531342989781 0.001596209851982166583 4.74497310636089509
0.002009509145224797066 5.92573177274496654 0.002009509145224797066 5.97077344490323103
0.002529822128153114136 7.45776089476570725 0.002529822128153114136 7.51250329453609567
0.003184857364431081805 9.38527678235422336 0.003184857364431081805 9.45119349662399699
0.004009497869034817086 11.81005284082760021 0.004009497869034817086 11.88844588864453478
0.005047658755856332391 14.85988119360333393 0.005047658755856332391 14.95154077149646632
0.006354625877790454069 18.69513203659163025 0.006354625877790454069 18.79974973810910299
0.008000000000009777068 23.51691639792175081 0.008000000000009777068 23.63210343660950130
0.010071403294361402914 29.57721665862805338 0.010071403294361402914 29.69689531339627919
0.012679145539692626699 37.19141647713338017 0.012679145539692626699 37.30322473797112792
0.015962098519750611558 46.75373223914490239 0.015962098519750611558 46.83488505620702824
0.020095091452091651263 58.75611534954162352 0.020095091452091651263 58.76686603697017119
0.025298221281360611101 73.81124688572499792 0.025298221281360611101 73.68463742491903190
0.031848573644296607199 92.68026348324993080 0.031848573644296607199 92.30616732446769390
0.040094978690191851456 116.30580364421430772 0.040094978690191851456 115.50624113684679628
0.050476587558435426217 145.85079669585221041 0.050476587558435426217 144.34199053201248830
0.063546258777947173257 182.74305653058385701 0.063546258777947173257 180.07748852193878975
0.080000000000012505552 228.72507853074333184 0.080000000000012505552 224.20364686251434705
0.100714032943542974863 285.90731605604480592 0.100714032943542974863 278.44725915976533770
0.126791455396883634421 356.82142645841628337 0.126791455396883634421 344.75964295100811796
0.159620985197506115583 444.46726867244137793 0.159620985197506115583 425.27075396519700234
0.200950914520774404082 552.34351405746338060 0.200950914520774404082 522.18881474703925960
0.252982212813464002465 684.44632431902687131 0.252982212813464002465 637.61867741619960270
0.318485736442809752589 845.21350559301424710 0.318485736442809752589 773.26527472951215714
0.400949786901833249431 1039.38307012574932742 0.400949786901833249431 929.98400675744767341
0.504765875584169521062 1271.72625669066042065 0.504765875584169521062 1107.14320082709491544
0.635462587779443310865 1546.60859875127107443 0.635462587779443310865 1301.78615408560017386
0.800000000000011368684 1867.33494789743599540 0.800000000000011368684 1507.64201942593308559
1.007140329435344483500 2235.25769942724946304 1.007140329435344483500 1714.16351793050512242
1.267914553968907398485 2648.69066092458615458 1.267914553968907398485 1905.98068129840635265
1.596209851975117999245 3101.79245132183132228 1.596209851975117999245 2063.40589234754679637
2.009509145207687197399 3583.75771031484555351 2.009509145207687197399 2164.72701253137893218
2.529822128134725289783 4078.81453929410281489 2.529822128134725289783 2190.67242190492788723
3.184857364427983839050 4567.52333986112262210 3.184857364427983839050 2130.39464402035355306
4.009497869018204596614 5029.53838923720650200 4.009497869018204596614 1987.20933194942426780
5.009497869018190385759 5434.39517933781280590 5.009497869018190385759 1787.64957139273519715
6.009497869018190385759 5727.14421809496161586 6.009497869018190385759 1597.35341092109638339
7.009497869018204596614 5945.97474269233316591 7.009497869018204596614 1430.51950365749166849
8.009497869018190385759 6114.55388511559885956 8.009497869018190385759 1290.37321720575891959
9.009497869018204596614 6247.98621957782142999 9.009497869018204596614 1176.27059418975113658
10.009497869018190385759 6356.17543839510472026 10.009497869018190385759 1084.40066435823041502
11.009497869018190385759 6445.79117714737276401 11.009497869018190385759 1006.77352881151944075
12.009497869018204596614 6521.42787673337898013 12.009497869018204596614 943.11517496625788226
13.009497869018190385759 6586.32346092991883779 13.009497869018190385759 890.74983298707093127
14.009497869018204596614 6642.80697478951151425 14.009497869018204596614 847.47655962380622441
15.009497869018190385759 6692.58589209517504059 15.009497869018190385759 811.51743606967283995
16.009497869018190385759 6736.93438184316528350 16.009497869018190385759 781.45271372163040269
17.009497869018204596614 6776.81915889779065765 17.009497869018204596614 756.82418499527796030
18.009497869018190385759 6812.98521679464101908 18.009497869018190385759 735.28653783213906081
19.009497869018204596614 6846.01659020234819764 19.009497869018204596614 717.80256818765178650
20.009497869018190385759 6876.37368613656508387 20.009497869018190385759 701.91551679625479210
21.009497869018190385759 6904.42656348566379165 21.009497869018190385759 688.21544988090431616
22.009497869018204596614 6930.47798978490754962 22.009497869018204596614 676.32119283783970332
23.009497869018190385759 6954.77311708697106951 23.009497869018190385759 666.25199540300980061
24.009497869018204596614 6977.51761043799342588 24.009497869018204596614 657.08472285136110713
25.009497869018204596614 6998.88294766647322831 25.009497869018204596614 648.98604724594270010
26.009497869018190385759 7019.01355465196411387 26.009497869018190385759 642.13964702396901885
27.009497869018204596614 7038.03338370437541016 27.009497869018204596614 635.67114478771236463
28.009497869018190385759 7056.04767341390015645 28.009497869018190385759 629.87450291364461918
29.009497869018190385759 7073.14827974946274480 29.009497869018190385759 624.80441597047115465
30.009497869018190385759 7089.41463895662309369 30.009497869018190385759 620.05628988067030605
31.009497869018218807469 7104.91609257922664256 31.009497869018218807469 615.73892975795672555
32.009497869018190385759 7119.71458937830720970 32.009497869018190385759 611.80151597527833474
33.009497869018190385759 7133.86339109466916852 33.009497869018190385759 608.34086270006321229
34.009497869018218807469 7147.41169031788558641 34.009497869018218807469 604.99951459900557893
35.009497869018190385759 7160.40184310834501957 35.009497869018190385759 601.99782437144699543
36.009497869018190385759 7172.87249436054571561 36.009497869018190385759 599.13398078240811628
37.009497869018190385759 7184.85895531458209007 37.009497869018190385759 596.47307038836379434
38.009497869018218807469 7196.39200207484009297 38.009497869018218807469 593.99567037177416751
39.009497869018190385759 7207.50038100328856672 39.009497869018190385759 591.72428863745483341
40.009497869018190385759 7218.21024321003369550 40.009497869018190385759 589.67982540214575238
41.009497869018218807469 7228.54483991347115079 41.009497869018218807469 587.57835613225449833
42.009497869018190385759 7238.52596809396254685 42.009497869018190385759 585.68525268417749885
43.009497869018190385759 7248.17373103798126976 43.009497869018190385759 583.82264786129837830
44.009497869018218807469 7257.50605694808291446 44.009497869018218807469 582.12969942464701489
46.009497869018190385759 7275.29088797708664060 46.009497869018190385759 578.98837769306442169
48.009497869018218807469 7292.00074173265875288 48.009497869018218807469 576.09323791597705622
50.009497869018190385759 7307.73901432898037456 50.009497869018190385759 573.49718439335379117
52.009497869018190385759 7322.59516951104706095 52.009497869018190385759 571.11214317769849913
54.009497869018218807469 7336.64750483308034745 54.009497869018218807469 568.88155077166663887
56.009497869018190385759 7349.96444914850053465 56.009497869018190385759 566.81948107470930154
58.009497869018218807469 7362.60663035011475586 58.009497869018218807469 564.97438378044205365
60.009497869018190385759 7374.62765159977607254 60.009497869018190385759 563.17979123911004535
62.009497869018190385759 7386.07528460683806770 62.009497869018190385759 561.50326979649287296
64.009497869018218807469 7396.99233902241303440 64.009497869018218807469 559.93096749750827712
66.009497869018190385759 7407.41705525276120170 66.009497869018190385759 558.46769735337841212
68.009497869018190385759 7417.38413769802900788 68.009497869018190385759 557.09934886596363413
70.009497869018190385759 7426.92471900620785163 70.009497869018190385759 555.77736343001095065
72.009497869018190385759 7436.06715404662008950 72.009497869018190385759 554.53796128008582400
74.009497869018218807469 7444.83725847015557520 74.009497869018218807469 553.35480909738680566
76.009497869018190385759 7453.25843106298816565 76.009497869018190385759 552.22937734582581015
78.009497869018190385759 7461.35217951548838755 78.009497869018190385759 551.16222403636356830
80.009497869018218807469 7469.13818110580177745 80.009497869018218807469 550.13987346633416564
82.009497869018190385759 7476.63443399255538679 82.009497869018190385759 549.16105857521426969
84.009497869018218807469 7483.85759244622022379 84.009497869018218807469 548.21602783027333317
86.009497869018190385759 7490.82300005962861178 86.009497869018190385759 547.32199138055000276
88.009497869018190385759 7497.54476236641949072 88.009497869018190385759 546.45426474491989666
91.009497869018218807469 7507.19899216434623668 91.009497869018218807469 545.22179562808162245
94.009497869018218807469 7516.37459350878361874 94.009497869018218807469 544.05664427270130545
97.009497869018218807469 7525.10756554564432008 97.009497869018218807469 542.96247158291441792
99.504748934509137825444 7532.05751321167917922 99.504748934509137825444 541.93964754842943421
nan nan nan nan

