Time Pressure difference Time.1 Pressure.1 difference.1
(hr) (psi) (hr) (psi)
0.000200000000020850166 0.53063679340319947 0.000200000000020850166 0.42294506782512475
0.000399999999999067768 1.06108486762352117 0.000399999999999067768 1.10760896089589789
0.000600000000019917934 1.59137380872497136 0.000600000000019917934 1.62079145314272055
0.000799999999998135536 2.12151624828081697 0.000799999999998135536 2.14339389547688430
0.001007140329434719206 2.67044088435968607 0.001007140329434719206 2.69217521649844915
0.001267914553977789183 3.36129582501080870 0.001267914553977789183 3.38816174840679052
0.001596209851982166583 4.23072654925109148 0.001596209851982166583 4.26379273501162093
0.002009509145224797066 5.32481249438209669 0.002009509145224797066 5.36528656034966467
0.002529822128153114136 6.70148091670495916 0.002529822128153114136 6.75067197452680112
0.003184857364431081805 8.43353040442534407 0.003184857364431081805 8.49276260682550799
0.004009497869034817086 10.61241367950423786 0.004009497869034817086 10.68285700979607533
0.005047658755856332391 13.35296366411116686 0.005047658755856332391 13.43532818621795144
0.006354625877790454069 16.79928766104994509 0.006354625877790454069 16.89329624354029491
0.008000000000009777068 21.13210234066771420 0.008000000000009777068 21.23560844022093264
0.010071403294361402914 26.57783694113338058 0.010071403294361402914 26.68537916893919260
0.012679145539692626699 33.41989255269168524 0.012679145539692626699 33.52036251102194342
0.015962098519750611558 42.01250868813302475 0.015962098519750611558 42.08543192374659725
0.020095091452091651263 52.79774872254585460 0.020095091452091651263 52.80740919941825950
0.025298221281360611101 66.32616269449654567 0.025298221281360611101 66.21239250295541012
0.031848573644296607199 83.28170155255416773 0.031848573644296607199 82.94554190564844021
0.040094978690191851456 104.51141228874469391 0.040094978690191851456 103.79293217649049552
0.050476587558435426217 131.06029336894886228 0.050476587558435426217 129.70449290059715963
0.063546258777947173257 164.21136629086268499 0.063546258777947173257 161.81610940422106637
0.080000000000012505552 205.53042267973836488 0.080000000000012505552 201.46750239194952314
0.100714032943542974863 256.91389808979806730 0.100714032943542974863 250.21035400553557793
0.126791455396883634421 320.63671842319666894 0.126791455396883634421 309.79810169400451514
0.159620985197506115583 399.39453156763039487 0.159620985197506115583 382.14470567576859139
0.200950914520774404082 496.33121404036853619 0.200950914520774404082 469.23445606846621558
0.252982212813464002465 615.03768297963267742 0.252982212813464002465 572.95875519934543263
0.318485736442809752589 759.50171347653952125 0.318485736442809752589 694.84964123581517015
0.400949786901833249431 933.98084329609571341 0.400949786901833249431 835.67576945246707965
0.504765875584169521062 1142.76246727977672890 0.504765875584169521062 994.86952412350217401
0.635462587779443310865 1389.76941690607168312 0.635462587779443310865 1169.77403705156734759
0.800000000000011368684 1677.97140388530169730 0.800000000000011368684 1354.75437801935959214
1.007140329435344483500 2008.58367920364116799 1.007140329435344483500 1540.33285132346782120
1.267914553968907398485 2380.09104460547268900 1.267914553968907398485 1712.69813333575098113
1.596209851975117999245 2787.24448442722268737 1.596209851975117999245 1854.15909763061267768
2.009509145207687197399 3220.33439321249488785 2.009509145207687197399 1945.20539999298580369
2.529822128134725289783 3665.18827615441887247 2.529822128134725289783 1968.51972559907608229
3.184857364427983839050 4104.33787441041749844 3.184857364427983839050 1914.35462378166971575
4.009497869018204596614 4519.50069342723691079 4.009497869018204596614 1785.68951237145438427
5.009497869018190385759 4883.30158368665343005 5.009497869018190385759 1606.36679795572536023
6.009497869018190385759 5146.36339597828919068 6.009497869018190385759 1435.36827629247818550
7.009497869018204596614 5343.00265610944825312 7.009497869018204596614 1285.45273708940771940
8.009497869018190385759 5494.48644887852424290 8.009497869018190385759 1159.51846841869587479
9.009497869018204596614 5614.38761702908504958 9.009497869018204596614 1056.98681562402975942
10.009497869018190385759 5711.60553478320707654 10.009497869018190385759 974.43327304302965786
11.009497869018190385759 5792.13348030989254767 11.009497869018190385759 904.67818504471745200
12.009497869018204596614 5860.09997937450043537 12.009497869018204596614 847.47532623728523049
13.009497869018190385759 5918.41460292012379796 13.009497869018190385759 800.42027245880456121
14.009497869018204596614 5969.17021114888575539 14.009497869018204596614 761.53527470420885948
15.009497869018190385759 6013.90112557284737704 15.009497869018190385759 729.22271015838214225
16.009497869018190385759 6053.75230368442134932 16.009497869018190385759 702.20680472450726484
17.009497869018204596614 6089.59242729125344340 17.009497869018204596614 680.07581693941881440
18.009497869018190385759 6122.09094128870492568 18.009497869018190385759 660.72226920690798124
19.009497869018204596614 6151.77265429450380907 19.009497869018204596614 645.01132183622792127
20.009497869018190385759 6179.05128416215302423 20.009497869018190385759 630.73535171269099919
21.009497869018190385759 6204.25936268148325325 21.009497869018190385759 618.42458735777029233
22.009497869018204596614 6227.66895420108539838 22.009497869018204596614 607.73650849372074845
23.009497869018190385759 6249.50035028378442803 23.009497869018190385759 598.68841277059198092
24.009497869018204596614 6269.93835980202857172 24.009497869018204596614 590.45077912558929256
25.009497869018204596614 6289.13707128339319752 25.009497869018204596614 583.17337766607249705
26.009497869018190385759 6307.22626460275023419 26.009497869018190385759 577.02126028351017339
27.009497869018204596614 6324.31732225829728122 27.009497869018204596614 571.20871883740915109
28.009497869018190385759 6340.50481075784318818 28.009497869018190385759 565.99990543507783514
29.009497869018190385759 6355.87127109881203069 29.009497869018190385759 561.44396815374727794
30.009497869018190385759 6370.48808402017766639 30.009497869018190385759 557.17734217446138700
31.009497869018218807469 6384.41755924724839133 31.009497869018218807469 553.29779885292452946
32.009497869018190385759 6397.71536341318369523 32.009497869018190385759 549.75967210172905197
33.009497869018190385759 6410.42935706816842867 33.009497869018190385759 546.64995831357794032
34.009497869018218807469 6422.60374425748068461 34.009497869018218807469 543.64745114671211468
35.009497869018190385759 6434.27658577904821868 35.009497869018190385759 540.95015767462427903
36.009497869018190385759 6445.48260760849007056 36.009497869018190385759 538.37673202700898401
37.009497869018190385759 6456.25354012775096635 37.009497869018190385759 535.98566043348751009
38.009497869018218807469 6466.61703848415254470 38.009497869018218807469 533.75948971435479962
39.009497869018190385759 6476.59893391563127807 39.009497869018190385759 531.71844528267070018
40.009497869018190385759 6486.22272558873464732 40.009497869018190385759 529.88130789657600417
41.009497869018218807469 6495.50930685182356683 41.009497869018218807469 527.99294536954698742
42.009497869018190385759 6504.47826428725056758 42.009497869018190385759 526.29181860916230562
43.009497869018190385759 6513.14766253835477983 43.009497869018190385759 524.61809765564566987
44.009497869018218807469 6521.53361173644589144 44.009497869018218807469 523.09682849707724017
46.009497869018190385759 6537.51491060476291750 46.009497869018190385759 520.27406333545786765
48.009497869018218807469 6552.53024397948775004 48.009497869018218807469 517.67251519773708424
50.009497869018190385759 6566.67252273505528137 50.009497869018190385759 515.33972344078836159
52.009497869018190385759 6580.02213823668716941 52.009497869018190385759 513.19654555967838405
54.009497869018218807469 6592.64944800493685761 54.009497869018218807469 511.19215407369472359
56.009497869018190385759 6604.61594162921664974 56.009497869018190385759 509.33919566995012929
58.009497869018218807469 6615.97609882165306772 58.009497869018218807469 507.68120683369289736
60.009497869018190385759 6626.77808693050246802 60.009497869018190385759 506.06860114162287800
62.009497869018190385759 6637.06483321008909115 62.009497869018190385759 504.56209314107383079
64.009497869018218807469 6646.87480605112614285 64.009497869018218807469 503.14923558226803380
66.009497869018190385759 6656.24236795952310786 66.009497869018190385759 501.83435339641613382
68.009497869018190385759 6665.19870401597563614 68.009497869018190385759 500.60476700913341119
70.009497869018190385759 6673.77178975487368007 70.009497869018190385759 499.41684206809429725
72.009497869018190385759 6681.98710462217331951 72.009497869018190385759 498.30312576999261864
74.009497869018218807469 6689.86784634360446944 74.009497869018218807469 497.23995521708837941
76.009497869018190385759 6697.43504087068504305 76.009497869018190385759 496.22865175582660413
78.009497869018190385759 6704.70801483222749084 78.009497869018190385759 495.26971681014077831
80.009497869018218807469 6711.70445006408681365 80.009497869018218807469 494.35104122749459066
82.009497869018190385759 6718.44051955950726551 82.009497869018190385759 493.47148643800949230
84.009497869018218807469 6724.93118870519447228 84.009497869018218807469 492.62228979678087626
86.009497869018190385759 6731.19024512400392268 86.009497869018190385759 491.81891619829696083
88.009497869018190385759 6737.23036392926132976 88.009497869018190385759 491.03918437642107619
91.009497869018218807469 6745.90557324063775013 91.009497869018218807469 489.93169804326220174
94.009497869018218807469 6754.15069106845658098 94.009497869018218807469 488.88470288166683986
97.009497869018218807469 6761.99806594101482915 97.009497869018218807469 487.90148854915406673
99.504748934509137825444 6768.24323018176255573 99.504748934509137825444 486.98238751534921676
nan nan nan nan

