Time Pressure difference Time.1 Pressure.1 difference.1
(hr) (psi) (hr) (psi)
0.000200000000020850166 0.36262953279591686 0.000200000000020850166 0.28903456045729525
0.000399999999999067768 0.72513009762359748 0.000399999999999067768 0.75692399208559802
0.000600000000019917934 1.08752191317255109 0.000600000000019917934 1.10762550716336383
0.000799999999998135536 1.44981361167779954 0.000799999999998135536 1.46476448029454787
0.001007140329434719206 1.82494079244643137 0.001007140329434719206 1.83979372161962984
0.001267914553977789183 2.29706109671585068 0.001267914553977789183 2.31542088135636437
0.001596209851982166583 2.89121751641610647 0.001596209851982166583 2.91381447094838064
0.002009509145224797066 3.63890007453071185 0.002009509145224797066 3.66655946757437912
0.002529822128153114136 4.57969542270119501 0.002529822128153114136 4.61331188227850397
0.003184857364431081805 5.76335306634710065 0.003184857364431081805 5.80383149933529907
0.004009497869034817086 7.25237047690258319 0.004009497869034817086 7.30051043302678515
0.005047658755856332391 9.12522281748035802 0.005047658755856332391 9.18150954418656262
0.006354625877790454069 11.48039094078021272 0.006354625877790454069 11.54463505044446414
0.008000000000009777068 14.44137401337166615 0.008000000000009777068 14.51210858924189040
0.010071403294361402914 18.16291051149553581 0.010071403294361402914 18.23640331921236069
0.012679145539692626699 22.83867265356359511 0.012679145539692626699 22.90733237430339386
0.015962098519750611558 28.71074261446081266 0.015962098519750611558 28.76057730212150076
0.020095091452091651263 36.08122013014104823 0.020095091452091651263 36.08782196073097026
0.025298221281360611101 45.32634315799450064 0.025298221281360611101 45.24859424966859223
0.031848573644296607199 56.91351391365769530 0.031848573644296607199 56.68378725840551624
0.040094978690191851456 71.42159209701048894 0.040094978690191851456 70.93059314882422939
0.050476587558435426217 89.56471459069234697 0.050476587558435426217 88.63818010134851022
0.063546258777947173257 112.21967978497825413 0.063546258777947173257 110.58279576840185143
0.080000000000012505552 140.45652709775225730 0.080000000000012505552 137.67998596064262529
0.100714032943542974863 175.57125324005005496 0.100714032943542974863 170.99014787839109886
0.126791455396883634421 219.11850976883030739 0.126791455396883634421 211.71155538963316189
0.159620985197506115583 272.94046357913299516 0.159620985197506115583 261.15218130820551323
0.200950914520774404082 339.18559454796343289 0.200950914520774404082 320.66806088691424748
0.252982212813464002465 420.30788366633197484 0.252982212813464002465 391.55175120206058637
0.318485736442809752589 519.03251892754110486 0.318485736442809752589 474.85022504516530262
0.400949786901833249431 638.26904024623479472 0.400949786901833249431 571.08877034682711837
0.504765875584169521062 780.94739143257470460 0.504765875584169521062 679.87948670508922078
0.635462587779443310865 949.74837895148471034 0.635462587779443310865 799.40670870608687437
0.800000000000011368684 1146.70146096236908306 0.800000000000011368684 925.81960629536172291
1.007140329435344483500 1372.63712246518434767 1.007140329435344483500 1052.64125889816932613
1.267914553968907398485 1626.51989882129510079 1.267914553968907398485 1170.43320710719012823
1.596209851975117999245 1904.76268841734986381 1.596209851975117999245 1267.10559023032465120
2.009509145207687197399 2200.73008689756716194 2.009509145207687197399 1329.32532037138207670
2.529822128134725289783 2504.73681567919538793 2.529822128134725289783 1345.25799429654716732
3.184857364427983839050 2804.84531856260491622 3.184857364427983839050 1308.24234477869595139
4.009497869018204596614 3088.56160240481995061 4.009497869018204596614 1220.31446299992808235
5.009497869018190385759 3337.17788477645945022 5.009497869018190385759 1097.76790581300360827
6.009497869018190385759 3516.95053392873705889 6.009497869018190385759 980.90998191774360748
7.009497869018204596614 3651.33096875191176878 7.009497869018204596614 878.45986421783982223
8.009497869018190385759 3754.85280832450825983 8.009497869018190385759 792.39820098832512940
9.009497869018204596614 3836.79153765624005246 9.009497869018204596614 722.32954798131197549
10.009497869018190385759 3903.22886076093709562 10.009497869018190385759 665.91364740871620143
11.009497869018190385759 3958.26049751585105696 11.009497869018190385759 618.24402614341192930
12.009497869018204596614 4004.70782289542694343 12.009497869018204596614 579.15241730322316016
13.009497869018190385759 4044.55919572597849765 13.009497869018190385759 546.99567208783503247
14.009497869018204596614 4079.24484649046098639 14.009497869018204596614 520.42222534644997722
15.009497869018190385759 4109.81330838520625548 15.009497869018190385759 498.34028468503856857
16.009497869018190385759 4137.04702885016922664 16.009497869018190385759 479.87800448257871722
17.009497869018204596614 4161.53965250624878536 17.009497869018204596614 464.75400656048060455
18.009497869018190385759 4183.74866834149725037 18.009497869018190385759 451.52807111945440965
19.009497869018204596614 4204.03272299749824015 19.009497869018204596614 440.79143623917769901
20.009497869018190385759 4222.67454528949565429 20.009497869018190385759 431.03544411713681939
21.009497869018190385759 4239.90138264753386466 21.009497869018190385759 422.62244527897786384
22.009497869018204596614 4255.89915992425267177 22.009497869018204596614 415.31836630605374694
23.009497869018190385759 4270.81842119706925587 23.009497869018190385759 409.13502816297500431
24.009497869018204596614 4284.78546218445808336 24.009497869018204596614 403.50554811717387338
25.009497869018204596614 4297.90558476420028455 25.009497869018204596614 398.53227690032542796
26.009497869018190385759 4310.26747863134642103 26.009497869018190385759 394.32800859500071056
27.009497869018204596614 4321.94726097902457695 27.009497869018204596614 390.35580158794732597
28.009497869018190385759 4333.00955719501507701 28.009497869018190385759 386.79617362020991322
29.009497869018190385759 4343.51077460671240260 29.009497869018190385759 383.68271177904995284
30.009497869018190385759 4353.49969378181322099 30.009497869018190385759 380.76696110982004484
31.009497869018218807469 4363.01889628808839916 31.009497869018218807469 378.11573714713961181
32.009497869018190385759 4372.10642389991880918 32.009497869018190385759 375.69783234538215311
33.009497869018190385759 4380.79498382714973559 33.009497869018190385759 373.57269878482753711
34.009497869018218807469 4389.11478447689933091 34.009497869018218807469 371.52082868333303622
35.009497869018190385759 4397.09183604963163816 35.009497869018190385759 369.67753721964919578
36.009497869018190385759 4404.74986977633489005 36.009497869018190385759 367.91889524102805353
37.009497869018190385759 4412.11056974247549078 37.009497869018190385759 366.28487139341785905
38.009497869018218807469 4419.19283507694399304 38.009497869018218807469 364.76353842548388684
39.009497869018190385759 4426.01431847525873309 39.009497869018190385759 363.36871809285958079
40.009497869018190385759 4432.59107892897827696 40.009497869018190385759 362.11324489483877187
41.009497869018218807469 4438.93739465108956210 41.009497869018218807469 360.82276517417318473
42.009497869018190385759 4445.06665082953168167 42.009497869018190385759 359.66023967648078496
43.009497869018190385759 4450.99119258107020869 43.009497869018190385759 358.51644291200864245
44.009497869018218807469 4456.72202933713288076 44.009497869018218807469 357.47682950583958927
46.009497869018190385759 4467.64341853240784985 46.009497869018190385759 355.54779249883955572
48.009497869018218807469 4477.90468083864652726 48.009497869018218807469 353.76993201600839711
50.009497869018190385759 4487.56931020765568974 50.009497869018190385759 352.17573576831301807
52.009497869018190385759 4496.69224493917772634 52.009497869018190385759 350.71111890912192166
54.009497869018218807469 4505.32156634820148611 54.009497869018218807469 349.34134667105161043
56.009497869018190385759 4513.49929553344554733 56.009497869018190385759 348.07506161770885456
58.009497869018218807469 4521.26266314457734552 58.009497869018218807469 346.94201595531365001
60.009497869018190385759 4528.64458605282015924 60.009497869018190385759 345.83998447922817832
62.009497869018190385759 4535.67440012476254196 62.009497869018190385759 344.81045863559273812
64.009497869018218807469 4542.37839410390370176 64.009497869018218807469 343.84493215339949757
66.009497869018190385759 4548.78005083127300168 66.009497869018190385759 342.94636062827186151
68.009497869018190385759 4554.90068174132557033 68.009497869018190385759 342.10607902191566154
70.009497869018190385759 4560.75940491085384565 70.009497869018190385759 341.29426824716159672
72.009497869018190385759 4566.37363262581129675 72.009497869018190385759 340.53317058889774671
74.009497869018218807469 4571.75921787744846370 74.009497869018218807469 339.80661516402903999
76.009497869018190385759 4576.93052949783486838 76.009497869018190385759 339.11550496166199764
78.009497869018190385759 4581.90077502641270257 78.009497869018190385759 338.46018264768235895
80.009497869018218807469 4586.68203797483056405 80.009497869018218807469 337.83237300186152652
82.009497869018190385759 4591.28537073345705721 82.009497869018190385759 337.23129794196256626
84.009497869018218807469 4595.72100043176214967 84.009497869018218807469 336.65096920281575876
86.009497869018190385759 4599.99834933239162638 86.009497869018190385759 336.10195527030953144
88.009497869018190385759 4604.12607942501199432 88.009497869018190385759 335.56909778702129188
91.009497869018218807469 4610.05459237134436989 91.009497869018218807469 334.81225759696286559
94.009497869018218807469 4615.68918699975984055 94.009497869018218807469 334.09675620126449758
97.009497869018218807469 4621.05196982802954153 97.009497869018218807469 333.42484170443759695
99.504748934509137825444 4625.31982501449601841 99.504748934509137825444 332.79674131142985516
nan nan nan nan

