Time Pressure difference Time.1 Pressure.1 difference.1
(hr) (psi) (hr) (psi)
0.000200000000020850166 0.38175907237001339 0.000200000000020850166 0.30428179644472136
0.000399999999999067768 0.76338237341566795 0.000399999999999067768 0.79685346873231533
0.000600000000019917934 1.14489118840871762 0.000600000000019917934 1.16605529309170630
0.000799999999998135536 1.52629460495438085 0.000799999999998135536 1.54203416618164546
0.001007140329434719206 1.92121060489199968 0.001007140329434719206 1.93684706014543595
0.001267914553977789183 2.41823633805636540 0.001267914553977789183 2.43756464344626433
0.001596209851982166583 3.04373587163989168 0.001596209851982166583 3.06752486735162089
0.002009509145224797066 3.83086039956329527 0.002009509145224797066 3.85997888902899033
0.002529822128153114136 4.82128486013726754 0.002529822128153114136 4.85667466505925116
0.003184857364431081805 6.06738315929660388 0.003184857364431081805 6.10999692246537318
0.004009497869034817086 7.63494965343643539 0.004009497869034817086 7.68562910265893162
0.005047658755856332391 9.60659925051257879 0.005047658755856332391 9.66585523115053213
0.006354625877790454069 12.08600789407825182 0.006354625877790454069 12.15364102787616751
0.008000000000009777068 15.20318961499448740 0.008000000000009777068 15.27765560197712702
0.010071403294361402914 19.12104569902855999 0.010071403294361402914 19.19841542091393194
0.012679145539692626699 24.04346501831580341 0.012679145539692626699 24.11574669680105032
0.015962098519750611558 30.22530013770071733 0.015962098519750611558 30.27776371943524936
0.020095091452091651263 37.98458724709803391 0.020095091452091651263 37.99153733939338906
0.025298221281360611101 47.71741171908136891 0.025298221281360611101 47.63556137751808706
0.031848573644296607199 59.91583230818551442 0.031848573644296607199 59.67398704497278317
0.040094978690191851456 75.18924489111883247 0.040094978690191851456 74.67234462227138181
0.050476587558435426217 94.28945870900868442 0.050476587558435426217 93.31404740027286948
0.063546258777947173257 118.13952527822252137 0.063546258777947173257 116.41629187545056823
0.080000000000012505552 147.86593105015660399 0.080000000000012505552 144.94292099985082700
0.100714032943542974863 184.83303953482334236 0.100714032943542974863 180.01027035821448408
0.126791455396883634421 230.67751372452548253 0.126791455396883634421 222.87982551339823090
0.159620985197506115583 287.33869904316981092 0.159620985197506115583 274.92855784510624062
0.200950914520774404082 357.07841260897987468 0.200950914520774404082 337.58403657590281455
0.252982212813464002465 442.48008853863848344 0.252982212813464002465 412.20700413244452420
0.318485736442809752589 546.41267474252606462 0.318485736442809752589 499.89966352231846258
0.400949786901833249431 671.93919603904066662 0.400949786901833249431 601.21501281925145577
0.504765875584169521062 822.14415749438478542 0.504765875584169521062 715.74468898540362716
0.635462587779443310865 999.84978426314557964 0.635462587779443310865 841.57724609195838639
0.800000000000011368684 1207.19259307735660514 0.800000000000011368684 974.65871396690602069
1.007140329435344483500 1445.04687892550373363 1.007140329435344483500 1108.17049961986162998
1.267914553968907398485 1712.32255403434510299 1.267914553968907398485 1232.17624326192731132
1.596209851975117999245 2005.24328895312760324 1.596209851975117999245 1333.94831632045634251
2.009509145207687197399 2316.82364652748492517 2.009509145207687197399 1399.45027993225767204
2.529822128134725289783 2636.86742751548308661 2.529822128134725289783 1416.22343894980531331
3.184857364427983839050 2952.80734224824709599 3.184857364427983839050 1377.25512902160880913
4.009497869018204596614 3251.49031078856069144 4.009497869018204596614 1284.68884980955726860
5.009497869018190385759 3513.22167227613545037 5.009497869018190385759 1155.67768066093731250
6.009497869018190385759 3702.47774099378557366 6.009497869018190385759 1032.65523325744106842
7.009497869018204596614 3843.94705196588847684 7.009497869018204596614 924.80063687153324281
8.009497869018190385759 3952.92990601135215911 8.009497869018190385759 834.19902351752568848
9.009497869018204596614 4039.19109124819715362 9.009497869018204596614 760.43408835647289834
10.009497869018190385759 4109.13313552584986610 10.009497869018190385759 701.04211963440525324
11.009497869018190385759 4167.06781733893512865 11.009497869018190385759 650.85781651336264986
12.009497869018204596614 4215.96534566284572065 12.009497869018204596614 609.70403564720049872
13.009497869018190385759 4257.91896981244099152 13.009497869018190385759 575.85094836769792437
14.009497869018204596614 4294.43436820899387385 14.009497869018204596614 547.87569136243246248
15.009497869018190385759 4326.61538657983874145 15.009497869018190385759 524.62887768447876624
16.009497869018190385759 4355.28574826199019299 16.009497869018190385759 505.19266985665967695
17.009497869018204596614 4381.07041399166973861 17.009497869018204596614 489.27084635610225405
18.009497869018190385759 4404.45100635033759318 18.009497869018190385759 475.34721248584764908
19.009497869018204596614 4425.80509141250331595 19.009497869018204596614 464.04419549032701298
20.009497869018190385759 4445.43031258687733498 20.009497869018190385759 453.77355240771970557
21.009497869018190385759 4463.56590512664752168 21.009497869018190385759 444.91674858497896139
22.009497869018204596614 4480.40760184686223511 22.009497869018204596614 437.22736269375837992
23.009497869018190385759 4496.11388837030881405 23.009497869018190385759 430.71783928166411215
24.009497869018204596614 4510.81772280428049271 24.009497869018204596614 424.79139125179545999
25.009497869018204596614 4524.62996194212882983 25.009497869018204596614 419.55576857167284288
26.009497869018190385759 4537.64397406373427657 26.009497869018190385759 415.12971547042508291
27.009497869018204596614 4549.93989171874363819 27.009497869018204596614 410.94796543318307158
28.009497869018190385759 4561.58574943236635590 28.009497869018190385759 407.20055892586316304
29.009497869018190385759 4572.64093014789159497 29.009497869018190385759 403.92285483161447246
30.009497869018190385759 4583.15678771984585183 30.009497869018190385759 400.85329162708120521
31.009497869018218807469 4593.17814999135953258 31.009497869018218807469 398.06220951958050591
32.009497869018190385759 4602.74506552766615641 32.009497869018190385759 395.51675469387708972
33.009497869018190385759 4611.89196691894812830 33.009497869018190385759 393.27951546384372250
34.009497869018218807469 4620.65065613508340903 34.009497869018218807469 391.11940450837118988
35.009497869018190385759 4629.04851547426824254 35.009497869018190385759 389.17887519224535708
36.009497869018190385759 4637.11052804435257713 36.009497869018190385759 387.32746081566938301
37.009497869018190385759 4644.85952181604625366 37.009497869018190385759 385.60723846233668155
38.009497869018218807469 4652.31539289063675824 38.009497869018218807469 384.00565169104839924
39.009497869018190385759 4659.49672518381612463 39.009497869018190385759 382.53725138674900563
40.009497869018190385759 4666.42042483578188694 40.009497869018190385759 381.21554909800693167
41.009497869018218807469 4673.10152326800471201 41.009497869018218807469 379.85699361226028259
42.009497869018190385759 4679.55411176778670779 42.009497869018190385759 378.63314222822174315
43.009497869018190385759 4685.79118668511728174 43.009497869018190385759 377.42900756103659887
44.009497869018218807469 4691.82433822418261116 44.009497869018218807469 376.33455216325774018
46.009497869018190385759 4703.32185574856703170 46.009497869018190385759 374.30375402974163990
48.009497869018218807469 4714.12442317646491574 48.009497869018218807469 372.43210732877952296
50.009497869018190385759 4724.29888391127042269 50.009497869018190385759 370.75381357260476989
52.009497869018190385759 4733.90307437404317170 52.009497869018190385759 369.21193481487836152
54.009497869018218807469 4742.98761227941395191 54.009497869018218807469 367.76990394957039143
56.009497869018190385759 4751.59673543543976848 56.009497869018190385759 366.43681945534029865
58.009497869018218807469 4759.76963849394815043 58.009497869018218807469 365.24400303552516789
60.009497869018190385759 4767.54097476661536348 60.009497869018190385759 364.08383687148108265
62.009497869018190385759 4774.94162765427972772 62.009497869018190385759 363.00000117829608826
64.009497869018218807469 4781.99927269195450208 64.009497869018218807469 361.98354095965675015
66.009497869018190385759 4788.73863149439057452 66.009497869018190385759 361.03756772563480126
68.009497869018190385759 4795.18213972309240489 68.009497869018190385759 360.15295933729197486
70.009497869018190385759 4801.34992397725272895 70.009497869018190385759 359.29832368221832439
72.009497869018190385759 4807.26031508084270172 72.009497869018190385759 358.49707637684417705
74.009497869018218807469 4812.93000230676261708 74.009497869018218807469 357.73219348690213337
76.009497869018190385759 4818.37411247593172448 76.009497869018190385759 357.00462563624512313
78.009497869018190385759 4823.60654985578730702 78.009497869018190385759 356.31473356717020806
80.009497869018218807469 4828.64003539093391737 80.009497869018218807469 355.65380552260194236
82.009497869018190385759 4833.48620451068018156 82.009497869018190385759 355.02102237468079693
84.009497869018218807469 4838.15582384903427737 84.009497869018218807469 354.41007996351476095
86.009497869018190385759 4842.65881271460511925 86.009497869018190385759 353.83210428686254545
88.009497869018190385759 4847.00429003688168450 88.009497869018190385759 353.27113734918066257
91.009497869018218807469 4853.24554563864057855 91.009497869018218807469 352.47437210322465262
94.009497869018218807469 4859.17737805708657106 94.009497869018218807469 351.72112636784493134
97.009497869018218807469 4864.82305997950788878 97.009497869018218807469 351.01376684022210384
99.504748934509137825444 4869.31605431571915688 99.504748934509137825444 350.35253271088600968
nan nan nan nan

