Time Pressure difference Time.1 Pressure.1 difference.1
(hr) (psi) (hr) (psi)
0.000200000000020850166 0.46659442178557192 0.000200000000020850166 0.37189997343243725
0.000399999999999067768 0.93302290084137196 0.000399999999999067768 0.97393201733949641
0.000600000000019917934 1.39931145249954381 0.000600000000019917934 1.42517869155652988
0.000799999999998135536 1.86547118383313215 0.000799999999998135536 1.88470842533312233
0.001007140329434719206 2.34814629486799964 0.001007140329434719206 2.36725751795553263
0.001267914553977789183 2.95562219095777978 0.001267914553977789183 2.97924567532321216
0.001596209851982166583 3.72012162089320109 0.001596209851982166583 3.74919706009642528
0.002009509145224797066 4.68216271057736133 0.002009509145224797066 4.71775197547987712
0.002529822128153114136 5.89268149572332600 0.002529822128153114136 5.93593570173908347
0.003184857364431081805 7.41569052802918272 0.003184857364431081805 7.46777401634656623
0.004009497869034817086 9.33160513197786479 0.004009497869034817086 9.39354668102758517
0.005047658755856332391 11.74139908395981813 0.005047658755856332391 11.81382306029509621
0.006354625877790454069 14.77178742609564210 0.006354625877790454069 14.85445014518198370
0.008000000000009777068 18.58167619610436816 0.008000000000009777068 18.67269018019426596
0.010071403294361402914 23.37016696547935268 0.010071403294361402914 23.46472995889480373
0.012679145539692626699 29.38645724460820219 0.012679145539692626699 29.47480151831239681
0.015962098519750611558 36.94203350163421362 0.015962098519750611558 37.00615565708752541
0.020095091452091651263 46.42560663534204224 0.020095091452091651263 46.43410119259191760
0.025298221281360611101 58.32128098998834531 0.025298221281360611101 58.22124168363321672
0.031848573644296607199 73.23046171000451920 0.031848573644296607199 72.93487305496674367
0.040094978690191851456 91.89796597803412226 0.040094978690191851456 91.26619898277613174
0.050476587558435426217 115.24267175545504927 0.050476587558435426217 114.05050237811127545
0.063546258777947173257 144.39275311782753874 0.063546258777947173257 142.28657895888400731
0.080000000000012505552 180.72502683908030008 0.080000000000012505552 177.15245899981766797
0.100714032943542974863 225.90704832033964067 0.100714032943542974863 220.01255266003991551
0.126791455396883634421 281.93918344108669771 0.126791455396883634421 272.40867562748672981
0.159620985197506115583 351.19174327498535604 0.159620985197506115583 336.02379292179654158
0.200950914520774404082 436.42917096653087583 0.200950914520774404082 412.60271137054792234
0.252982212813464002465 540.80899710278038128 0.252982212813464002465 503.80856060632106619
0.318485736442809752589 667.83771357419857395 0.318485736442809752589 610.98847763838932678
0.400949786901833249431 821.25901738104971628 0.400949786901833249431 734.81834900130718324
0.504765875584169521062 1004.84285915980365189 0.504765875584169521062 874.79906431549318313
0.635462587779443310865 1222.03862521051132717 0.635462587779443310865 1028.59441189017138640
0.800000000000011368684 1475.45761376121367903 0.800000000000011368684 1191.24953929288517429
1.007140329435344483500 1766.16840757561567443 1.007140329435344483500 1354.43061064649759828
1.267914553968907398485 2092.83867715308815605 1.267914553968907398485 1505.99318620902249677
1.596209851975117999245 2450.85290872048926758 1.596209851975117999245 1630.38127550277999944
2.009509145207687197399 2831.67334575581480749 2.009509145207687197399 1710.43923102831513461
2.529822128134725289783 3222.83796696336867171 2.529822128134725289783 1730.93975871642874154
3.184857364427983839050 3608.98675163674624855 3.184857364427983839050 1683.31182435974415057
4.009497869018204596614 3974.04371318601897656 4.009497869018204596614 1570.17526087834812643
5.009497869018190385759 4293.93759944860994437 5.009497869018190385759 1412.49494303003461937
6.009497869018190385759 4525.25057232573726651 6.009497869018190385759 1262.13417398131696245
7.009497869018204596614 4698.15750795830808784 7.009497869018204596614 1130.31188950965179174
8.009497869018190385759 4831.35877401387460850 8.009497869018190385759 1019.57658429919820264
9.009497869018204596614 4936.78911152557520836 9.009497869018204596614 929.41944132457797423
10.009497869018190385759 5022.27383230937084591 10.009497869018190385759 856.82925733093975396
11.009497869018190385759 5093.08288785869808635 11.009497869018190385759 795.49288684966541041
12.009497869018204596614 5152.84653358792365907 12.009497869018204596614 745.19382134657837469
13.009497869018190385759 5204.12318532631707058 13.009497869018190385759 703.81782578274192019
14.009497869018204596614 5248.75311669988150243 14.009497869018204596614 669.62584499852857789
15.009497869018190385759 5288.08547248646937078 15.009497869018190385759 641.21307272547392131
16.009497869018190385759 5323.12702565354356921 16.009497869018190385759 617.45770760258403698
17.009497869018204596614 5354.64161710092957946 17.009497869018204596614 597.99770110190274863
18.009497869018190385759 5383.21789665041342232 18.009497869018190385759 580.97992637159154583
19.009497869018204596614 5409.31733394861566921 19.009497869018204596614 567.16512782151085048
20.009497869018190385759 5433.30371538396138931 20.009497869018190385759 554.61211960943512622
21.009497869018190385759 5455.46943959923555667 21.009497869018190385759 543.78713715941876217
22.009497869018204596614 5476.05373559060990374 22.009497869018204596614 534.38899884792692774
23.009497869018190385759 5495.25030800815602561 23.009497869018190385759 526.43291467758945146
24.009497869018204596614 5513.22166120523161226 24.009497869018204596614 519.18947819663890186
25.009497869018204596614 5530.10328681815735763 25.009497869018204596614 512.79038380982240142
26.009497869018190385759 5546.00930163345310575 26.009497869018190385759 507.38076335274178064
27.009497869018204596614 5561.03764543402030540 27.009497869018204596614 502.26973552944599533
28.009497869018190385759 5575.27147152844736411 28.009497869018190385759 497.68957202049949728
29.009497869018190385759 5588.78335906964548485 29.009497869018190385759 493.68348923863993605
30.009497869018190385759 5601.63607387981119246 30.009497869018190385759 489.93180087754370788
31.009497869018218807469 5613.88440554499447899 31.009497869018218807469 486.52047830170948828
32.009497869018190385759 5625.57730231159257528 32.009497869018190385759 483.40936684807201118
33.009497869018190385759 5636.75684845649266208 33.009497869018190385759 480.67496334469785779
34.009497869018218807469 5647.46191305399133853 34.009497869018218807469 478.03482773245372073
35.009497869018190385759 5657.72596335743946838 35.009497869018190385759 475.66306967941096673
36.009497869018190385759 5667.57953427643042232 36.009497869018190385759 473.40022988581819163
37.009497869018190385759 5677.05052666405663331 37.009497869018190385759 471.29773589841147441
38.009497869018218807469 5686.16325797744411830 38.009497869018218807469 469.34024095572578972
39.009497869018190385759 5694.94044189133001055 39.009497869018190385759 467.54552947269320384
40.009497869018190385759 5703.40274146595675120 40.009497869018190385759 465.93011556423067532
41.009497869018218807469 5711.56852843867272895 41.009497869018218807469 464.26965885942922796
42.009497869018190385759 5719.45502549396132963 42.009497869018190385759 462.77384050115989567
43.009497869018190385759 5727.07811705958738457 43.009497869018190385759 461.30212035237804002
44.009497869018218807469 5734.45196894066793902 44.009497869018218807469 459.96445264398170139
46.009497869018190385759 5748.50449035936071596 46.009497869018190385759 457.48236603635086794
48.009497869018218807469 5761.70762832679065468 48.009497869018218807469 455.19479784628606467
50.009497869018190385759 5774.14308033599718328 50.009497869018190385759 453.14354992207250916
52.009497869018190385759 5785.88153534605226014 52.009497869018190385759 451.25903144040682946
54.009497869018218807469 5796.98485945261654706 54.009497869018218807469 449.49654927169717666
56.009497869018190385759 5807.50712108775860543 56.009497869018190385759 447.86722377874923495
58.009497869018218807469 5817.49622482593622408 58.009497869018218807469 446.40933704341966859
60.009497869018190385759 5826.99452471475160564 60.009497869018190385759 444.99135617625461236
62.009497869018190385759 5836.03976713300926349 62.009497869018190385759 443.66666810680635535
64.009497869018218807469 5844.66577773461085599 64.009497869018218807469 442.42432783958054188
66.009497869018190385759 5852.90277182647696463 66.009497869018190385759 441.26813833133144271
68.009497869018190385759 5860.77817077266900014 68.009497869018190385759 440.18695030113457278
70.009497869018190385759 5868.31657374997485022 70.009497869018190385759 439.14239561160019321
72.009497869018190385759 5875.54038509880774654 72.009497869018190385759 438.16309334947624166
74.009497869018218807469 5882.47000281937653199 74.009497869018218807469 437.22823648399156582
76.009497869018190385759 5889.12391524836039025 76.009497869018190385759 436.33898688874404570
78.009497869018190385759 5895.51911649040630437 78.009497869018190385759 435.49578547098582249
80.009497869018218807469 5901.67115436669791961 80.009497869018218807469 434.68798452762456463
82.009497869018190385759 5907.59424995749850495 82.009497869018190385759 433.91458290238762174
84.009497869018218807469 5913.30156248215371306 84.009497869018218807469 433.16787551096240350
86.009497869018190385759 5918.80521554007282248 86.009497869018190385759 432.46146079505427906
88.009497869018190385759 5924.11635448952347360 88.009497869018190385759 431.77583453788747647
91.009497869018218807469 5931.74455578056040395 91.009497869018218807469 430.80201034838569285
94.009497869018218807469 5938.99457318088389002 94.009497869018218807469 429.88137667181052848
97.009497869018218807469 5945.89485108606550057 97.009497869018218807469 429.01682613804928224
99.504748934509137825444 5951.38628860810058541 99.504748934509137825444 428.20865109108291335
nan nan nan nan

