Time Pressure difference Time.1 Pressure.1 difference.1
(hr) (psi) (hr) (psi)
0.000200000000020850166 0.12475786678758606 0.000200000000020850166 0.09943849557017040
0.000399999999999067768 0.24947136386132937 0.000399999999999067768 0.26040963030467823
0.000600000000019917934 0.37414744719239140 0.000600000000019917934 0.38106382127179944
0.000799999999998135536 0.49878908658639898 0.000799999999998135536 0.50393273404628935
0.001007140329434719206 0.62784660290588234 0.001007140329434719206 0.63295655560308361
0.001267914553977789183 0.79027331309031545 0.001267914553977789183 0.79658975276021715
0.001596209851982166583 0.99468492537251352 0.001596209851982166583 1.00245910697765384
0.002009509145224797066 1.25191516325597885 0.002009509145224797066 1.26143100948659814
0.002529822128153114136 1.57558328762655786 0.002529822128153114136 1.58714858335269615
0.003184857364431081805 1.98280495401849777 0.003184857364431081805 1.99673102041352024
0.004009497869034817086 2.49508158609033837 0.004009497869034817086 2.51164349760095851
0.005047658755856332391 3.13941151977535249 0.005047658755856332391 3.15877621933023978
0.006354625877790454069 3.94967578237851402 0.006354625877790454069 3.97177811368502187
0.008000000000009777068 4.96836261927924294 0.008000000000009777068 4.99269790914285316
0.010071403294361402914 6.24870774478057456 0.010071403294361402914 6.27399196761893219
0.012679145539692626699 7.85734150925352992 0.012679145539692626699 7.88096297281080016
0.015962098519750611558 9.87754906460807724 0.015962098519750611558 9.89469402595923064
0.020095091452091651263 12.41326380624118819 0.020095091452091651263 12.41553507823313396
0.025298221281360611101 15.59392539839260472 0.025298221281360611101 15.56717692075754478
0.031848573644296607199 19.58033735561618016 0.031848573644296607199 19.50130295587345941
0.040094978690191851456 24.57164865722837632 0.040094978690191851456 24.40272700074228140
0.050476587558435426217 30.81354859771525057 0.050476587558435426217 30.49478673211531898
0.063546258777947173257 38.60768799941912022 0.063546258777947173257 38.04453982857862115
0.080000000000012505552 48.32219968959366696 0.080000000000012505552 47.36696764701007822
0.100714032943542974863 60.40295409634750001 0.100714032943542974863 58.82688573797858567
0.126791455396883634421 75.38480840670766270 0.126791455396883634421 72.83654428542426729
0.159620985197506115583 93.90153563502282452 0.159620985197506115583 89.84593393630923686
0.200950914520774404082 116.69229170228098269 0.200950914520774404082 110.32158058036040416
0.252982212813464002465 144.60133612373806500 0.252982212813464002465 134.70817128511259853
0.318485736442809752589 178.56623357598891744 0.318485736442809752589 163.36590311186878921
0.400949786901833249431 219.58797256177800250 0.400949786901833249431 196.47549438537626543
0.504765875584169521062 268.67456127267479360 0.504765875584169521062 233.90349313248484009
0.635462587779443310865 326.74829551083189472 0.635462587779443310865 275.02524382090143718
0.800000000000011368684 394.50738335861325368 0.800000000000011368684 318.51591959702807344
1.007140329435344483500 472.23754213251754663 1.007140329435344483500 362.14722209799401753
1.267914553968907398485 559.58253399815191642 1.267914553968907398485 402.67197492219850119
1.596209851975117999245 655.30826436376719357 1.596209851975117999245 435.93082232694655431
2.009509145207687197399 757.13191062989699276 2.009509145207687197399 457.33669278831956717
2.529822128134725289783 861.72138154100764496 2.529822128134725289783 462.81811730385800274
3.184857364427983839050 964.96971968896968974 3.184857364427983839050 450.08337549725780491
4.009497869018204596614 1062.57853293743801260 4.009497869018204596614 419.83295745410373456
5.009497869018190385759 1148.11165760658013824 5.009497869018190385759 377.67244466043706552
6.009497869018190385759 1209.96004607640043105 6.009497869018190385759 337.46903047628802597
7.009497869018204596614 1256.19184704767599214 7.009497869018204596614 302.22243035017424972
8.009497869018190385759 1291.80715882723916366 8.009497869018190385759 272.61405997304763105
9.009497869018204596614 1319.99708864320177781 9.009497869018204596614 248.50787201191926101
10.009497869018190385759 1342.85396585812054582 10.009497869018190385759 229.09873190666840514
11.009497869018190385759 1361.78686841141689001 11.009497869018190385759 212.69863284750411481
12.009497869018204596614 1377.76645283099537664 12.009497869018204596614 199.24968485202631996
13.009497869018190385759 1391.47678752040542349 13.009497869018190385759 188.18658443388821411
14.009497869018204596614 1403.40992425130525589 14.009497869018204596614 179.04434358249426396
15.009497869018190385759 1413.92659692151596573 15.009497869018190385759 171.44734564852245740
16.009497869018190385759 1423.29599616404880180 16.009497869018190385759 165.09564374400645193
17.009497869018204596614 1431.72235751361768052 17.009497869018204596614 159.89243344970662974
18.009497869018190385759 1439.36307397069867875 18.009497869018190385759 155.34222630256459752
19.009497869018204596614 1446.34153314134118773 19.009497869018204596614 151.64842989879966240
20.009497869018190385759 1452.75500411335883655 20.009497869018190385759 148.29201059075808189
21.009497869018190385759 1458.68166834204157567 21.009497869018190385759 145.39763025652908368
22.009497869018204596614 1464.18549079962849646 22.009497869018204596614 142.88475905024785106
23.009497869018190385759 1469.31826417330375989 23.009497869018190385759 140.75746381753728542
24.009497869018204596614 1474.12343882492837110 24.009497869018204596614 138.82071609535799439
25.009497869018204596614 1478.63724246474771462 25.009497869018204596614 137.10972829139635110
26.009497869018190385759 1482.89018760252747597 26.009497869018190385759 135.66330570928923294
27.009497869018204596614 1486.90846134599473771 27.009497869018204596614 134.29672072979840891
28.009497869018190385759 1490.71429720011974496 28.009497869018190385759 133.07207808034746677
29.009497869018190385759 1494.32710135552019892 29.009497869018190385759 132.00093295150799122
30.009497869018190385759 1497.76365611759661078 30.009497869018190385759 130.99780772126834449
31.009497869018218807469 1501.03861110828734127 31.009497869018218807469 130.08568938548381766
32.009497869018190385759 1504.16505409400861026 32.009497869018190385759 129.25384140322782400
33.009497869018190385759 1507.15423755521192106 33.009497869018190385759 128.52271747184437345
34.009497869018218807469 1510.01655429251104579 34.009497869018218807469 127.81679885894484983
35.009497869018190385759 1512.76095276936894152 35.009497869018190385759 127.18263895171416777
36.009497869018190385759 1515.39559740011532085 36.009497869018190385759 126.57760157374818277
37.009497869018190385759 1517.92794830589741650 37.009497869018190385759 126.01543740599237253
38.009497869018218807469 1520.36450748060019578 38.009497869018218807469 125.49204303629031187
39.009497869018190385759 1522.71134809928639697 39.009497869018190385759 125.01217365580032492
40.009497869018190385759 1524.97399504437316864 40.009497869018190385759 124.58024480327021877
41.009497869018218807469 1527.15736054509966380 41.009497869018218807469 124.13627242230728598
42.009497869018190385759 1529.26604959731594136 42.009497869018190385759 123.73632098961496695
43.009497869018190385759 1531.30430937422147508 43.009497869018190385759 123.34281292844332256
44.009497869018218807469 1533.27592752424266109 44.009497869018218807469 122.98514776577050611
46.009497869018190385759 1537.03328619234230246 46.009497869018190385759 122.32148824501359741
48.009497869018218807469 1540.56353698577299838 48.009497869018218807469 121.70983899633316128
50.009497869018190385759 1543.88852415400992868 50.009497869018190385759 121.16137698451134952
52.009497869018190385759 1547.02714848824939509 52.009497869018190385759 120.65749503754194905
54.009497869018218807469 1549.99595172529848242 54.009497869018218807469 120.18624312077463401
56.009497869018190385759 1552.80939066517612446 56.009497869018190385759 119.75059459324845079
58.009497869018218807469 1555.48027401762988120 58.009497869018218807469 119.36078530572717682
60.009497869018190385759 1558.01992639431864518 60.009497869018190385759 118.98164603643171233
62.009497869018190385759 1560.43844040989552013 62.009497869018190385759 118.62745136545622415
64.009497869018218807469 1562.74486035684776652 64.009497869018218807469 118.29527482341724465
66.009497869018190385759 1564.94726519424511935 66.009497869018190385759 117.98613324367150312
68.009497869018190385759 1567.05298683761179745 68.009497869018190385759 117.69704553506272759
70.009497869018190385759 1569.06860260694520548 70.009497869018190385759 117.41775283732624757
72.009497869018190385759 1571.00010296759546691 72.009497869018190385759 117.15590731269418256
74.009497869018218807469 1572.85294193031450050 74.009497869018218807469 116.90594558395494573
76.009497869018190385759 1574.63206290063112647 76.009497869018190385759 116.66817831249841220
78.009497869018190385759 1576.34200975679323165 78.009497869018190385759 116.44272338796412214
80.009497869018218807469 1577.98693967023996265 80.009497869018218807469 116.22673383091566279
82.009497869018190385759 1579.57065506884987371 82.009497869018190385759 116.01994195251006659
84.009497869018218807469 1581.09667446046887562 84.009497869018218807469 115.82028756977605610
86.009497869018190385759 1582.56823944921734437 86.009497869018190385759 115.63140662969364314
88.009497869018190385759 1583.98833007741245638 88.009497869018190385759 115.44808410103944141
91.009497869018218807469 1586.02795609105896801 91.009497869018218807469 115.18770330170740124
94.009497869018218807469 1587.96646341734867747 94.009497869018218807469 114.94154456465521719
97.009497869018218807469 1589.81145750964310537 97.009497869018218807469 114.71038132033403656
99.504748934509137825444 1591.27975631232652631 99.504748934509137825444 114.49429173558367268
nan nan nan nan

