Time Pressure difference Time.1 Pressure.1 difference.1
(hr) (psi) (hr) (psi)
0.000200000000020850166 0.53313195073895114 0.000200000000020850166 0.42493383773652815
0.000399999999999067768 1.06607429490074757 0.000399999999999067768 1.11281715350199151
0.000600000000019917934 1.59885675766881907 0.000600000000019917934 1.62841272956815630
0.000799999999998135536 2.13149203001254506 0.000799999999998135536 2.15347255015781025
0.001007140329434719206 2.68299781641780388 0.001007140329434719206 2.70483434761051056
0.001267914553977789183 3.37710129127261505 0.001267914553977789183 3.40409354346199455
0.001596209851982166583 4.25062024775854130 0.001596209851982166583 4.28384191715117435
0.002009509145224797066 5.34985079764721672 0.002009509145224797066 5.39051518053939649
0.002529822128153114136 6.73299258245749055 0.002529822128153114136 6.78241494619385499
0.003184857364431081805 8.47318650350571367 0.003184857364431081805 8.53269722723377733
0.004009497869034817086 10.66231531122604537 0.004009497869034817086 10.73308987974809448
0.005047658755856332391 13.41575189450667160 0.005047658755856332391 13.49850371060455778
0.006354625877790454069 16.87828117669751649 0.006354625877790454069 16.97273180581399643
0.008000000000009777068 21.23146959305329773 0.008000000000009777068 21.33546239840379144
0.010071403294361402914 26.70281109602899150 0.010071403294361402914 26.81085900829156898
0.012679145539692626699 33.57703938287674816 0.012679145539692626699 33.67798177047815500
0.015962098519750611558 42.21005966942518484 0.015962098519750611558 42.28332580426577891
0.020095091452091651263 53.04601399867067357 0.020095091452091651263 53.05571990098292190
0.025298221281360611101 66.63804120246440732 0.025298221281360611101 66.52373604137056873
0.031848573644296607199 83.67330829966647343 0.031848573644296607199 83.33556796476591444
0.040094978690191851456 105.00284526188924872 0.040094978690191851456 104.28098671650535323
0.050476587558435426217 131.67656434090318385 0.050476587558435426217 130.31438863523945315
0.063546258777947173257 164.98352005085104111 0.063546258777947173257 162.57700020079263936
0.080000000000012505552 206.49686667353023495 0.080000000000012505552 202.41484174488974190
0.100714032943542974863 258.12195717172500053 0.100714032943542974863 251.38689172029515362
0.126791455396883634421 322.14441459133081480 0.126791455396883634421 311.25483257971302464
0.159620985197506115583 401.27256228033087382 0.159620985197506115583 383.94162435449476334
0.200950914520774404082 498.66505987441405523 0.200950914520774404082 471.44088768007344470
0.252982212813464002465 617.92970970210740234 0.252982212813464002465 575.65291862504784604
0.318485736442809752589 763.07303814805925413 0.318485736442809752589 698.11695929805262040
0.400949786901833249431 938.37260274733137067 0.400949786901833249431 839.60527934017466123
0.504765875584169521062 1148.13595850523029185 0.504765875584169521062 999.54759398615180999
0.635462587779443310865 1396.30438281628835284 0.635462587779443310865 1175.27454192798563781
0.800000000000011368684 1685.86155155247388393 0.800000000000011368684 1361.12469641130019227
1.007140329435344483500 2018.02843004629153256 1.007140329435344483500 1547.57579576542775612
1.267914553968907398485 2391.28269528543614797 1.267914553968907398485 1720.75157283419503074
1.596209851975117999245 2800.35064971449855875 1.596209851975117999245 1862.87771407715149508
2.009509145207687197399 3235.47703142509317331 2.009509145207687197399 1954.35213384875214615
2.529822128134725289783 3682.42270378523880936 2.529822128134725289783 1977.77608794515299451
3.184857364427983839050 4123.63726880419653753 3.184857364427983839050 1923.35629129161475248
4.009497869018204596614 4540.75226408598518901 4.009497869018204596614 1794.08617152053670907
5.009497869018190385759 4906.26381683878571494 5.009497869018190385759 1613.92024684893431186
6.009497869018190385759 5170.56259689981743577 6.009497869018190385759 1442.11765690200400059
7.009497869018204596614 5368.12649305040213221 7.009497869018204596614 1291.49718569641140675
8.009497869018190385759 5520.32259205506852595 8.009497869018190385759 1164.97074961815678762
9.009497869018204596614 5640.78755880194876227 9.009497869018204596614 1061.95697306426836803
10.009497869018190385759 5738.46261410036913730 10.009497869018190385759 979.01524768116303221
11.009497869018190385759 5819.36921767812054895 11.009497869018190385759 908.93215770166762013
12.009497869018204596614 5887.65530843112082948 12.009497869018204596614 851.46031993432575291
13.009497869018190385759 5946.24413867053226568 13.009497869018190385759 804.18400414748225558
14.009497869018204596614 5997.23840963391103287 14.009497869018204596614 765.11616157585876863
15.009497869018190385759 6042.17965751127758267 15.009497869018190385759 732.65165707135258799
16.009497869018190385759 6082.21822360770238447 16.009497869018190385759 705.50871759938752348
17.009497869018204596614 6118.22687444152597891 17.009497869018204596614 683.27366560841301180
18.009497869018190385759 6150.87820276811908116 18.009497869018190385759 663.82911373295939939
19.009497869018204596614 6180.69948495733115124 19.009497869018204596614 648.04429043420395828
20.009497869018190385759 6208.10638424442004180 20.009497869018190385759 633.70119192450613355
21.009497869018190385759 6233.43299604832373007 21.009497869018190385759 621.33253996290090981
22.009497869018204596614 6256.95266401707885962 22.009497869018204596614 610.59420367472580438
23.009497869018190385759 6278.88671556725057599 23.009497869018190385759 601.50356204694264761
24.009497869018204596614 6299.42082857852710731 24.009497869018204596614 593.22719344749646098
25.009497869018204596614 6318.70981613268850197 25.009497869018204596614 585.91557223190045534
26.009497869018190385759 6336.88406835480145674 26.009497869018190385759 579.73452639769595862
27.009497869018204596614 6354.05549148521731695 27.009497869018204596614 573.89465325200512780
28.009497869018190385759 6370.31909670184450079 28.009497869018190385759 568.66134699668475605
29.009497869018190385759 6385.75781312592334871 29.009497869018190385759 564.08398681277742526
30.009497869018190385759 6400.44335714252883918 30.009497869018190385759 559.79729832888676810
31.009497869018218807469 6414.43833146941415180 31.009497869018218807469 555.89951264063415692
32.009497869018190385759 6427.79866449506334902 32.009497869018190385759 552.34474892979346805
33.009497869018190385759 6440.57244181927217141 33.009497869018190385759 549.22041266301482665
34.009497869018218807469 6452.80407534333062358 34.009497869018218807469 546.20378712389094744
35.009497869018190385759 6464.53180483443611593 35.009497869018190385759 543.49381045365851151
36.009497869018190385759 6475.79051955649265437 36.009497869018190385759 540.90828405848378679
37.009497869018190385759 6486.61209909386889194 37.009497869018190385759 538.50596918160738369
38.009497869018218807469 6497.02432863376452588 38.009497869018218807469 536.26933057508063030
39.009497869018190385759 6507.05316087761639210 39.009497869018190385759 534.21868875578672942
40.009497869018190385759 6516.72220548962195608 40.009497869018190385759 532.37291279264150035
41.009497869018218807469 6526.05245406272570108 41.009497869018218807469 530.47567081799309108
42.009497869018190385759 6535.06358527919746848 42.009497869018190385759 528.76654502895462429
43.009497869018190385759 6543.77374872583914112 43.009497869018190385759 527.08495391421456588
44.009497869018218807469 6552.19913028693099477 44.009497869018218807469 525.55653145239261903
46.009497869018190385759 6568.25557632860909507 46.009497869018190385759 522.72049310035811232
48.009497869018218807469 6583.34151471920267795 48.009497869018218807469 520.10671197766362184
50.009497869018190385759 6597.55029321813617571 50.009497869018190385759 517.76295098047853571
52.009497869018190385759 6610.96268120645163435 52.009497869018190385759 515.60969546042917955
54.009497869018218807469 6623.64936703944295004 54.009497869018218807469 513.59587893611023901
56.009497869018190385759 6635.67212944252059970 56.009497869018190385759 511.73420756181508295
58.009497869018218807469 6647.08570430200506962 58.009497869018218807469 510.06842253980750002
60.009497869018190385759 6657.93848545838864084 60.009497869018190385759 508.44823406235155971
62.009497869018190385759 6668.27360201828651043 62.009497869018190385759 506.93464216838299308
64.009497869018218807469 6678.12970325826336193 64.009497869018218807469 505.51514107873640569
66.009497869018190385759 6687.54131326340848318 66.009497869018190385759 504.19407606128953603
68.009497869018190385759 6696.53976375272850419 68.009497869018190385759 502.95870791983475101
70.009497869018190385759 6705.15316180701302073 70.009497869018190385759 501.76519712484088132
72.009497869018190385759 6713.40710668152496510 72.009497869018190385759 500.64624391624647615
74.009497869018218807469 6721.32490518221038656 74.009497869018218807469 499.57807412876746866
76.009497869018190385759 6728.92768212869759736 76.009497869018190385759 498.56201532207649052
78.009497869018190385759 6736.23485502736275521 78.009497869018190385759 497.59857127790002096
80.009497869018218807469 6743.26418885749171750 80.009497869018218807469 496.67557590411291812
82.009497869018190385759 6750.03193266088510427 82.009497869018190385759 495.79188527705963452
84.009497869018218807469 6756.55312219440384069 84.009497869018218807469 494.93869554817632661
86.009497869018190385759 6762.84160991298904264 86.009497869018190385759 494.13154433089084705
88.009497869018190385759 6768.91013053080951067 88.009497869018190385759 493.34814605844178459
91.009497869018218807469 6777.62613236245852022 91.009497869018218807469 492.23545210929631821
94.009497869018218807469 6785.91002033680251770 94.009497869018218807469 491.18353377295994733
97.009497869018218807469 6793.79429509120836883 97.009497869018218807469 490.19569617556072672
99.504748934509137825444 6800.06882530800885434 99.504748934509137825444 489.27227335006085696
nan nan nan nan

