Time Pressure difference Time.1 Pressure.1 difference.1
(hr) (psi) (hr) (psi)
0.000200000000020850166 0.14056052991401366 0.000200000000020850166 0.11203403834239198
0.000399999999999067768 0.28107106995043113 0.000399999999999067768 0.29339485014327077
0.000600000000019917934 0.42153945717009428 0.000600000000019917934 0.42933190529956072
0.000799999999998135536 0.56196903755400951 0.000799999999998135536 0.56776421369215269
0.001007140329434719206 0.70737383927396080 0.001007140329434719206 0.71313105264614085
0.001267914553977789183 0.89037459941508879 0.001267914553977789183 0.89749112144317800
0.001596209851982166583 1.12067834925303211 0.001596209851982166583 1.12943726052815685
0.002009509145224797066 1.41049108393506950 0.002009509145224797066 1.42121227068823397
0.002529822128153114136 1.77515717072592172 0.002529822128153114136 1.78818740391070441
0.003184857364431081805 2.23396024819417427 0.003184857364431081805 2.24965028299923331
0.004009497869034817086 2.81112525366178101 0.004009497869034817086 2.82978500729707960
0.005047658755856332391 3.53707031228023050 0.005047658755856332391 3.55888787377873683
0.006354625877790454069 4.44996804814645941 0.006354625877790454069 4.47487000808512470
0.008000000000009777068 5.59768855105461416 0.008000000000009777068 5.62510631096761315
0.010071403294361402914 7.04021072578611395 0.010071403294361402914 7.06869761685066322
0.012679145539692626699 8.85260476709231092 0.012679145539692626699 8.87921828270016888
0.015962098519750611558 11.12870527945843335 0.015962098519750611558 11.14802193591406798
0.020095091452091651263 13.98561055503173733 0.020095091452091651263 13.98816952147599579
0.025298221281360611101 17.56915594885566634 0.025298221281360611101 17.53901933072016561
0.031848573644296607199 22.06051342066089660 0.031848573644296607199 21.97146799695076425
0.040094978690191851456 27.68405748714397063 0.040094978690191851456 27.49373908750297346
0.050476587558435426217 34.71659808675918413 0.050476587558435426217 34.35745971818325728
0.063546258777947173257 43.49799514601221517 0.063546258777947173257 42.86351487353191203
0.080000000000012505552 54.44301165027552969 0.080000000000012505552 53.36678354896469045
0.100714032943542974863 68.05399494855151943 0.100714032943542974863 66.27829126478920330
0.126791455396883634421 84.93355080489064335 0.126791455396883634421 82.06250656157799028
0.159620985197506115583 105.79573014879238713 0.159620985197506115583 101.22641890157507305
0.200950914520774404082 131.47331531790325698 0.200950914520774404082 124.29564745387270364
0.252982212813464002465 162.91750536607824529 0.252982212813464002465 151.77120631456017463
0.318485736442809752589 201.18462316228084319 0.318485736442809752589 184.05891750603882429
0.400949786901833249431 247.40244908626988263 0.400949786901833249431 221.36239034085727440
0.504765875584169521062 302.70667236721357085 0.504765875584169521062 263.53126892926621849
0.635462587779443310865 368.13641294220394684 0.635462587779443310865 309.86177470488229346
0.800000000000011368684 444.47831858403759497 0.800000000000011368684 358.86126941265166579
1.007140329435344483500 532.05429746930315105 1.007140329435344483500 408.01920356373994991
1.267914553968907398485 630.46298830458454177 1.267914553968907398485 453.67709174567693253
1.596209851975117999245 738.31397784984437749 1.596209851975117999245 491.14872648835978453
2.009509145207687197399 853.03528597635056485 2.009509145207687197399 515.26600720817327783
2.529822128134725289783 970.87275653620190496 2.529822128134725289783 521.44174549568003840
3.184857364427983839050 1087.19921751623905948 3.184857364427983839050 507.09393639357705297
4.009497869018204596614 1197.17181377618044280 4.009497869018204596614 473.01179873162357126
5.009497869018190385759 1293.53913423674703154 5.009497869018190385759 425.51095431742572828
6.009497869018190385759 1363.22165191274439167 6.009497869018190385759 380.21510766995112363
7.009497869018204596614 1415.30948100704836179 7.009497869018204596614 340.50393819452966682
8.009497869018190385759 1455.43606561202273042 8.009497869018190385759 307.14517423630030635
9.009497869018204596614 1487.19671987134074698 9.009497869018204596614 279.98553580009570396
10.009497869018190385759 1512.94880153348276508 10.009497869018190385759 258.11790461484639536
11.009497869018190385759 1534.27987174352961119 11.009497869018190385759 239.64045967485461119
12.009497869018204596614 1552.28353685625484104 12.009497869018204596614 224.48797826661629529
13.009497869018190385759 1567.73051393965693023 13.009497869018190385759 212.02355179551406650
14.009497869018204596614 1581.17518132313716706 14.009497869018204596614 201.72329376961019420
15.009497869018190385759 1593.02396586490795016 15.009497869018190385759 193.16400943066861373
16.009497869018190385759 1603.58015567816187286 16.009497869018190385759 186.00775861824723734
17.009497869018204596614 1613.07385613200926855 17.009497869018204596614 180.14547502000277746
18.009497869018190385759 1621.68239667365378409 18.009497869018190385759 175.01890830088944995
19.009497869018204596614 1629.54479400591094418 19.009497869018204596614 170.85723101931429824
20.009497869018190385759 1636.77063796771744819 20.009497869018190385759 167.07566526558744613
21.009497869018190385759 1643.44801299870005096 21.009497869018190385759 163.81466342235609090
22.009497869018204596614 1649.64898630091465748 22.009497869018204596614 160.98349519661258000
23.009497869018190385759 1655.43191096858868150 23.009497869018190385759 158.58674256775867661
24.009497869018204596614 1660.84574107608591476 24.009497869018204596614 156.40467346743668031
25.009497869018204596614 1665.93129317694911151 25.009497869018204596614 154.47696054163989743
26.009497869018190385759 1670.72294469884764112 26.009497869018190385759 152.84732443246588218
27.009497869018204596614 1675.25019978315413027 27.009497869018204596614 151.30763868890619506
28.009497869018190385759 1679.53810817880162176 28.009497869018190385759 149.92787463719147922
29.009497869018190385759 1683.60853419388604379 29.009497869018190385759 148.72105112536567617
30.009497869018190385759 1687.48038589249199504 30.009497869018190385759 147.59086336596234901
31.009497869018218807469 1691.17016851533708177 31.009497869018218807469 146.56321004097844707
32.009497869018190385759 1694.69262761258300998 32.009497869018190385759 145.62599464763667356
33.009497869018190385759 1698.06044097887206590 33.009497869018190385759 144.80226168494462513
34.009497869018218807469 1701.28531783622906914 34.009497869018218807469 144.00692671441120751
35.009497869018190385759 1704.37734012015562257 35.009497869018190385759 143.29243988559795753
36.009497869018190385759 1707.34570640412994180 36.009497869018190385759 142.61076443975628081
37.009497869018190385759 1710.19882175797783930 37.009497869018190385759 141.97739281075141093
38.009497869018218807469 1712.94401176147607657 38.009497869018218807469 141.38770182088708793
39.009497869018190385759 1715.58811885852924206 39.009497869018190385759 140.84704898553505359
40.009497869018190385759 1718.13736774999392765 40.009497869018190385759 140.36040914501779753
41.009497869018218807469 1720.59729288081234699 41.009497869018218807469 139.86020026246620773
42.009497869018190385759 1722.97308254630934243 42.009497869018190385759 139.40958831496618586
43.009497869018190385759 1725.26952189495614221 43.009497869018190385759 138.96623589937948395
44.009497869018218807469 1727.49087834398005725 44.009497869018218807469 138.56326648276811397
46.009497869018190385759 1731.72416911003892892 46.009497869018190385759 137.81554342271530800
48.009497869018218807469 1735.70158500397087664 48.009497869018218807469 137.12641860253535242
50.009497869018190385759 1739.44773721351771201 50.009497869018190385759 136.50848473588280285
52.009497869018190385759 1742.98392063009418962 52.009497869018190385759 135.94077774229725719
54.009497869018218807469 1746.32877227716971902 54.009497869018218807469 135.40983391607275621
56.009497869018190385759 1749.49858014943197304 56.009497869018190385759 134.91900324172658543
58.009497869018218807469 1752.50777539319619791 58.009497869018218807469 134.47981811111930028
60.009497869018190385759 1755.36911707093236146 60.009497869018190385759 134.05265453437974088
62.009497869018190385759 1758.09397619514879807 62.009497869018190385759 133.65359520508067703
64.009497869018218807469 1760.69254266871530490 64.009497869018218807469 133.27934296771675804
66.009497869018190385759 1763.17391878551643458 66.009497869018190385759 132.93104345453656379
68.009497869018190385759 1765.54636517037579324 68.009497869018190385759 132.60533796950400642
70.009497869018190385759 1767.81729227049163455 70.009497869018190385759 132.29066819672090105
72.009497869018190385759 1769.99344934349096548 72.009497869018190385759 131.99565557230209834
74.009497869018218807469 1772.08098124148773422 74.009497869018218807469 131.71403202458924397
76.009497869018190385759 1774.08545753471116768 76.009497869018190385759 131.44614756541486145
78.009497869018190385759 1776.01199765932051378 78.009497869018190385759 131.19213501710623859
80.009497869018218807469 1777.86528536180344418 80.009497869018218807469 130.94878678283166096
82.009497869018190385759 1779.64960471090398642 82.009497869018190385759 130.71580126649467957
84.009497869018218807469 1781.36891989212836052 84.009497869018218807469 130.49085732861436782
86.009497869018190385759 1783.02688311278484434 86.009497869018190385759 130.27805146945485149
88.009497869018190385759 1784.62685188721820850 88.009497869018190385759 130.07150808717108248
91.009497869018218807469 1786.92483052925967968 91.009497869018218807469 129.77814571992368542
94.009497869018218807469 1789.10888211687938565 94.009497869018218807469 129.50080687617821695
97.009497869018218807469 1791.18757546086453658 97.009497869018218807469 129.24036295424301102
99.504748934509137825444 1792.84185877855452418 99.504748934509137825444 128.99690202209094991
nan nan nan nan

