Time Pressure difference Time.1 Pressure.1 difference.1
(hr) (psi) (hr) (psi)
0.000200000000020850166 0.66537528953379244 0.000200000000020850166 0.53033864304090872
0.000399999999999067768 1.33051394059375672 0.000399999999999067768 1.38885136162495026
0.000600000000019917934 1.99545305169275400 0.000600000000019917934 2.03234038011626383
0.000799999999998135536 2.66020846179412773 0.000799999999998135536 2.68764124824687656
0.001007140329434719206 3.34851521549803888 0.001007140329434719206 3.37576829654977928
0.001267914553977789183 4.21479100314834909 0.001267914553977789183 4.24847868138782481
0.001596209851982166583 5.30498626865340661 0.001596209851982166583 5.34644857054748712
0.002009509145224797066 6.67688087069855385 0.002009509145224797066 6.72763205059519009
0.002529822128153114136 8.40311086734164192 0.002529822128153114136 8.46479244454771340
0.003184857364431081805 10.57495975476532202 0.003184857364431081805 10.64923210887210914
0.004009497869034817086 13.30710179248180403 0.004009497869034817086 13.39543198720511086
0.005047658755856332391 16.74352810546854542 0.005047658755856332391 16.84680650309461214
0.006354625877790454069 21.06493750601874027 0.006354625877790454069 21.18281660632012020
0.008000000000009777068 26.49793396948929924 0.008000000000009777068 26.62772218209521213
0.010071403294361402914 33.32644130549639527 0.010071403294361402914 33.46129049396763122
0.012679145539692626699 41.90582138268549528 0.012679145539692626699 42.03180252165760322
0.015962098519750611558 52.68026167790974768 0.015962098519750611558 52.77170147178257054
0.020095091452091651263 66.20407363328632755 0.020095091452091651263 66.21618708391004304
0.025298221281360611101 83.16760212476054903 0.025298221281360611101 83.02494357737356268
0.031848573644296607199 104.42846589661962753 0.031848573644296607199 104.00694909799177879
0.040094978690191851456 131.04879283855134986 0.040094978690191851456 130.14787733729218644
0.050476587558435426217 164.33892585448134582 0.050476587558435426217 162.63886257128169177
0.063546258777947173257 205.90766933023533625 0.063546258777947173257 202.90421241908595107
0.080000000000012505552 257.71839834449951923 0.080000000000012505552 252.62382745072039825
0.100714032943542974863 322.14908851385331445 0.100714032943542974863 313.74339060255249478
0.126791455396883634421 402.05231150244094351 0.126791455396883634421 388.46156952226272097
0.159620985197506115583 500.80819005345512096 0.159620985197506115583 479.17831432698255867
0.200950914520774404082 622.35888907883190768 0.200950914520774404082 588.38176309525545093
0.252982212813464002465 771.20712599326975578 0.252982212813464002465 718.44358018726711634
0.318485736442809752589 952.35324573860759756 0.318485736442809752589 871.28481659663350456
0.400949786901833249431 1171.13585366281586175 0.400949786901833249431 1047.86930338867341561
0.504765875584169521062 1432.93099345426549007 0.504765875584169521062 1247.48529670658581381
0.635462587779443310865 1742.65757605777025674 0.635462587779443310865 1466.80130037814092248
0.800000000000011368684 2104.03937791260386803 0.800000000000011368684 1698.75157118414995239
1.007140329435344483500 2518.60022470676040030 1.007140329435344483500 1931.45185118930135104
1.267914553968907398485 2984.44018132347719074 1.267914553968907398485 2147.58386625172533968
1.596209851975117999245 3494.97740994009154747 1.596209851975117999245 2324.96438574371495633
2.009509145207687197399 4038.03685669278365822 2.009509145207687197399 2439.12902820437057017
2.529822128134725289783 4595.84736821870774293 2.529822128134725289783 2468.36329228724252971
3.184857364427983839050 5146.50517167450470879 3.184857364427983839050 2400.44466931870783810
4.009497869018204596614 5667.08550899967031000 4.009497869018204596614 2239.10910642188673592
5.009497869018190385759 6123.26217390176043409 5.009497869018190385759 2014.25303818899760699
6.009497869018190385759 6453.12024574080260209 6.009497869018190385759 1799.83482920686924444
7.009497869018204596614 6699.68985092093862477 7.009497869018204596614 1611.85296186759615011
8.009497869018190385759 6889.63818041194281250 8.009497869018190385759 1453.94165318958744137
9.009497869018204596614 7039.98447276374281500 9.009497869018204596614 1325.37531739690257382
10.009497869018190385759 7161.88781790997745702 10.009497869018190385759 1221.85990350223141832
11.009497869018190385759 7262.86329819422280707 11.009497869018190385759 1134.39270852002186984
12.009497869018204596614 7348.08774843197534210 12.009497869018204596614 1062.66498587747355486
13.009497869018190385759 7421.20953344216286496 13.009497869018190385759 1003.66178364740380857
14.009497869018204596614 7484.85292934029530443 14.009497869018204596614 954.90316577330270320
15.009497869018190385759 7540.94185024808393791 15.009497869018190385759 914.38584345878632575
16.009497869018190385759 7590.91197954159451911 16.009497869018190385759 880.51009996803418289
17.009497869018204596614 7635.85257340596035647 17.009497869018204596614 852.75964506510194951
18.009497869018190385759 7676.60306117706022633 18.009497869018190385759 828.49187361367785343
19.009497869018204596614 7713.82151008715300122 19.009497869018204596614 808.79162612693153278
20.009497869018190385759 7748.02668860457924893 20.009497869018190385759 790.89072315070973218
21.009497869018190385759 7779.63556449088900990 21.009497869018190385759 775.45402803482170384
22.009497869018204596614 7808.98928426468410180 22.009497869018204596614 762.05204826798853901
23.009497869018190385759 7836.36407559095277975 23.009497869018190385759 750.70647369353218892
24.009497869018204596614 7861.99167373295040306 24.009497869018204596614 740.37715250857593219
25.009497869018204596614 7886.06529314532144781 25.009497869018204596614 731.25188422078053918
26.009497869018190385759 7908.74766721347896237 26.009497869018190385759 723.53763044954257566
27.009497869018204596614 7930.17846051197193447 27.009497869018204596614 716.24917722559143840
28.009497869018190385759 7950.47625173397227627 28.009497869018190385759 709.71774976185304240
29.009497869018190385759 7969.74454056277409109 29.009497869018190385759 704.00497574137602896
30.009497869018190385759 7988.07283262718192418 30.009497869018190385759 698.65497451343128432
31.009497869018218807469 8005.53925924419763760 31.009497869018218807469 693.79034338924702752
32.009497869018190385759 8022.21362183471410390 32.009497869018190385759 689.35382081721502345
33.009497869018190385759 8038.15593362779691233 33.009497869018190385759 685.45449318316980225
34.009497869018218807469 8053.42162289339194103 34.009497869018218807469 681.68959391437249451
35.009497869018190385759 8068.05841476996738493 35.009497869018190385759 678.30740774247556146
36.009497869018190385759 8082.10985280061504454 36.009497869018190385759 675.08054172665697479
37.009497869018190385759 8095.61572429811985785 37.009497869018190385759 672.08233283195932017
38.009497869018218807469 8108.61070656320043781 38.009497869018218807469 669.29089619354840579
39.009497869018190385759 8121.12718986286108702 39.009497869018190385759 666.73159283093502836
40.009497869018190385759 8133.19464023665659624 40.009497869018190385759 664.42797228410790922
41.009497869018218807469 8144.83925624053063075 41.009497869018218807469 662.06011958563885855
42.009497869018190385759 8156.08559785235229356 42.009497869018190385759 659.92704527794649039
43.009497869018190385759 8166.95631666251392744 43.009497869018190385759 657.82833561836434910
44.009497869018218807469 8177.47161346262782899 44.009497869018218807469 655.92078808410940383
46.009497869018190385759 8197.51085969249106711 46.009497869018190385759 652.38127064007255740
48.009497869018218807469 8216.33886392412205169 48.009497869018218807469 649.11914131377682224
50.009497869018190385759 8234.07212882138446730 50.009497869018190385759 646.19401058406060656
52.009497869018190385759 8250.81145860399556113 52.009497869018190385759 643.50664020022361456
54.009497869018218807469 8266.64507586826039187 54.009497869018218807469 640.99329664413141927
56.009497869018190385759 8281.65008354760720977 56.009497869018190385759 638.66983783065836633
58.009497869018218807469 8295.89479476069209340 58.009497869018218807469 636.59085496387831427
60.009497869018190385759 8309.43960743636671396 60.009497869018190385759 634.56877886096913244
62.009497869018190385759 8322.33834885277610738 62.009497869018190385759 632.67974061576660461
64.009497869018218807469 8334.63925523652142147 64.009497869018218807469 630.90813239155875181
66.009497869018190385759 8346.38541436930790951 66.009497869018190385759 629.25937729958138789
68.009497869018190385759 8357.61592980059685942 68.009497869018190385759 627.71757618700121384
70.009497869018190385759 8368.36588057037442923 70.009497869018190385759 626.22801513240665372
72.009497869018190385759 8378.66721582717582351 72.009497869018190385759 624.83150566770223122
74.009497869018218807469 8388.54902362834400265 74.009497869018218807469 623.49837644775971057
76.009497869018190385759 8398.03766880336661416 76.009497869018190385759 622.23028433332490295
78.009497869018190385759 8407.15738536956450844 78.009497869018190385759 621.02785806914198474
80.009497869018218807469 8415.93034490794707381 80.009497869018218807469 619.87591376488353490
82.009497869018190385759 8424.37682703386599314 82.009497869018190385759 618.77302374672035512
84.009497869018218807469 8432.51559712250127632 84.009497869018218807469 617.70820037213900378
86.009497869018190385759 8440.36394372916038265 86.009497869018190385759 616.70083535836613464
88.009497869018190385759 8447.93776041286764666 88.009497869018190385759 615.72311520554353592
91.009497869018218807469 8458.81576581898116274 91.009497869018218807469 614.33441760910613993
94.009497869018218807469 8469.15447155919355282 94.009497869018218807469 613.02157101149452956
97.009497869018218807469 8478.99444005143050163 97.009497869018218807469 611.78870037511478586
99.504748934509137825444 8486.82536699907359434 99.504748934509137825444 610.63622258977954971
nan nan nan nan

