Time Pressure difference Time.1 Pressure.1 difference.1
(hr) (psi) (hr) (psi)
0.000200000000020850166 0.42999878086121335 0.000200000000020850166 0.34273134806518729
0.000399999999999067768 0.85984463410871537 0.000399999999999067768 0.89754519245012421
0.000600000000019917934 1.28956153465644241 0.000600000000019917934 1.31339997065013536
0.000799999999998135536 1.71915971843445492 0.000799999999998135536 1.73688815667954422
0.001007140329434719206 2.16397795801560777 0.001007140329434719206 2.18159026164529513
0.001267914553977789183 2.72380868578462065 0.001267914553977789183 2.74557934784688173
0.001596209851982166583 3.42834737611726403 0.001596209851982166583 3.45514238871631374
0.002009509145224797066 4.31493426268893998 0.002009509145224797066 4.34773221269714139
0.002529822128153114136 5.43051039801953639 0.002529822128153114136 5.47037211728896011
0.003184857364431081805 6.83406774151708962 0.003184857364431081805 6.88206625035860053
0.004009497869034817086 8.59971453339136538 0.004009497869034817086 8.65679792173130203
0.005047658755856332391 10.82050503815904818 0.005047658755856332391 10.88724870262489119
0.006354625877790454069 13.61321586326461031 0.006354625877790454069 13.68939523183437679
0.008000000000009777068 17.12428982778245867 0.008000000000009777068 17.20816546017902837
0.010071403294361402914 21.53721269367704849 0.010071403294361402914 21.62435898172658355
0.012679145539692626699 27.08163706856050368 0.012679145539692626699 27.16305237962122732
0.015962098519750611558 34.04461910934917057 0.015962098519750611558 34.10371207613948741
0.020095091452091651263 42.78438258551128826 0.020095091452091651263 42.79221090297686914
0.025298221281360611101 53.74706287312651654 0.025298221281360611101 53.65486978687766850
0.031848573644296607199 67.48689608569044651 0.031848573644296607199 67.21449085457719264
0.040094978690191851456 84.69028237191380981 0.040094978690191851456 84.10806572922506064
0.050476587558435426217 106.20403083345857453 0.050476587558435426217 105.10536493669079050
0.063546258777947173257 133.06783130466459397 0.063546258777947173257 131.12684727583430799
0.080000000000012505552 166.55051493013283448 0.080000000000012505552 163.25814849002804863
0.100714032943542974863 208.18884845207770695 0.100714032943542974863 202.75666617689952886
0.126791455396883634421 259.82630630845244468 0.126791455396883634421 251.04328930376229323
0.159620985197506115583 323.64729282204535821 0.159620985197506115583 309.66898563381249687
0.200950914520774404082 402.19943206719517548 0.200950914520774404082 380.24171440030880831
0.252982212813464002465 498.39260517315057086 0.252982212813464002465 464.29416369602142822
0.318485736442809752589 615.45828505857514301 0.318485736442809752589 563.06781272557441298
0.400949786901833249431 756.84654542959481205 0.400949786901833249431 677.18553731493022951
0.504765875584169521062 926.03165451981908518 0.504765875584169521062 806.18737299663098383
0.635462587779443310865 1126.19245852733411084 0.635462587779443310865 947.92034036937354813
0.800000000000011368684 1359.73544797602039580 0.800000000000011368684 1097.81820287775690304
1.007140329435344483500 1627.64539521674373646 1.007140329435344483500 1248.20075883108620474
1.267914553968907398485 1928.69446718029712429 1.267914553968907398485 1387.87607356517764856
1.596209851975117999245 2258.62915117378406649 1.596209851975117999245 1502.50823428687567684
2.009509145207687197399 2609.58131863771131975 2.009509145207687197399 1576.28713447707468731
2.529822128134725289783 2970.06636171133959579 2.529822128134725289783 1595.17977764063061841
3.184857364427983839050 3325.92896719464852140 3.184857364427983839050 1551.28736754721512625
4.009497869018204596614 3662.35401019103665021 4.009497869018204596614 1447.02426002514425818
5.009497869018190385759 3957.15817988401340699 5.009497869018190385759 1301.71102592963961797
6.009497869018190385759 4170.32895880999330984 6.009497869018190385759 1163.14325837493902327
7.009497869018204596614 4329.67456615765604511 7.009497869018204596614 1041.65997660693392390
8.009497869018190385759 4452.42867409121754463 8.009497869018190385759 939.60979337377091269
9.009497869018204596614 4549.58996552356893517 9.009497869018204596614 856.52379886774838269
10.009497869018190385759 4628.37000232432274061 10.009497869018190385759 789.62696263831708166
11.009497869018190385759 4693.62540645801709616 11.009497869018190385759 733.10128788106419506
12.009497869018204596614 4748.70170742416394205 12.009497869018204596614 686.74724712331737919
13.009497869018190385759 4795.95666098699803115 13.009497869018190385759 648.61642768213471300
14.009497869018204596614 4837.08620558616621565 14.009497869018204596614 617.10617088099684224
15.009497869018190385759 4873.33367072282453591 15.009497869018190385759 590.92185133524071716
16.009497869018190385759 4905.62686677875535679 16.009497869018190385759 569.02965210434206256
17.009497869018204596614 4934.66972556360178714 17.009497869018204596614 551.09592062332217210
18.009497869018190385759 4961.00472828567490069 18.009497869018190385759 535.41287332283934575
19.009497869018204596614 4985.05715089382192673 19.009497869018204596614 522.68158838452961845
20.009497869018190385759 5007.16224751070967613 20.009497869018190385759 511.11312983614612904
21.009497869018190385759 5027.58948355223674298 21.009497869018190385759 501.13716561750356959
22.009497869018204596614 5046.55932495605247823 22.009497869018204596614 492.47613619318752853
23.009497869018190385759 5064.25028385065252223 23.009497869018190385759 485.14405862444516515
24.009497869018204596614 5080.81211914991945378 24.009497869018204596614 478.46873480866719319
25.009497869018204596614 5096.36969569516350020 25.009497869018204596614 472.57153017767944903
26.009497869018190385759 5111.02817993671123986 26.009497869018190385759 467.58619367801685485
27.009497869018204596614 5124.87783010586190358 27.009497869018204596614 462.87603078203846962
28.009497869018190385759 5137.99527768307871156 28.009497869018190385759 458.65509578359757370
29.009497869018190385759 5150.44740933869252331 29.009497869018190385759 454.96321557286421466
30.009497869018190385759 5162.29206808531580464 30.009497869018190385759 451.50577727930493666
31.009497869018218807469 5173.57974628656302230 31.009497869018218807469 448.36200941530086084
32.009497869018190385759 5184.35555311068401352 32.009497869018190385759 445.49490670312519569
33.009497869018190385759 5194.65827210696352267 33.009497869018190385759 442.97496621962352492
34.009497869018218807469 5204.52372379485404963 34.009497869018218807469 440.54190006716322614
35.009497869018190385759 5213.98275054509122128 35.009497869018190385759 438.35616225357483700
36.009497869018190385759 5223.06349237239737704 36.009497869018190385759 436.27080009085204892
37.009497869018190385759 5231.79166182766039128 37.009497869018190385759 434.33320759265370725
38.009497869018218807469 5240.18966911646839435 38.009497869018218807469 432.52924166508063308
39.009497869018190385759 5248.27844644887409231 39.009497869018190385759 430.87529186699180173
40.009497869018190385759 5256.07703625293925143 40.009497869018190385759 429.38657708860472439
41.009497869018218807469 5263.60236934544354881 41.009497869018218807469 427.85635228221912030
42.009497869018190385759 5270.87031761208254466 42.009497869018190385759 426.47785301087287735
43.009497869018190385759 5277.89551964314887300 43.009497869018190385759 425.12156189336803891
44.009497869018218807469 5284.69103020022339479 44.009497869018218807469 423.88880929935567110
46.009497869018190385759 5297.64139307627283415 46.009497869018190385759 421.60139615114690059
48.009497869018218807469 5309.80899081096413283 48.009497869018218807469 419.49324507402826612
50.009497869018190385759 5321.26911325082073745 50.009497869018190385759 417.60287933994914056
52.009497869018190385759 5332.08690512283192220 52.009497869018190385759 415.86616622939459376
54.009497869018218807469 5342.31938027986234374 54.009497869018218807469 414.24191795626990142
56.009497869018190385759 5352.01636649264128209 56.009497869018190385759 412.74038269806300150
58.009497869018218807469 5361.22201111409776786 58.009497869018218807469 411.39684002040633004
60.009497869018190385759 5369.97534630575137271 60.009497869018190385759 410.09007333890133395
62.009497869018190385759 5378.31115794610650482 62.009497869018190385759 408.86928237293915345
64.009497869018218807469 5386.26061869660225057 64.009497869018218807469 407.72438055804479973
66.009497869018190385759 5393.85157403616540250 66.009497869018190385759 406.65887257985446013
68.009497869018190385759 5401.10929463363572722 68.009497869018190385759 405.66248361084950602
70.009497869018190385759 5408.05645031860422023 70.009497869018190385759 404.69985477931777496
72.009497869018190385759 5414.71368822831300349 72.009497869018190385759 403.79736053775263827
74.009497869018218807469 5421.09980651981732080 74.009497869018218807469 402.93582577936473399
76.009497869018190385759 5427.23184346417565393 76.009497869018190385759 402.11632125041120389
78.009497869018190385759 5433.12546029508121137 78.009497869018190385759 401.33925327718299059
80.009497869018218807469 5438.79498539676023938 80.009497869018218807469 400.59480927055597022
82.009497869018190385759 5444.25352447063505679 82.009497869018190385759 399.88206659631799766
84.009497869018218807469 5449.51320464041691594 84.009497869018218807469 399.19392449049479410
86.009497869018190385759 5454.58519863496894686 86.009497869018190385759 398.54291485034411835
88.009497869018190385759 5459.47977766681469802 88.009497869018190385759 397.91106320158257859
91.009497869018218807469 5466.50968866051607620 91.009497869018218807469 397.01361737988486311
94.009497869018218807469 5473.19107724512832647 94.009497869018218807469 396.16519026617834243
97.009497869018218807469 5479.55015688323692302 97.009497869018218807469 395.36844761741792809
99.504748934509137825444 5484.61089342315244721 99.504748934509137825444 394.62365884864505006
nan nan nan nan

