Time Pressure difference Time.1 Pressure.1 difference.1
(hr) (psi) (hr) (psi)
0.000200000000020850166 0.36845156657933753 0.000200000000020850166 0.29367502358390318
0.000399999999999067768 0.73677209460379278 0.000399999999999067768 0.76907644149981635
0.000600000000019917934 1.10498212737486257 0.000600000000019917934 1.12540848548938111
0.000799999999998135536 1.47309043571849818 0.000799999999998135536 1.48828134121670796
0.001007140329434719206 1.85424030058203915 0.001007140329434719206 1.86933169421444023
0.001267914553977789183 2.33394051799339808 0.001267914553977789183 2.35259506981850786
0.001596209851982166583 2.93763614626682346 0.001596209851982166583 2.96059589594067107
0.002009509145224797066 3.69732278214932419 0.002009509145224797066 3.72542624801708655
0.002529822128153114136 4.65322264279043463 0.002529822128153114136 4.68737881616829632
0.003184857364431081805 5.85588396420129786 0.003184857364431081805 5.89701228028793079
0.004009497869034817086 7.36880761758679892 0.004009497869034817086 7.41772046291483012
0.005047658755856332391 9.27172868840320774 0.005047658755856332391 9.32891910108864053
0.006354625877790454069 11.66470914395787695 0.006354625877790454069 11.72998469574976532
0.008000000000009777068 14.67323093560469793 0.008000000000009777068 14.74510115833522406
0.010071403294361402914 18.45451687291863152 0.010071403294361402914 18.52918961103457818
0.012679145539692626699 23.20534859066209421 0.012679145539692626699 23.27511064636789939
0.015962098519750611558 29.17169490414252309 0.015962098519750611558 29.22232968999959724
0.020095091452091651263 36.66050577443230196 0.020095091452091651263 36.66721359771518252
0.025298221281360611101 46.05405967658616362 0.025298221281360611101 45.97506250597061239
0.031848573644296607199 57.82726299025312500 0.031848573644296607199 57.59384806301294901
0.040094978690191851456 72.56826903434779297 0.040094978690191851456 72.06938707552554035
0.050476587558435426217 91.00268019191904045 0.050476587558435426217 90.06127014884722826
0.063546258777947173257 114.02137189161780384 0.063546258777947173257 112.35820762706885034
0.080000000000012505552 142.71156308326661133 0.080000000000012505552 139.89044445083641222
0.100714032943542974863 178.39005776454627039 0.100714032943542974863 173.73540254616341372
0.126791455396883634421 222.63646749447667617 0.126791455396883634421 215.11059412295298898
0.159620985197506115583 277.32253524210074147 0.159620985197506115583 265.34499155856661901
0.200950914520774404082 344.63123482740314785 0.200950914520774404082 325.81640131399768734
0.252982212813464002465 427.05594601877311334 0.252982212813464002465 397.83813252869913413
0.318485736442809752589 527.36560982775392858 0.318485736442809752589 482.47396719038579249
0.400949786901833249431 648.51647896578435848 0.400949786901833249431 580.25762675147791469
0.504765875584169521062 793.48553762529945743 0.504765875584169521062 690.79498305127185631
0.635462587779443310865 964.99663274199019725 0.635462587779443310865 812.24122008439564979
0.800000000000011368684 1165.11180551910433678 0.800000000000011368684 940.68368254322297162
1.007140329435344483500 1394.67487443136838010 1.007140329435344483500 1069.54146259607568936
1.267914553968907398485 1652.63375040787536818 1.267914553968907398485 1189.22456593689298643
1.596209851975117999245 1935.34374075432583595 1.596209851975117999245 1287.44902860558204338
2.009509145207687197399 2236.06290939362907011 2.009509145207687197399 1350.66769936817036069
2.529822128134725289783 2544.95048015110933193 2.529822128134725289783 1366.85617310406041724
3.184857364427983839050 2849.87723881475676535 3.184857364427983839050 1329.24623563523459779
4.009497869018204596614 3138.14860060856744894 4.009497869018204596614 1239.90666768111964302
5.009497869018190385759 3390.75642879809993246 5.009497869018190385759 1115.39261989715737400
6.009497869018190385759 3573.41533607896872127 6.009497869018190385759 996.65853667330384269
7.009497869018204596614 3709.95325494746975892 7.009497869018204596614 892.56357763418134255
8.009497869018190385759 3815.13714240311310277 8.009497869018190385759 805.12019045373403969
9.009497869018204596614 3898.39140179292280664 9.009497869018204596614 733.92658200853475137
10.009497869018190385759 3965.89537916764948022 10.009497869018190385759 676.60492156436066580
11.009497869018190385759 4021.81055137505063612 11.009497869018190385759 628.16996234296220791
12.009497869018204596614 4069.00359069420710512 12.009497869018204596614 588.45073592965104581
13.009497869018190385759 4109.49477914359704300 13.009497869018190385759 555.77771269474988003
14.009497869018204596614 4144.73730962218814966 14.009497869018204596614 528.77762804696646981
15.009497869018190385759 4175.79654957487673528 15.009497869018190385759 506.34116081530294196
16.009497869018190385759 4203.46750867115770234 16.009497869018190385759 487.58246785729897965
17.009497869018204596614 4228.35336252355045872 17.009497869018204596614 472.21565345480019005
18.009497869018190385759 4250.91894512679664331 18.009497869018190385759 458.77737501357410110
19.009497869018204596614 4271.52866121076112904 19.009497869018204596614 447.86836296778835731
20.009497869018190385759 4290.46977881478596828 20.009497869018190385759 437.95573794470550411
21.009497869018190385759 4307.97319383682952321 21.009497869018190385759 429.40766802428254323
22.009497869018204596614 4324.22781616156953532 22.009497869018204596614 421.98632172839859322
23.009497869018190385759 4339.38660685848935827 23.009497869018190385759 415.70370980779341608
24.009497869018204596614 4353.57788932962193940 24.009497869018204596614 409.98384820162391406
25.009497869018204596614 4366.90865607922205527 25.009497869018204596614 404.93073088725719799
26.009497869018190385759 4379.46902071946533397 26.009497869018190385759 400.65896286143419047
27.009497869018204596614 4391.33632250850405399 27.009497869018204596614 396.62298188867123372
28.009497869018190385759 4402.57622439768692857 28.009497869018190385759 393.00620393062609992
29.009497869018190385759 4413.24603933663638600 29.009497869018190385759 389.84275531678696325
30.009497869018190385759 4423.39533106730232248 30.009497869018190385759 386.88019213681252495
31.009497869018218807469 4433.06736480647487042 31.009497869018218807469 384.18640265179556081
32.009497869018190385759 4442.30079309097254736 32.009497869018190385759 381.72967827753279835
33.009497869018190385759 4451.12884824639240833 33.009497869018190385759 379.57042560018032873
34.009497869018218807469 4459.58222367721646151 34.009497869018218807469 377.48561263008377864
35.009497869018190385759 4467.68734717886945873 35.009497869018190385759 375.61272703739581402
36.009497869018190385759 4475.46833098834031262 36.009497869018190385759 373.82584998113628671
37.009497869018190385759 4482.94720733008398383 37.009497869018190385759 372.16559180569748833
38.009497869018218807469 4490.14317875937194913 38.009497869018218807469 370.61983376717739702
39.009497869018190385759 4497.07418138655884832 39.009497869018190385759 369.20261953013027778
40.009497869018190385759 4503.75653203104957356 40.009497869018190385759 367.92698965232477804
41.009497869018218807469 4510.20473814319393568 41.009497869018218807469 366.61579122054752133
42.009497869018190385759 4516.43239981074020761 42.009497869018190385759 365.43460132266284290
43.009497869018190385759 4522.45206035186765803 43.009497869018190385759 364.27244084866930507
44.009497869018218807469 4528.27490595492963621 44.009497869018218807469 363.21613640157556802
46.009497869018190385759 4539.37163855471771967 46.009497869018190385759 361.25612861694020239
48.009497869018218807469 4549.79764589798287489 48.009497869018218807469 359.44972450250395468
50.009497869018190385759 4559.61744133484262420 50.009497869018190385759 357.82993336092351910
52.009497869018190385759 4568.88684520196238736 52.009497869018190385759 356.34180201087383466
54.009497869018218807469 4577.65471076204812562 54.009497869018218807469 354.95003801668775623
56.009497869018190385759 4585.96373376448718773 56.009497869018190385759 353.66342269872711768
58.009497869018218807469 4593.85174259873383562 58.009497869018218807469 352.51218593624759023
60.009497869018190385759 4601.35218261788759264 60.009497869018190385759 351.39246129426169318
62.009497869018190385759 4608.49486067722409643 62.009497869018190385759 350.34640636598072660
64.009497869018218807469 4615.30648758722327329 64.009497869018218807469 349.36537831182562286
66.009497869018190385759 4621.81092320700463461 66.009497869018190385759 348.45238017964317123
68.009497869018190385759 4628.02982112708014029 68.009497869018190385759 347.59860781355195058
70.009497869018190385759 4633.98260636584473104 70.009497869018190385759 346.77376337957019814
72.009497869018190385759 4639.68697076429907611 72.009497869018190385759 346.00044626349017562
74.009497869018218807469 4645.15902183419530047 74.009497869018218807469 345.26222595794695280
76.009497869018190385759 4650.41335909986446495 76.009497869018190385759 344.56001994957864554
78.009497869018190385759 4655.46340214839619875 78.009497869018190385759 343.89417640578739110
80.009497869018218807469 4660.32142849277443020 80.009497869018218807469 343.25628724730427166
82.009497869018190385759 4664.99866797000322549 82.009497869018190385759 342.64556189974638301
84.009497869018218807469 4669.50551190658552514 84.009497869018218807469 342.05591595607199906
86.009497869018190385759 4673.85153384002114763 86.009497869018190385759 341.49808757969526596
88.009497869018190385759 4678.04553482862502278 88.009497869018190385759 340.95667504506980094
91.009497869018218807469 4684.06923032226040959 91.009497869018218807469 340.18768375104252755
94.009497869018218807469 4689.79428862590248173 94.009497869018218807469 339.46069494761508167
97.009497869018218807469 4695.24317117847931513 97.009497869018218807469 338.77799283271980357
99.504748934509137825444 4699.57954697573768499 99.504748934509137825444 338.13980825909044370
nan nan nan nan

