Time Pressure difference Time.1 Pressure.1 difference.1
(hr) (psi) (hr) (psi)
0.000200000000020850166 0.68949514377939236 0.000200000000020850166 0.54956341885114168
0.000399999999999067768 1.37874507094028065 0.000399999999999067768 1.43919722348385482
0.000600000000019917934 2.06778822481661662 0.000600000000019917934 2.10601271889547847
0.000799999999998135536 2.75664101853416499 0.000799999999998135536 2.78506824349582605
0.001007140329434719206 3.46989889205984303 0.001007140329434719206 3.49813989729970887
0.001267914553977789183 4.36757717701247650 0.001267914553977789183 4.40248603358813373
0.001596209851982166583 5.49729202089209146 0.001596209851982166583 5.54025733122983421
0.002009509145224797066 6.91891780226137687 0.002009509145224797066 6.97150871242926673
0.002529822128153114136 8.70772363628277546 0.002529822128153114136 8.77164117066256743
0.003184857364431081805 10.95830204587556622 0.003184857364431081805 11.03526677281872281
0.004009497869034817086 13.78948423245926946 0.004009497869034817086 13.88101639674129650
0.005047658755856332391 17.35048099929178278 0.005047658755856332391 17.45750323883179078
0.006354625877790454069 21.82854149061191862 0.006354625877790454069 21.95069370829922306
0.008000000000009777068 27.45848407588328755 0.008000000000009777068 27.59297711119616281
0.010071403294361402914 34.53452480282064130 0.010071403294361402914 34.67426227437396591
0.012679145539692626699 43.42490740780784364 0.012679145539692626699 43.55545536306769350
0.015962098519750611558 54.58992116373396897 0.015962098519750611558 54.68467565013468601
0.020095091452091651263 68.60397130249296538 0.020095091452091651263 68.61652386570177953
0.025298221281360611101 86.18242770178312639 0.025298221281360611101 86.03459778205335340
0.031848573644296607199 108.21399778537210068 0.031848573644296607199 107.77720100279398707
0.040094978690191851456 135.79931157894881721 0.040094978690191851456 134.86573789076899743
0.050476587558435426217 170.29621191670628377 0.050476587558435426217 168.53452133949062386
0.063546258777947173257 213.37182234345635834 0.063546258777947173257 210.25949011927784227
0.080000000000012505552 267.06069028448763447 0.080000000000012505552 261.78144119580906590
0.100714032943542974863 333.82699297248052517 0.100714032943542974863 325.11658851189497454
0.126791455396883634421 416.62670779440441038 0.126791455396883634421 402.54330141744475213
0.159620985197506115583 518.96248694289283776 0.159620985197506115583 496.54852822133568679
0.200950914520774404082 644.91939880793961493 0.200950914520774404082 609.71060200745841939
0.252982212813464002465 799.16338431052577107 0.252982212813464002465 744.48715996905548309
0.318485736442809752589 986.87605089663213676 0.318485736442809752589 902.86889119826150818
0.400949786901833249431 1213.58952835809304815 0.400949786901833249431 1085.85456563651291617
0.504765875584169521062 1484.87474196698258311 0.504765875584169521062 1292.70663871219949215
0.635462587779443310865 1805.82891318986435181 0.635462587779443310865 1519.97284751684856019
0.800000000000011368684 2180.31080536193576336 0.800000000000011368684 1760.33131563957545040
1.007140329435344483500 2609.89948285238006065 1.007140329435344483500 2001.46698079491375211
1.267914553968907398485 3092.62613789645320139 1.267914553968907398485 2225.43378140335062199
1.596209851975117999245 3621.67034105042012015 1.596209851975117999245 2409.24434472692428244
2.009509145207687197399 4184.41569274789708288 2.009509145207687197399 2527.54745547677930517
2.529822128134725289783 4762.44683531663486065 2.529822128134725289783 2557.84146163265495488
3.184857364427983839050 5333.06598414770542149 3.184857364427983839050 2487.46078858151122404
4.009497869018204596614 5872.51735870090851677 4.009497869018204596614 2320.27681152967988965
5.009497869018190385759 6345.23042770569918503 5.009497869018190385759 2087.26971082334875973
6.009497869018190385759 6687.04585464890624280 6.009497869018190385759 1865.07884176561810818
7.009497869018204596614 6942.55360801682218153 7.009497869018204596614 1670.28263173529649066
8.009497869018190385759 7139.38756445187482313 8.009497869018190385759 1506.64703811771005348
9.009497869018204596614 7295.18390990142870578 9.009497869018204596614 1373.42017265254025915
10.009497869018190385759 7421.50625130921343953 10.009497869018190385759 1266.15232500418755990
11.009497869018190385759 7526.14209275376288133 11.009497869018190385759 1175.51444420387269929
12.009497869018204596614 7614.45592931263490755 12.009497869018204596614 1101.18659161553227932
13.009497869018190385759 7690.22837902944047528 13.009497869018190385759 1040.04452330462208920
14.009497869018204596614 7756.17884802888056583 14.009497869018204596614 989.51840553258489308
15.009497869018190385759 7814.30099231957774464 15.009497869018190385759 947.53233028416741490
16.009497869018190385759 7866.08253879997755575 16.009497869018190385759 912.42859109187554623
17.009497869018204596614 7912.65222919192638074 17.009497869018204596614 883.67218219871188012
18.009497869018190385759 7954.87992214472706110 18.009497869018190385759 858.52470403217364492
19.009497869018204596614 7993.44753982781185186 19.009497869018204596614 838.11032257403280710
20.009497869018190385759 8028.89265606649678375 20.009497869018190385759 819.56051186492288707
21.009497869018190385759 8061.64735370368180156 21.009497869018190385759 803.56423655108403636
22.009497869018204596614 8092.06514581927876861 22.009497869018204596614 789.67643501770305647
23.009497869018190385759 8120.43227333112372435 23.009497869018190385759 777.91958336492280068
24.009497869018204596614 8146.98887190576988360 24.009497869018204596614 767.21582428701185563
25.009497869018204596614 8171.93516002183878300 25.009497869018204596614 757.75976502378387067
26.009497869018190385759 8195.43977014996926300 26.009497869018190385759 749.76586955333846163
27.009497869018204596614 8217.64742970553015766 27.009497869018204596614 742.21320990001913742
28.009497869018190385759 8238.68101585932890885 28.009497869018190385759 735.44501819072024773
29.009497869018190385759 8258.64778015817501000 29.009497869018190385759 729.52515611200090007
30.009497869018190385759 8277.64047280991690059 30.009497869018190385759 723.98121733954315005
31.009497869018218807469 8295.74005739180029195 31.009497869018218807469 718.94024333710717656
32.009497869018190385759 8313.01886562622166821 32.009497869018190385759 714.34289682183896275
33.009497869018190385759 8329.53908622180460952 33.009497869018190385759 710.30221856105970346
34.009497869018218807469 8345.35815672327771608 34.009497869018218807469 706.40084169376848422
35.009497869018190385759 8360.52553230537887430 35.009497869018190385759 702.89605127314030142
36.009497869018190385759 8375.08633496463698975 36.009497869018190385759 699.55221136424825090
37.009497869018190385759 8389.08179430392556242 37.009497869018190385759 696.44531739711783302
38.009497869018218807469 8402.54784467611716536 38.009497869018218807469 693.55269118056446587
39.009497869018190385759 8415.51805049538779713 39.009497869018190385759 690.90061307105645483
40.009497869018190385759 8428.02294594523482374 40.009497869018190385759 688.51348627940672031
41.009497869018218807469 8440.08967927925004915 41.009497869018218807469 686.05979892061827741
42.009497869018190385759 8451.74370077450112149 42.009497869018190385759 683.84940066927197222
43.009497869018190385759 8463.00848314152972307 43.009497869018190385759 681.67461278453015439
44.009497869018218807469 8473.90495945064867556 44.009497869018218807469 679.69791665215825560
46.009497869018190385759 8494.67062835634533258 46.009497869018190385759 676.03009170077518775
48.009497869018218807469 8514.18114774137029599 48.009497869018218807469 672.64971018640130751
50.009497869018190385759 8532.55724349116098892 50.009497869018190385759 669.61854346773282032
52.009497869018190385759 8549.90337397838993638 52.009497869018190385759 666.83375590748175910
54.009497869018218807469 8566.31095986848231405 54.009497869018218807469 664.22930364748117427
56.009497869018190385759 8581.85989907620751183 56.009497869018190385759 661.82161945201983144
58.009497869018218807469 8596.62098107076781162 58.009497869018218807469 659.66727345631898061
60.009497869018190385759 8610.65679320593517332 60.009497869018190385759 657.57189709467934335
62.009497869018190385759 8624.02311399868995068 62.009497869018190385759 655.61438121308810878
64.009497869018218807469 8636.76992823884575046 64.009497869018218807469 653.77855219075274817
66.009497869018190385759 8648.94188564019532350 66.009497869018190385759 652.07002972669113205
68.009497869018190385759 8660.57950725586852059 68.009497869018190385759 650.47233832377992258
70.009497869018190385759 8671.71914374105108436 70.009497869018190385759 648.92878068095637900
72.009497869018190385759 8682.39390240091233863 72.009497869018190385759 647.48164774815654710
74.009497869018218807469 8692.63392573487180925 74.009497869018218807469 646.10019259399109615
76.009497869018190385759 8702.46653429748948838 76.009497869018190385759 644.78613214040785806
78.009497869018190385759 8711.91684058921055112 78.009497869018190385759 643.54011792414837601
80.009497869018218807469 8721.00781991085932532 80.009497869018218807469 642.34641563886054882
82.009497869018190385759 8729.76048701384388551 82.009497869018190385759 641.20354585753898391
84.009497869018218807469 8738.19428751819032186 84.009497869018218807469 640.10012263562896351
86.009497869018190385759 8746.32713668934229645 86.009497869018190385759 639.05624064010692109
88.009497869018190385759 8754.17550422783278918 88.009497869018190385759 638.04307813174455077
91.009497869018218807469 8765.44783732991891156 91.009497869018218807469 636.60404024743627360
94.009497869018218807469 8776.16132115321488527 94.009497869018218807469 635.24360296066117826
97.009497869018218807469 8786.35798850329410925 97.009497869018218807469 633.96604076371272640
99.504748934509137825444 8794.47278655279114901 99.504748934509137825444 632.77178565865904147
nan nan nan nan

