Time Pressure difference Time.1 Pressure.1 difference.1
(hr) (psi) (hr) (psi)
0.000200000000020850166 0.83504598836490951 0.000200000000020850166 0.66557499701634049
0.000399999999999067768 1.66979499544516474 0.000399999999999067768 1.74300845883931266
0.000600000000019917934 2.50429357987440637 0.000600000000019917934 2.55058717704591142
0.000799999999998135536 3.33856161955163033 0.000799999999998135536 3.37298976654983029
0.001007140329434719206 4.20238659545003834 0.001007140329434719206 4.23658921216997264
0.001267914553977789183 5.28956270895117786 0.001267914553977789183 5.33184074514171957
0.001596209851982166583 6.65775776716002454 0.001596209851982166583 6.70979295603709680
0.002009509145224797066 8.37948549272668508 0.002009509145224797066 8.44317822349696279
0.002529822128153114136 10.54590413851375885 0.002529822128153114136 10.62331451790737979
0.003184857364431081805 13.27157449223047969 0.003184857364431081805 13.36478629663449702
0.004009497869034817086 16.70041274956466282 0.004009497869034817086 16.81126714394241617
0.005047658755856332391 21.01312777236302765 0.005047658755856332391 21.14274216138373674
0.006354625877790454069 26.43649657005351727 0.006354625877790454069 26.58443484093174902
0.008000000000009777068 33.25490713170906787 0.008000000000009777068 33.41779133852949002
0.010071403294361402914 41.82468383839798065 0.010071403294361402914 41.99391956992938901
0.012679145539692626699 52.59180583527029285 0.012679145539692626699 52.74991216468028910
0.015962098519750611558 66.11372840577672605 0.015962098519750611558 66.22848534708711554
0.020095091452091651263 83.08611240977435841 0.020095091452091651263 83.10131479030711432
0.025298221281360611101 104.37534066657450182 0.025298221281360611101 104.19630418960382201
0.031848573644296607199 131.05772470025763710 0.031848573644296607199 130.52872111797969978
0.040094978690191851456 164.46623501238192944 0.040094978690191851456 163.33558605830165789
0.050476587558435426217 206.24535194737407551 0.050476587558435426217 204.11177252695853213
0.063546258777947173257 258.41412500944534258 0.063546258777947173257 254.64478658595288607
0.080000000000012505552 323.43658992234691141 0.080000000000012505552 317.04290345065408019
0.100714032943542974863 404.29710608488591106 0.100714032943542974863 393.74795520620330080
0.126791455396883634421 504.57565093556337388 0.126791455396883634421 487.51926975043971879
0.159620985197506115583 628.51427851708615435 0.159620985197506115583 601.36878448036316058
0.200950914520774404082 781.06040579393402368 0.200950914520774404082 738.41911268454555284
0.252982212813464002465 967.86494312155355146 0.252982212813464002465 901.64669313502031400
0.318485736442809752589 1195.20332340195250254 0.318485736442809752589 1093.46244482877523296
0.400949786901833249431 1469.77549634683396107 0.400949786901833249431 1315.07597575278509794
0.504765875584169521062 1798.32839678510322301 0.504765875584169521062 1565.59404736676515313
0.635462587779443310865 2187.03525795250152441 0.635462587779443310865 1840.83563197456714988
0.800000000000011368684 2640.56941928031801581 0.800000000000011368684 2131.93322183610825959
1.007140329435344483500 3160.84328200698428191 1.007140329435344483500 2423.97207324257306027
1.267914553968907398485 3745.47242756096375160 1.267914553968907398485 2695.21775214591525582
1.596209851975117999245 4386.19664947481487616 1.596209851975117999245 2917.83030410836227020
2.009509145207687197399 5067.73625514944433235 2.009509145207687197399 3061.10693039648549529
2.529822128134725289783 5767.78844711447800364 2.529822128134725289783 3097.79593182048938615
3.184857364427983839050 6458.86399045150301390 3.184857364427983839050 3012.55805999497852099
4.009497869018204596614 7112.19231379458688025 4.009497869018204596614 2810.08192855946754207
5.009497869018190385759 7684.69402824670942209 5.009497869018190385759 2527.88756292719199337
6.009497869018190385759 8098.66590840470689727 6.009497869018190385759 2258.79271065462080514
7.009497869018204596614 8408.11076290577875625 7.009497869018204596614 2022.87546714383302060
8.009497869018190385759 8646.49591641698680178 8.009497869018190385759 1824.69677475293224234
9.009497869018204596614 8835.18051331849710550 9.009497869018204596614 1663.34602333311272560
10.009497869018190385759 8988.16921147702123562 10.009497869018190385759 1533.43417889530041975
11.009497869018190385759 9114.89343923375054146 11.009497869018190385759 1423.66284919262739095
12.009497869018204596614 9221.85012428212939994 12.009497869018204596614 1333.64455727622953418
13.009497869018190385759 9313.61796446991320408 13.009497869018190385759 1259.59553847749180022
14.009497869018204596614 9393.49042632207056158 14.009497869018204596614 1198.40347304549504770
15.009497869018190385759 9463.88202206134519656 15.009497869018190385759 1147.55423354077697695
16.009497869018190385759 9526.59453432470036205 16.009497869018190385759 1105.04017545988290294
17.009497869018204596614 9582.99497962448185717 17.009497869018204596614 1070.21335455670282499
18.009497869018190385759 9634.13684177721006563 18.009497869018190385759 1039.75730138516564693
19.009497869018204596614 9680.84599515937588876 19.009497869018204596614 1015.03349078929920779
20.009497869018190385759 9723.77349419874735759 20.009497869018190385759 992.56785755414080086
21.009497869018190385759 9763.44263343606507988 21.009497869018190385759 973.19480518370119171
22.009497869018204596614 9800.28155175217943906 22.009497869018204596614 956.37532057632563465
23.009497869018190385759 9834.63691486664538388 23.009497869018190385759 942.13662448538286753
24.009497869018204596614 9866.79955053485355165 24.009497869018204596614 929.17332639826281593
25.009497869018204596614 9897.01194289737759391 25.009497869018204596614 917.72111469707954257
26.009497869018190385759 9925.47832235291753022 26.009497869018190385759 908.03972621417597111
27.009497869018204596614 9952.37396794252526888 27.009497869018204596614 898.89271741811728589
28.009497869018190385759 9977.84769592613520217 28.009497869018190385759 890.69577595112559720
29.009497869018190385759 10002.02939840628096135 29.009497869018190385759 883.52624455542684245
30.009497869018190385759 10025.03140494711442443 30.009497869018190385759 876.81199301435617599
31.009497869018218807469 10046.95177035147025890 31.009497869018218807469 870.70688095350499225
32.009497869018190385759 10067.87809540256603213 32.009497869018190385759 865.13904512560486637
33.009497869018190385759 10087.88569670288597990 33.009497869018190385759 860.24538894487818652
34.009497869018218807469 10107.04413673120689054 34.009497869018218807469 855.52044036253744252
35.009497869018190385759 10125.41331053630892711 35.009497869018190385759 851.27579671680689444
36.009497869018190385759 10143.04786526477073494 36.009497869018190385759 847.22607986695436466
37.009497869018190385759 10159.99773399413970765 37.009497869018190385759 843.46332770410890589
38.009497869018218807469 10176.30643673681697692 38.009497869018218807469 839.96007472290318674
39.009497869018190385759 10192.01462327788976836 39.009497869018190385759 836.74814900282353847
40.009497869018190385759 10207.15927349700541527 40.009497869018190385759 833.85710521655539651
41.009497869018218807469 10221.77326658186757413 41.009497869018218807469 830.88545007997674929
42.009497869018190385759 10235.88742530470153724 42.009497869018190385759 828.20844182382279541
43.009497869018190385759 10249.53017741145413311 43.009497869018190385759 825.57456120104745878
44.009497869018218807469 10262.72687489559939422 44.009497869018218807469 823.18058904555721256
46.009497869018190385759 10287.87612891407843563 46.009497869018190385759 818.73849465329112718
48.009497869018218807469 10311.50527422477352957 48.009497869018218807469 814.64452234878990566
50.009497869018190385759 10333.76052167083980748 50.009497869018190385759 810.97348328299608511
52.009497869018190385759 10354.76838054801555700 52.009497869018190385759 807.60083345128077781
54.009497869018218807469 10374.63957021466558217 54.009497869018218807469 804.44658728838487605
56.009497869018190385759 10393.47085485224670265 56.009497869018190385759 801.53064647747635263
58.009497869018218807469 10411.34796742467005970 58.009497869018218807469 798.92152297966720198
60.009497869018190385759 10428.34670733263919828 60.009497869018190385759 796.38381747051630555
62.009497869018190385759 10444.53462781023517891 62.009497869018190385759 794.01307447278702512
64.009497869018218807469 10459.97226532183594827 64.009497869018218807469 791.78970615140610789
66.009497869018190385759 10474.71369503348068974 66.009497869018190385759 789.72051851097467079
68.009497869018190385759 10488.80799189974823094 68.009497869018190385759 787.78555811468652337
70.009497869018190385759 10502.29918011582049076 70.009497869018190385759 785.91615899117039135
72.009497869018190385759 10515.22735586310773215 72.009497869018190385759 784.16353961296636044
74.009497869018218807469 10527.62902465357183246 74.009497869018218807469 782.49046244193846178
76.009497869018190385759 10539.53727434822576470 76.009497869018190385759 780.89900683832274808
78.009497869018190385759 10550.98251863880250312 78.009497869018190385759 779.38996187677321359
80.009497869018218807469 10561.99258285947325930 80.009497869018218807469 777.94427177492877945
82.009497869018190385759 10572.59291792750082095 82.009497869018190385759 776.56014480213400475
84.009497869018218807469 10582.80707438873832871 84.009497869018218807469 775.22379146703440256
86.009497869018190385759 10592.65674938009578909 86.009497869018190385759 773.95954837474948818
88.009497869018190385759 10602.16188931814758689 88.009497869018190385759 772.73250958295727742
91.009497869018218807469 10615.81378610282081354 91.009497869018218807469 770.98969409942822040
94.009497869018218807469 10628.78886180678637174 94.009497869018218807469 769.34207161942561015
97.009497869018218807469 10641.13802226454572519 97.009497869018218807469 767.79481897076902897
99.504748934509137825444 10650.96583558384008938 99.504748934509137825444 766.34845935017335705
nan nan nan nan

