Time Pressure difference Time.1 Pressure.1 difference.1
(hr) (psi) (hr) (psi)
0.000200000000020850166 0.70779296424157168 0.000200000000020850166 0.56414773153476672
0.000399999999999067768 1.41533420430660883 0.000399999999999067768 1.47739063592854114
0.000600000000019917934 2.12266318373816665 0.000600000000019917934 2.16190207934867562
0.000799999999998135536 2.82979675123350338 0.000799999999998135536 2.85897837782261499
0.001007140329434719206 3.56198306048603897 0.001007140329434719206 3.59097352545482762
0.001267914553977789183 4.48348392959905606 0.001267914553977789183 4.51931919732629783
0.001596209851982166583 5.64317914328006154 0.001596209851982166583 5.68728466691988999
0.002009509145224797066 7.10253202620558621 0.002009509145224797066 7.15651859382063371
0.002529822128153114136 8.93880918513467115 0.002529822128153114136 9.00442296288762911
0.003184857364431081805 11.24911343913161232 0.003184857364431081805 11.32812065581270566
0.004009497869034817086 14.15542953175251917 0.004009497869034817086 14.24939077638943452
0.005047658755856332391 17.81092802219216509 0.005047658755856332391 17.92079041766688974
0.006354625877790454069 22.40782727202743274 0.006354625877790454069 22.53322116497302474
0.008000000000009777068 28.18717726004424051 0.008000000000009777068 28.32523947120378338
0.010071403294361402914 35.45100193872179517 0.010071403294361402914 35.59444776295806889
0.012679145539692626699 44.57731749583169290 0.012679145539692626699 44.71132993241327824
0.015962098519750611558 56.03862835987649049 0.015962098519750611558 56.13589744060870146
0.020095091452091651263 70.42458332740832816 0.020095091452091651263 70.43746901050931797
0.025298221281360611101 88.46953676021404078 0.025298221281360611101 88.31778373043113106
0.031848573644296607199 111.08578059752913703 0.031848573644296607199 110.63739210298875548
0.040094978690191851456 139.40315338200898054 0.040094978690191851456 138.44480451754455430
0.050476587558435426217 174.81553237770455667 0.050476587558435426217 173.00709006020088054
0.063546258777947173257 219.03428325003784494 0.063546258777947173257 215.83935596080269192
0.080000000000012505552 274.14794623896136727 0.080000000000012505552 268.72859645070383294
0.100714032943542974863 342.68609290661146360 0.100714032943542974863 333.74453175346519629
0.126791455396883634421 427.68314636072153689 0.126791455396883634421 413.22599457930698463
0.159620985197506115583 532.73471216936286510 0.159620985197506115583 509.72593186532776599
0.200950914520774404082 662.03426825760743668 0.200950914520774404082 625.89110049257794799
0.252982212813464002465 820.37158027534064786 0.252982212813464002465 764.24435842420541576
0.318485736442809752589 1013.06576515444385223 0.318485736442809752589 926.82922365466890824
0.400949786901833249431 1245.79576433382044343 0.400949786901833249431 1114.67097147970139304
0.504765875584169521062 1524.28034428697492331 0.504765875584169521062 1327.01248437163076233
0.635462587779443310865 1853.75199653145295997 0.635462587779443310865 1560.30988327724753617
0.800000000000011368684 2238.17188825453240497 0.800000000000011368684 1807.04698384713947235
1.007140329435344483500 2679.16098903181591595 1.007140329435344483500 2054.58190670261956257
1.267914553968907398485 3174.69824288284871727 1.267914553968907398485 2284.49233772527259134
1.596209851975117999245 3717.78221982377226595 1.596209851975117999245 2473.18086533487667111
2.009509145207687197399 4295.46170630694905412 2.009509145207687197399 2594.62350375239930145
2.529822128134725289783 4888.83263794264985336 2.529822128134725289783 2625.72145217055458488
3.184857364427983839050 5474.59487636875473981 3.184857364427983839050 2553.47301698777573620
4.009497869018204596614 6028.36221019839922519 4.009497869018204596614 2381.85231195628193746
5.009497869018190385759 6513.62013748799745372 5.009497869018190385759 2142.66166937354591937
6.009497869018190385759 6864.50666140677822114 6.009497869018190385759 1914.57429956880719146
7.009497869018204596614 7126.79507891714911239 7.009497869018204596614 1714.60858818665542458
8.009497869018190385759 7328.85261441320380982 8.009497869018190385759 1546.63043358042364162
9.009497869018204596614 7488.78348290243138763 9.009497869018204596614 1409.86799388095505492
10.009497869018190385759 7618.45816630173885642 10.009497869018190385759 1299.75347235049866867
11.009497869018190385759 7725.87083345410428592 11.009497869018190385759 1206.71024368817325012
12.009497869018204596614 7816.52834239451385656 12.009497869018204596614 1130.40987872716277707
13.009497869018190385759 7894.31164119910044974 13.009497869018190385759 1067.64522235492586333
14.009497869018204596614 7962.01230358573866397 14.009497869018204596614 1015.77824259135070406
15.009497869018190385759 8021.67689320139925258 15.009497869018190385759 972.67794097928390329
16.009497869018190385759 8074.83261823737120721 16.009497869018190385759 936.64261884099641975
17.009497869018204596614 8122.63817496059164114 17.009497869018204596614 907.12307243800216838
18.009497869018190385759 8165.98650632709723141 18.009497869018190385759 881.30823055654980180
19.009497869018204596614 8205.57763135520872311 19.009497869018204596614 860.35209229252347995
20.009497869018190385759 8241.96339000312218559 20.009497869018190385759 841.31000675156758462
21.009497869018190385759 8275.58733172718166315 21.009497869018190385759 824.88922232204163265
22.009497869018204596614 8306.81235113655748137 22.009497869018204596614 810.63286634507267081
23.009497869018190385759 8335.93228540987547603 23.009497869018190385759 798.56401139149477331
24.009497869018204596614 8363.19364293342732708 24.009497869018204596614 787.57619598099768154
25.009497869018204596614 8388.80195558333616646 25.009497869018204596614 777.86919183985537529
26.009497869018190385759 8412.93033099834065069 26.009497869018190385759 769.66315439070092452
27.009497869018204596614 8435.72733736961163231 27.009497869018204596614 761.91006227372281501
28.009497869018190385759 8457.31911278201368987 28.009497869018190385759 754.96225630917126637
29.009497869018190385759 8477.81575502365012653 29.009497869018190385759 748.88529294488864707
30.009497869018190385759 8497.31247570716550399 30.009497869018190385759 743.19422913866253566
31.009497869018218807469 8515.89238702101647505 31.009497869018218807469 738.01947778031149028
32.009497869018190385759 8533.62974022667549434 32.009497869018190385759 733.30012689431248418
33.009497869018190385759 8550.58837439656963397 33.009497869018190385759 729.15221712359686990
34.009497869018218807469 8566.82725135284636053 34.009497869018218807469 725.14730552641378836
35.009497869018190385759 8582.39713871155254310 35.009497869018190385759 721.54950498605842313
36.009497869018190385759 8597.34435591665351239 36.009497869018190385759 718.11692626173135068
37.009497869018190385759 8611.71122672212550242 37.009497869018190385759 714.92758154999671660
38.009497869018218807469 8625.53463910660502734 38.009497869018218807469 711.95819082588707261
39.009497869018190385759 8638.84904821661621099 39.009497869018190385759 709.23573187390718431
40.009497869018190385759 8651.68579855174357363 40.009497869018190385759 706.78525551721975262
41.009497869018218807469 8664.07275882586509397 41.009497869018218807469 704.26645220922330282
42.009497869018190385759 8676.03605471543960448 42.009497869018190385759 701.99739441441556664
43.009497869018190385759 8687.59978184974897886 43.009497869018190385759 699.76489201403524021
44.009497869018218807469 8698.78542882087094767 44.009497869018218807469 697.73573832447129917
46.009497869018190385759 8720.10217699788881873 46.009497869018190385759 693.97057664337728511
48.009497869018218807469 8740.13046649928401166 48.009497869018218807469 690.50048657253012152
50.009497869018190385759 8758.99422703375057608 50.009497869018190385759 687.38887875879436251
52.009497869018190385759 8776.80068908999965061 52.009497869018190385759 684.53018851298793379
54.009497869018218807469 8793.64369945486032520 54.009497869018218807469 681.85661930519472662
56.009497869018190385759 8809.60527637376617349 56.009497869018190385759 679.38503999236297659
58.009497869018218807469 8824.75808792668794922 58.009497869018218807469 677.17352196782553619
60.009497869018190385759 8839.16638241043438029 60.009497869018190385759 675.02253851335592572
62.009497869018190385759 8852.88741859213951102 62.009497869018190385759 673.01307408002173815
64.009497869018218807469 8865.97250775784959842 64.009497869018218807469 671.12852583152050556
66.009497869018190385759 8878.46748453535110457 66.009497869018190385759 669.37466260242956650
68.009497869018190385759 8890.41394532538470230 68.009497869018190385759 667.73457166892251280
70.009497869018190385759 8901.84920545673594461 70.009497869018190385759 666.15005109709761655
72.009497869018190385759 8912.80725083615834592 72.009497869018190385759 664.66451415401832037
74.009497869018218807469 8923.31902388465096010 74.009497869018218807469 663.24639794630445522
76.009497869018190385759 8933.41257018958094704 76.009497869018190385759 661.89746495957433581
78.009497869018190385759 8943.11366868687400711 78.009497869018190385759 660.61838402104979195
80.009497869018218807469 8952.44590439582680119 80.009497869018218807469 659.39300326739487446
82.009497869018190385759 8961.43084975727470010 82.009497869018190385759 658.21980401057373911
84.009497869018218807469 8970.08846643905962992 84.009497869018218807469 657.08709814586279663
86.009497869018190385759 8978.43714514189377951 86.009497869018190385759 656.01551361246197303
88.009497869018190385759 8986.49379263918854122 88.009497869018190385759 654.97546379989705656
91.009497869018218807469 8998.06527088994153019 91.009497869018218807469 653.49823673168668847
94.009497869018218807469 9009.06306912109175755 94.009497869018218807469 652.10169616347718602
97.009497869018218807469 9019.53033560470794328 97.009497869018218807469 650.79023002402834663
99.504748934509137825444 9027.86048414526521810 99.504748934509137825444 649.56428177987800154
nan nan nan nan

