Time Pressure difference Time.1 Pressure.1 difference.1
(hr) (psi) (hr) (psi)
0.000200000000020850166 0.19462227218863429 0.000200000000020850166 0.15512405308946581
0.000399999999999067768 0.38917532762367391 0.000399999999999067768 0.40623902327529798
0.000600000000019917934 0.58367001762013060 0.000600000000019917934 0.59445956118400711
0.000799999999998135536 0.77811097507478244 0.000799999999998135536 0.78613506511221143
0.001007140329434719206 0.97944070053317644 0.001007140329434719206 0.98741222674081031
0.001267914553977789183 1.23282636842089222 0.001267914553977789183 1.24268001430593866
0.001596209851982166583 1.55170848358112146 0.001596209851982166583 1.56383620688514013
0.002009509145224797066 1.95298765467932722 0.002009509145224797066 1.96783237479909312
0.002529822128153114136 2.45790992869743041 0.002529822128153114136 2.47595179003020638
0.003184857364431081805 3.09317572826885678 0.003184857364431081805 3.11490039184509193
0.004009497869034817086 3.89232727430092762 0.004009497869034817086 3.91816385625749497
0.005047658755856332391 4.89748197084955006 0.005047658755856332391 4.92769090215517380
0.006354625877790454069 6.16149422051048123 0.006354625877790454069 6.19597385734863426
0.008000000000009777068 7.75064568607561988 0.008000000000009777068 7.78860873826284905
0.010071403294361402914 9.74798408185769638 0.010071403294361402914 9.78742746948553410
0.012679145539692626699 12.25745275443550852 0.012679145539692626699 12.29430223758484964
0.015962098519750611558 15.40897654078859880 0.015962098519750611558 15.43572268049639895
0.020095091452091651263 19.36469153773625251 0.020095091452091651263 19.36823472204368812
0.025298221281360611101 24.32652362149246272 0.025298221281360611101 24.28479599638176722
0.031848573644296607199 30.54532627476124063 0.031848573644296607199 30.42203261116259583
0.040094978690191851456 38.33177190527626266 0.040094978690191851456 38.06825412115795615
0.050476587558435426217 48.06913581243579614 0.050476587558435426217 47.57186730209988923
0.063546258777947173257 60.22799327909383749 0.063546258777947173257 59.34948213258264360
0.080000000000012505552 75.38263151576612131 0.080000000000012505552 73.89246952933572743
0.100714032943542974863 94.22860839030209945 0.100714032943542974863 91.76994175124660558
0.126791455396883634421 117.60030111446397427 0.126791455396883634421 113.62500908526183707
0.159620985197506115583 146.48639559063559545 0.159620985197506115583 140.15965694064240665
0.200950914520774404082 182.03997505555832959 0.200950914520774404082 172.10166570536222252
0.252982212813464002465 225.57808435303141437 0.252982212813464002465 210.14474720477562641
0.318485736442809752589 278.56332437854274531 0.318485736442809752589 254.85080885451532140
0.400949786901833249431 342.55723719637364866 0.400949786901833249431 306.50177124118692973
0.504765875584169521062 419.13231558537262345 0.504765875584169521062 364.88944928667632439
0.635462587779443310865 509.72734099689785126 0.635462587779443310865 429.03938036060623062
0.800000000000011368684 615.43151803943658251 0.800000000000011368684 496.88483457136379684
1.007140329435344483500 736.69056572672729999 1.007140329435344483500 564.94966647287071737
1.267914553968907398485 872.94875303711705783 1.267914553968907398485 628.16828087862961638
1.596209851975117999245 1022.28089240747681288 1.596209851975117999245 680.05208283003662473
2.009509145207687197399 1181.12578058263920866 2.009509145207687197399 713.44524074977846340
2.529822128134725289783 1344.28535520397190339 2.529822128134725289783 721.99626299401847973
3.184857364427983839050 1505.35276271479256138 3.184857364427983839050 702.13006577572218703
4.009497869018204596614 1657.62251138240367254 4.009497869018204596614 654.93941362840178044
5.009497869018190385759 1791.05418586626501565 5.009497869018190385759 589.16901367028174263
6.009497869018190385759 1887.53767187918469972 6.009497869018190385759 526.45168754300925684
7.009497869018204596614 1959.65928139437460231 7.009497869018204596614 471.46699134627181138
8.009497869018190385759 2015.21916777049318625 8.009497869018190385759 425.27793355795432717
9.009497869018204596614 2059.19545828339460058 9.009497869018204596614 387.67228033859402103
10.009497869018190385759 2094.85218673866802419 10.009497869018190385759 357.39402177440268815
11.009497869018190385759 2124.38751472181002100 11.009497869018190385759 331.80986724210640659
12.009497869018204596614 2149.31566641635299675 12.009497869018204596614 310.82950836916108983
13.009497869018190385759 2170.70378853183228784 13.009497869018190385759 293.57107171686561742
14.009497869018204596614 2189.31948183203621738 14.009497869018204596614 279.30917598869103813
15.009497869018190385759 2205.72549119756467917 15.009497869018190385759 267.45785921169499488
16.009497869018190385759 2220.34175401591619448 16.009497869018190385759 257.54920424065005591
17.009497869018204596614 2233.48687772124367257 17.009497869018204596614 249.43219618154230943
18.009497869018190385759 2245.40639539429002980 18.009497869018190385759 242.33387303200075280
19.009497869018204596614 2256.29279170049221648 19.009497869018204596614 236.57155064212747675
20.009497869018190385759 2266.29780641683964859 20.009497869018190385759 231.33553652158261116
21.009497869018190385759 2275.54340261358493080 21.009497869018190385759 226.82030320018535008
22.009497869018204596614 2284.12936564742039991 22.009497869018204596614 222.90022411838663174
23.009497869018190385759 2292.13649211035362896 23.009497869018190385759 219.58164355535816981
24.009497869018204596614 2299.63256456688804974 24.009497869018204596614 216.56031710875848262
25.009497869018204596614 2306.67409824500646209 25.009497869018204596614 213.89117613457833045
26.009497869018190385759 2313.30869265994306261 26.009497869018190385759 211.63475690649119088
27.009497869018204596614 2319.57719969975187269 27.009497869018204596614 209.50288433848547243
28.009497869018190385759 2325.51430363218651109 28.009497869018190385759 207.59244180534201973
29.009497869018190385759 2331.15027811461141027 29.009497869018190385759 205.92145540435245721
30.009497869018190385759 2336.51130354345059459 30.009497869018190385759 204.35658004517864583
31.009497869018218807469 2341.62023332892795224 31.009497869018218807469 202.93367544135477942
32.009497869018190385759 2346.49748438665346839 32.009497869018190385759 201.63599258903536793
33.009497869018190385759 2351.16061058613058776 33.009497869018190385759 200.49543925607716233
34.009497869018218807469 2355.62582469631706772 34.009497869018218807469 199.39420621995395777
35.009497869018190385759 2359.90708632021551239 35.009497869018190385759 198.40491676467411253
36.009497869018190385759 2364.01713194417970954 36.009497869018190385759 197.46105845504717990
37.009497869018190385759 2367.96759935720001522 37.009497869018190385759 196.58408235334809433
38.009497869018218807469 2371.76863166973635089 38.009497869018218807469 195.76758713661288880
39.009497869018190385759 2375.42970303488664285 39.009497869018190385759 195.01899090304848983
40.009497869018190385759 2378.95943226922236136 40.009497869018190385759 194.34518189310156799
41.009497869018218807469 2382.36548245035555738 41.009497869018218807469 193.65258497879938204
42.009497869018190385759 2385.65503737181279575 42.009497869018190385759 193.02866074379932115
43.009497869018190385759 2388.83472262378518280 43.009497869018190385759 192.41478816837158661
44.009497869018218807469 2391.91044693781850583 44.009497869018218807469 191.85683051460199522
46.009497869018190385759 2397.77192646005369170 46.009497869018190385759 190.82152166222121537
48.009497869018218807469 2403.27911769780575924 48.009497869018218807469 189.86734883427973841
50.009497869018190385759 2408.46609768025564335 50.009497869018190385759 189.01174809583773140
52.009497869018190385759 2413.36235164166919276 52.009497869018190385759 188.22569225856543085
54.009497869018218807469 2417.99368469146565985 54.009497869018218807469 187.49053926840841200
56.009497869018190385759 2422.38264943767489967 56.009497869018190385759 186.81092756546760825
58.009497869018218807469 2426.54922746750253282 58.009497869018218807469 186.20282507693440266
60.009497869018190385759 2430.51108517513739571 60.009497869018190385759 185.61136781683347863
62.009497869018190385759 2434.28396703943690227 62.009497869018190385759 185.05882413011173071
64.009497869018218807469 2437.88198215668262492 64.009497869018218807469 184.54062872453090449
66.009497869018190385759 2441.31773370302244075 66.009497869018190385759 184.05836786012753237
68.009497869018190385759 2444.60265946667414028 68.009497869018190385759 183.60739103469785505
70.009497869018190385759 2447.74702006683492073 70.009497869018190385759 183.17169442622895303
72.009497869018190385759 2450.76016062944927398 72.009497869018190385759 182.76321540780293162
74.009497869018218807469 2453.65058941129063896 74.009497869018218807469 182.37327511096970056
76.009497869018190385759 2456.42601812498469371 76.009497869018190385759 182.00235816749750484
78.009497869018190385759 2459.09353522059745956 78.009497869018190385759 181.65064848522402485
80.009497869018218807469 2461.65962588557431445 80.009497869018218807469 181.31370477622843396
82.009497869018190385759 2464.13022190740548467 82.009497869018190385759 180.99110944591569705
84.009497869018218807469 2466.51081215833164606 84.009497869018218807469 180.67964860885064127
86.009497869018190385759 2468.80645354077887532 86.009497869018190385759 180.38499434232210206
88.009497869018190385759 2471.02179492076356837 88.009497869018190385759 180.09901119762150756
91.009497869018218807469 2474.20361150205189915 91.009497869018218807469 179.69281715066355787
94.009497869018218807469 2477.22768293106355486 94.009497869018218807469 179.30880952086212687
97.009497869018218807469 2480.10587371504334442 97.009497869018218807469 178.94819485972109874
99.504748934509137825444 2482.39641984722948109 99.504748934509137825444 178.61109510751052198
nan nan nan nan

