Time Pressure difference Time.1 Pressure.1 difference.1
(hr) (psi) (hr) (psi)
0.000200000000020850166 0.17050241794303431 0.000200000000020850166 0.13589927727923287
0.000399999999999067768 0.34094419727715020 0.000399999999999067768 0.35589316141639354
0.000600000000019917934 0.51133484449626820 0.000600000000019917934 0.52078722240479258
0.000799999999998135536 0.68167841833474530 0.000799999999998135536 0.68870806986326216
0.001007140329434719206 0.85805702397137240 0.001007140329434719206 0.86504062599088094
0.001267914553977789183 1.08004019455676459 0.001267914553977789183 1.08867266210563018
0.001596209851982166583 1.35940273134243550 0.001596209851982166583 1.37002744620279371
0.002009509145224797066 1.71095072311650442 0.002009509145224797066 1.72395571296501759
0.002529822128153114136 2.15329715975629554 0.002529822128153114136 2.16910306391535190
0.003184857364431081805 2.70983343715861391 0.003184857364431081805 2.72886572789847781
0.004009497869034817086 3.40994483432346218 0.004009497869034817086 3.43257944672130932
0.005047658755856332391 4.29052907702631536 0.005047658755856332391 4.31699416641799427
0.006354625877790454069 5.39789023591730199 0.006354625877790454069 5.42809675536953051
0.008000000000009777068 6.79009557968163246 0.008000000000009777068 6.82335380916189838
0.010071403294361402914 8.53990058453345213 0.010071403294361402914 8.57445568907920652
0.012679145539692626699 10.73836672931315839 0.012679145539692626699 10.77064939617476114
0.015962098519750611558 13.49931705496437395 0.015962098519750611558 13.52274850214428170
0.020095091452091651263 16.96479386852962534 0.020095091452091651263 16.96789794025195164
0.025298221281360611101 21.31169804446989247 0.025298221281360611101 21.27514179170197650
0.031848573644296607199 26.75979438600878169 0.031848573644296607199 26.65178070636039465
0.040094978690191851456 33.58125316487878109 0.040094978690191851456 33.35039356768111674
0.050476587558435426217 42.11184975021084398 0.050476587558435426217 41.67620853389092872
0.063546258777947173257 52.76384026587280118 0.063546258777947173257 51.99420443239077372
0.080000000000012505552 66.04033957577800606 0.080000000000012505552 64.73485578424710241
0.100714032943542974863 82.55070393167491716 0.100714032943542974863 80.39674384190406897
0.126791455396883634421 103.02590482250047899 0.126791455396883634421 99.54327719007982012
0.159620985197506115583 128.33209870119785023 0.159620985197506115583 122.78944304628926432
0.200950914520774404082 159.47946532645067919 0.200950914520774404082 150.77282679315919722
0.252982212813464002465 197.62182603577537066 0.252982212813464002465 184.10116742298720283
0.318485736442809752589 244.04051922051817769 0.318485736442809752589 223.26673425288731778
0.400949786901833249431 300.10356250109657594 0.400949786901833249431 268.51650899334754286
0.504765875584169521062 367.18856707265553041 0.504765875584169521062 319.66810728106258921
0.635462587779443310865 446.55600386480358566 0.635462587779443310865 375.86783322189864975
0.800000000000011368684 539.16009059010480087 0.800000000000011368684 435.30509011593841251
1.007140329435344483500 645.39130758110729857 1.007140329435344483500 494.93453686725848684
1.267914553968907398485 764.76279646414104718 1.267914553968907398485 550.31836572700467514
1.596209851975117999245 895.58796129714846757 1.596209851975117999245 595.77212384682695756
2.009509145207687197399 1034.74694452752601137 2.009509145207687197399 625.02681347737006945
2.529822128134725289783 1177.68588810604364880 2.529822128134725289783 632.51809364860594087
3.184857364427983839050 1318.79195024159184868 3.184857364427983839050 615.11394651291891478
4.009497869018204596614 1452.19066168116546578 4.009497869018204596614 573.77170852060851303
5.009497869018190385759 1569.08593206232603734 5.009497869018190385759 516.15234103593058990
6.009497869018190385759 1653.61206297108060426 6.009497869018190385759 461.20767498426022257
7.009497869018204596614 1716.79552429849059081 7.009497869018204596614 413.03732147857152768
8.009497869018190385759 1765.46978373056026612 8.009497869018190385759 372.57254862983177190
9.009497869018204596614 1803.99602114570916456 9.009497869018204596614 339.62742508295633570
10.009497869018190385759 1835.23375333943158694 10.009497869018190385759 313.10160027244683079
11.009497869018190385759 1861.10872016226971937 11.009497869018190385759 290.68813155825563399
12.009497869018204596614 1882.94748553569388605 12.009497869018204596614 272.30790263110264959
13.009497869018190385759 1901.68494294455422278 13.009497869018190385759 257.18833205964722310
14.009497869018204596614 1917.99356314345072860 14.009497869018204596614 244.69393622940879141
15.009497869018190385759 1932.36634912607178194 15.009497869018190385759 234.31137238631401942
16.009497869018190385759 1945.17119475753361257 16.009497869018190385759 225.63071311680877784
17.009497869018204596614 1956.68722193527764830 17.009497869018204596614 218.51965904793237883
18.009497869018190385759 1967.12953442662160342 18.009497869018190385759 212.30104261350496131
19.009497869018204596614 1976.66676195983268371 19.009497869018204596614 207.25285419502620243
20.009497869018190385759 1985.43183895492347801 20.009497869018190385759 202.66574780736937100
21.009497869018190385759 1993.53161340079009278 21.009497869018190385759 198.71009468392307440
22.009497869018204596614 2001.05350409282527835 22.009497869018204596614 195.27583736867202902
23.009497869018190385759 2008.06829437018177487 23.009497869018190385759 192.36853388396761488
24.009497869018204596614 2014.63536639406856921 24.009497869018204596614 189.72164533032258760
25.009497869018204596614 2020.80423136848867216 25.009497869018204596614 187.38329533157502738
26.009497869018190385759 2026.61658972345412622 26.009497869018190385759 185.40651780269530491
27.009497869018204596614 2032.10823050619273999 27.009497869018204596614 183.53885166405780183
28.009497869018190385759 2037.30953950683010589 28.009497869018190385759 181.86517337647484283
29.009497869018190385759 2042.24703851921094611 29.009497869018190385759 180.40127503372761453
30.009497869018190385759 2046.94366336071516344 30.009497869018190385759 179.03033721906675169
31.009497869018218807469 2051.41943518132620738 31.009497869018218807469 177.78377549349457354
32.009497869018190385759 2055.69224059514544933 32.009497869018190385759 176.64691658441137179
33.009497869018190385759 2059.77745799212289057 33.009497869018190385759 175.64771387818726112
34.009497869018218807469 2063.68929086643174742 34.009497869018218807469 174.68295844055796806
35.009497869018190385759 2067.43996878480402302 35.009497869018190385759 173.81627323400937257
36.009497869018190385759 2071.04064978015776433 36.009497869018190385759 172.98938881745584695
37.009497869018190385759 2074.50152935139340116 37.009497869018190385759 172.22109778818958148
38.009497869018218807469 2077.83149355682007808 38.009497869018218807469 171.50579214959677188
39.009497869018190385759 2081.03884240235811376 39.009497869018190385759 170.84997066292712020
40.009497869018190385759 2084.13112656064322437 40.009497869018190385759 170.25966789780264321
41.009497869018218807469 2087.11505941163613898 41.009497869018218807469 169.65290564381996319
42.009497869018190385759 2089.99693444966533207 42.009497869018190385759 169.10630535247375406
43.009497869018190385759 2092.78255614476893243 43.009497869018190385759 168.56851100220589501
44.009497869018218807469 2095.47710094979811402 44.009497869018218807469 168.07970194655302976
46.009497869018190385759 2100.61215779620079047 46.009497869018190385759 167.17270060151858502
48.009497869018218807469 2105.43683388055615069 48.009497869018218807469 166.33677996165533841
50.009497869018190385759 2109.98098301048048597 50.009497869018190385759 165.58721521216551764
52.009497869018190385759 2114.27043626727390802 52.009497869018190385759 164.89857655130731473
54.009497869018218807469 2118.32780069124100919 54.009497869018218807469 164.25453226505868543
56.009497869018190385759 2122.17283390907414287 56.009497869018190385759 163.65914594410622840
58.009497869018218807469 2125.82304115742726935 58.009497869018218807469 163.12640658449382158
60.009497869018190385759 2129.29389940556893634 60.009497869018190385759 162.60824958312332456
62.009497869018190385759 2132.59920189352351372 62.009497869018190385759 162.12418353279019811
64.009497869018218807469 2135.75130915435875067 64.009497869018218807469 161.67020892533690812
66.009497869018190385759 2138.76126243213548150 66.009497869018190385759 161.24771543301773136
68.009497869018190385759 2141.63908201140293386 68.009497869018190385759 160.85262889791906105
70.009497869018190385759 2144.39375689615872034 70.009497869018190385759 160.47092887767919933
72.009497869018190385759 2147.03347405571366835 72.009497869018190385759 160.11307332734870101
74.009497869018218807469 2149.56568730476328710 74.009497869018218807469 159.77145896473845710
76.009497869018190385759 2151.99715263086272898 76.009497869018190385759 159.44651036041449288
78.009497869018190385759 2154.33408000095096213 78.009497869018190385759 159.13838863021763359
80.009497869018218807469 2156.58215088266115345 80.009497869018218807469 158.84320290225139161
82.009497869018190385759 2158.74656192742804706 82.009497869018190385759 158.56058733509706826
84.009497869018218807469 2160.83212176264078153 84.009497869018218807469 158.28772634536059627
86.009497869018190385759 2162.84326058059696152 86.009497869018190385759 158.02958906058131561
88.009497869018190385759 2164.78405110579706161 88.009497869018190385759 157.77904827142054955
91.009497869018218807469 2167.57153999111415033 91.009497869018218807469 157.42319451233345262
94.009497869018218807469 2170.22083333704313191 94.009497869018218807469 157.08677757169547817
97.009497869018218807469 2172.74232526317882730 97.009497869018218807469 156.77085447112318661
99.504748934509137825444 2174.74900029351329067 99.504748934509137825444 156.47553203863100180
nan nan nan nan

