Time Pressure difference Time.1 Pressure.1 difference.1
(hr) (psi) (hr) (psi)
0.000200000000020850166 0.86748303372968183 0.000200000000020850166 0.69142900586458478
0.000399999999999067768 1.73465755004911060 0.000399999999999067768 1.81071496271852905
0.000600000000019917934 2.60157191614442818 0.000600000000019917934 2.64966377057657887
0.000799999999998135536 3.46824678206409409 0.000799999999998135536 3.50401227740186538
0.001007140329434719206 4.36562671220556808 0.001007140329434719206 4.40115791662677491
0.001267914553977789183 5.49503377035466034 0.001267914553977789183 5.53895408085937646
0.001596209851982166583 6.91637584775687841 0.001596209851982166583 6.97043232385128686
0.002009509145224797066 8.70498343517324003 0.002009509145224797066 8.77115028596347912
0.002529822128153114136 10.95555579329666607 0.002529822128153114136 11.03597314957908004
0.003184857364431081805 13.78710378027528805 0.003184857364431081805 13.88393636194201264
0.004009497869034817086 17.34913396194815149 0.004009497869034817086 17.46429445331866148
0.005047658755856332391 21.82937476750461769 0.005047658755856332391 21.96402397840959964
0.006354625877790454069 27.46341227347193126 0.006354625877790454069 27.61709715048985814
0.008000000000009777068 34.54668141272167503 0.008000000000009777068 34.71589279490663671
0.010071403294361402914 43.44934785204092975 0.010071403294361402914 43.62515748151030692
0.012679145539692626699 54.63471462767621034 0.012679145539692626699 54.79896253761110358
0.015962098519750611558 68.68189116257482851 0.015962098519750611558 68.80110579383652691
0.020095091452091651263 86.31356099939705473 0.020095091452091651263 86.32935391064772546
0.025298221281360611101 108.42976127015658960 0.025298221281360611101 108.24377018900078440
0.031848573644296607199 136.14861241271785275 0.031848573644296607199 135.59905988650677955
0.040094978690191851456 170.85486366326131247 0.040094978690191851456 169.68029507849468018
0.050476587558435426217 214.25687458278005693 0.050476587558435426217 212.04041707730851840
0.063546258777947173257 268.45212388929434155 0.063546258777947173257 264.53636694138333496
0.080000000000012505552 336.00036184164127917 0.080000000000012505552 329.35831503887675353
0.100714032943542974863 420.00187414993627044 0.100714032943542974863 409.04294549807775638
0.126791455396883634421 524.17570112130738380 0.126791455396883634421 506.45677126465005813
0.159620985197506115583 652.92867778219203956 0.159620985197506115583 624.72872730380356643
0.200950914520774404082 811.40040163652713545 0.200950914520774404082 767.10272363543924712
0.252982212813464002465 1005.46129051372543017 0.252982212813464002465 936.67081766914941454
0.318485736442809752589 1241.63054413170971202 0.318485736442809752589 1135.93757963786106302
0.400949786901833249431 1526.86836921289636848 0.400949786901833249431 1366.15960429298297640
0.504765875584169521062 1868.18378271599863183 0.504765875584169521062 1626.40895558121110298
0.635462587779443310865 2271.98981478531777611 0.635462587779443310865 1912.34219536800128481
0.800000000000011368684 2743.14133895355735149 0.800000000000011368684 2214.74736093133560644
1.007140329435344483500 3283.62504296143879401 1.007140329435344483500 2518.13035098805175949
1.267914553968907398485 3890.96388640048371599 1.267914553968907398485 2799.91246562568721856
1.596209851975117999245 4556.57679820939483761 1.596209851975117999245 3031.17231791336826063
2.009509145207687197399 5264.59055191321658640 2.009509145207687197399 3180.01447052144840200
2.529822128134725289783 5991.83600631513945700 2.529822128134725289783 3218.12864231949242821
3.184857364427983839050 6709.75611757063597906 3.184857364427983839050 3129.57973762426581743
4.009497869018204596614 7388.46273235831995407 4.009497869018204596614 2919.23849749753480864
5.009497869018190385759 7983.20305922442003066 5.009497869018190385759 2626.08239853890563609
6.009497869018190385759 8413.25552038457135495 6.009497869018190385759 2346.53465857845549181
7.009497869018204596614 8734.72064313817281800 7.009497869018204596614 2101.45329903487845513
8.009497869018190385759 8982.36577771206975740 8.009497869018190385759 1895.57643034592456388
9.009497869018204596614 9178.37975636572991789 9.009497869018204596614 1727.95807005621168173
10.009497869018190385759 9337.31124260013166349 10.009497869018190385759 1592.99984919103417269
11.009497869018190385759 9468.95802502071819617 11.009497869018190385759 1478.96449373297855345
12.009497869018204596614 9580.06940201818724745 12.009497869018204596614 1385.44947533775643933
13.009497869018190385759 9675.40192922521964647 13.009497869018190385759 1308.52405043030285015
14.009497869018204596614 9758.37700662740826374 14.009497869018204596614 1244.95500237694341195
15.009497869018190385759 9831.50293726093877922 15.009497869018190385759 1192.13054340939265785
16.009497869018190385759 9896.65149332735381904 16.009497869018190385759 1147.96504283332455998
17.009497869018204596614 9955.24279257802118082 17.009497869018204596614 1111.78538725362682271
18.009497869018190385759 10008.37124100959044881 18.009497869018190385759 1080.14628022383249117
19.009497869018204596614 10056.89479377612406097 19.009497869018204596614 1054.46208256298700690
20.009497869018190385759 10101.48979526822040498 20.009497869018190385759 1031.12378030773788851
21.009497869018190385759 10142.69986720499582589 21.009497869018190385759 1010.99818905039876427
22.009497869018204596614 10180.96977936008261167 22.009497869018204596614 993.52535792938999748
23.009497869018190385759 10216.65966355170348834 23.009497869018190385759 978.73356507794255776
24.009497869018204596614 10250.07164462933542382 24.009497869018204596614 965.26671258305589163
25.009497869018204596614 10281.45762593821382325 25.009497869018204596614 953.36964405284265922
26.009497869018190385759 10311.02977112957523786 26.009497869018190385759 943.31218569859106537
27.009497869018204596614 10338.97016789248300483 27.009497869018204596614 933.80986480786475568
28.009497869018190385759 10365.43341319816681789 28.009497869018190385759 925.29451625201602383
29.009497869018190385759 10390.55444475871627219 29.009497869018190385759 917.84648712281898497
30.009497869018190385759 10414.44995553768785612 30.009497869018190385759 910.87142302188601661
31.009497869018218807469 10437.22180923962332599 31.009497869018218807469 904.52916019373083145
32.009497869018190385759 10458.96100946700607892 32.009497869018190385759 898.74504389044398067
33.009497869018190385759 10479.74579846724009258 33.009497869018190385759 893.66129548755770884
34.009497869018218807469 10499.64844084726064466 34.009497869018218807469 888.75280806586317794
35.009497869018190385759 10518.73115825634522480 35.009497869018190385759 884.34328284425248512
36.009497869018190385759 10537.05072058880250552 36.009497869018190385759 880.13625627612896096
37.009497869018190385759 10554.65900055367274035 37.009497869018190385759 876.22734142966692161
38.009497869018218807469 10571.60120868177182274 38.009497869018218807469 872.58800591233864452
39.009497869018190385759 10587.91957378370352671 39.009497869018190385759 869.25131415333157747
40.009497869018190385759 10603.65251220854224812 40.009497869018190385759 866.24796886540570995
41.009497869018218807469 10618.83418032359259087 41.009497869018218807469 863.16088090977655156
42.009497869018190385759 10633.49659820000306354 42.009497869018190385759 860.37988528112271069
43.009497869018190385759 10647.66929784875173937 43.009497869018190385759 857.64369256244265216
44.009497869018218807469 10661.37861605190119008 44.009497869018218807469 855.15672746465759246
46.009497869018190385759 10687.50478332408602000 46.009497869018190385759 850.54208159699453518
48.009497869018218807469 10712.05179384107395890 48.009497869018218807469 846.28908048783659979
50.009497869018190385759 10735.17153795088233892 50.009497869018190385759 842.47544129896891718
52.009497869018190385759 10756.99543915495996771 52.009497869018190385759 838.97178216104157400
54.009497869018218807469 10777.63851766324296477 54.009497869018218807469 835.69501049978634910
56.009497869018190385759 10797.20129642519168556 56.009497869018190385759 832.66580107172092085
58.009497869018218807469 10815.77283866925245093 58.009497869018218807469 829.95532715915635436
60.009497869018190385759 10833.43188819516399235 60.009497869018190385759 827.31904543998859936
62.009497869018190385759 10850.24862231680708646 62.009497869018190385759 824.85621182780562322
64.009497869018218807469 10866.28592901461524889 64.009497869018218807469 822.54647760549460145
66.009497869018190385759 10881.59998398398602149 66.009497869018190385759 820.39691315432912688
68.009497869018190385759 10896.24176847752823960 68.009497869018190385759 818.38678995380280412
70.009497869018190385759 10910.25701679362646246 70.009497869018190385759 816.44477472887513159
72.009497869018190385759 10923.68738263468185323 72.009497869018190385759 814.62407551426690588
74.009497869018218807469 10936.57078955545330246 74.009497869018218807469 812.88600829376673573
76.009497869018190385759 10948.94161070238988032 76.009497869018190385759 811.23273319957229432
78.009497869018190385759 10960.83144117556912533 78.009497869018190385759 809.66506995764382282
80.009497869018218807469 10972.26918717373519030 80.009497869018218807469 808.16322257096692283
82.009497869018190385759 10983.28128824540181085 82.009497869018190385759 806.72532970978670619
84.009497869018218807469 10993.89220974845920864 84.009497869018218807469 805.33706623517616663
86.009497869018190385759 11004.12449163689052511 86.009497869018190385759 804.02371409846978167
88.009497869018190385759 11013.99885513827575778 88.009497869018190385759 802.74901144922750973
91.009497869018218807469 11028.18105468649628165 91.009497869018218807469 800.93849695787218934
94.009497869018218807469 11041.66014229529719159 94.009497869018218807469 799.22687320623595042
97.009497869018218807469 11054.48900121705082711 97.009497869018218807469 797.61951811405594981
99.504748934509137825444 11064.69857222504469974 99.504748934509137825444 796.11697520142513440
nan nan nan nan

