Time Pressure difference Time.1 Pressure.1 difference.1
(hr) (psi) (hr) (psi)
0.000200000000020850166 0.37760047681042719 0.000200000000020850166 0.30096717992571570
0.000399999999999067768 0.75506666128695699 0.000399999999999067768 0.78817314772215930
0.000600000000019917934 1.13241960683563803 0.000600000000019917934 1.15335316571597990
0.000799999999998135536 1.50966830206816760 0.000799999999998135536 1.52523640838010244
0.001007140329434719206 1.90028238479513689 0.001007140329434719206 1.91574850829199983
0.001267914553977789183 2.39189389428668830 0.001267914553977789183 2.41101165168759035
0.001596209851982166583 3.01057970746080805 0.001596209851982166583 3.03410956378569940
0.002009509145224797066 3.78912989412142931 0.002009509145224797066 3.81793118871277048
0.002529822128153114136 4.76876541721638159 0.002529822128153114136 4.80376971228082716
0.003184857364431081805 6.00128966082932003 0.003184857364431081805 6.04343922178492221
0.004009497869034817086 7.55178026723342377 0.004009497869034817086 7.60190765273890001
0.005047658755856332391 9.50195219985339889 0.005047658755856332391 9.56056269050619179
0.006354625877790454069 11.95435203466563578 0.006354625877790454069 12.02124842408666616
0.008000000000009777068 15.03757752768517619 0.008000000000009777068 15.11123233833903434
0.010071403294361402914 18.91275544086920490 0.010071403294361402914 18.98928235532663322
0.012679145539692626699 23.78155363467401884 0.012679145539692626699 23.85304793104069176
0.015962098519750611558 29.89604850221378030 0.015962098519750611558 29.94794058523660851
0.020095091452091651263 37.57081178688999046 0.020095091452091651263 37.57768617011895174
0.025298221281360611101 47.19761420580162081 0.025298221281360611101 47.11665548015950122
0.031848573644296607199 59.26315439633164317 0.031848573644296607199 59.02394361311034032
0.040094978690191851456 74.37018993587788884 0.040094978690191851456 73.85892038891330458
0.050476587558435426217 93.26234042241816269 0.050476587558435426217 92.29755450920235660
0.063546258777947173257 116.85260234490854714 0.063546258777947173257 115.14814054783127517
0.080000000000012505552 146.25519106050347773 0.080000000000012505552 143.36402207828385258
0.100714032943542974863 182.81960773161176803 0.100714032943542974863 178.04937416694852459
0.126791455396883634421 228.16468677763521100 0.126791455396883634421 220.45194070388410523
0.159620985197506115583 284.20864785533575514 0.159620985197506115583 271.93369338056260176
0.200950914520774404082 353.18866955223711557 0.200950914520774404082 333.90665055655750848
0.252982212813464002465 437.66004400118060857 0.252982212813464002465 407.71673175627410046
0.318485736442809752589 540.46046695665984316 0.318485736442809752589 494.45413341858949252
0.400949786901833249431 664.61959695364816980 0.400949786901833249431 594.66582967307215313
0.504765875584169521062 813.18833878529562753 0.504765875584169521062 707.94790588098737771
0.635462587779443310865 988.95817441278461501 0.635462587779443310865 832.40973796459502410
0.800000000000011368684 1194.04234696540288496 0.800000000000011368684 964.04151664700509627
1.007140329435344483500 1429.30562752108653513 1.007140329435344483500 1096.09892554992870828
1.267914553968907398485 1693.66980290107335350 1.267914553968907398485 1218.75384409785397111
1.596209851975117999245 1983.39968014100213622 1.596209851975117999245 1319.41728890955823772
2.009509145207687197399 2291.58591617315505573 2.009509145207687197399 1384.20572350598058620
2.529822128134725289783 2608.14338146411637354 2.529822128134725289783 1400.79616837301000487
3.184857364427983839050 2920.64168492528142451 3.184857364427983839050 1362.25234983836685387
4.009497869018204596614 3216.07102635731280316 4.009497869018204596614 1270.69441789442066693
5.009497869018190385759 3474.95128368924952156 5.009497869018190385759 1143.08859917225618119
6.009497869018190385759 3662.14573945790516518 6.009497869018190385759 1021.40626557489827064
7.009497869018204596614 3802.07399039763276960 7.009497869018204596614 914.72655585986069582
8.009497869018190385759 3909.86966738377759611 8.009497869018190385759 825.11188818509083376
9.009497869018204596614 3995.19118829342369281 9.009497869018204596614 752.15049262274226294
10.009497869018190385759 4064.37133666391173392 10.009497869018190385759 693.40549523751644756
11.009497869018190385759 4121.67492172522088367 11.009497869018190385759 643.76786208511248333
12.009497869018204596614 4170.03979723514657962 12.009497869018204596614 603.06237948546629468
13.009497869018190385759 4211.53641022842657549 13.009497869018190385759 569.57806221990176709
14.009497869018204596614 4247.65403740061719873 14.009497869018204596614 541.90754657634931846
15.009497869018190385759 4279.48450001578839874 15.009497869018190385759 518.91396616286124299
16.009497869018190385759 4307.84254838985543756 16.009497869018190385759 499.68948173185947326
17.009497869018204596614 4333.34633540788308892 17.009497869018204596614 483.94109857444539102
18.009497869018190385759 4356.47223721798127372 18.009497869018190385759 470.16913827576212270
19.009497869018204596614 4377.59370697445865517 19.009497869018204596614 458.98924782703363690
20.009497869018190385759 4397.00514578309866920 20.009497869018190385759 448.83048538802779603
21.009497869018190385759 4414.94318284857945400 21.009497869018190385759 440.07016090976134137
22.009497869018204596614 4431.60141882020798221 22.009497869018204596614 432.46453739208345723
23.009497869018190385759 4447.13661289786523412 23.009497869018190385759 426.02592382107951607
24.009497869018204596614 4461.68027484344929690 24.009497869018204596614 420.16403404861682702
25.009497869018204596614 4475.34205385996938276 25.009497869018204596614 414.98544429529295030
26.009497869018190385759 4488.21430114364920883 26.009497869018190385759 410.60760528011542192
27.009497869018204596614 4500.37627634054388182 27.009497869018204596614 406.47140807552312936
28.009497869018190385759 4511.89527285902931908 28.009497869018190385759 402.76482298985160924
29.009497869018190385759 4522.83002676937394426 29.009497869018190385759 399.52282373323089359
30.009497869018190385759 4533.23133251592480519 30.009497869018190385759 396.48669803637221776
31.009497869018218807469 4543.14352962108296197 31.009497869018218807469 393.72601987339766083
32.009497869018190385759 4552.60623039119946043 32.009497869018190385759 391.20829331376950222
33.009497869018190385759 4561.65349233377492055 33.009497869018190385759 388.99542488144891195
34.009497869018218807469 4570.31677099200078374 34.009497869018218807469 386.85884454640637387
35.009497869018190385759 4578.62315038195629313 35.009497869018190385759 384.93945389385487488
36.009497869018190385759 4586.59734146434857394 36.009497869018190385759 383.10820742987783660
37.009497869018190385759 4594.26192353918304434 37.009497869018190385759 381.40672388213687327
38.009497869018218807469 4601.63657597461588011 38.009497869018218807469 379.82258358983870039
39.009497869018190385759 4608.73968024717305525 39.009497869018190385759 378.37017893155564252
40.009497869018190385759 4615.58795833430303901 40.009497869018190385759 377.06287427123123734
41.009497869018218807469 4622.19627791650145809 41.009497869018218807469 375.71911786485003404
42.009497869018190385759 4628.57857678121035860 42.009497869018190385759 374.50859819523458327
43.009497869018190385759 4634.74770970597637643 43.009497869018190385759 373.31758046342179114
44.009497869018218807469 4640.71514064004168176 44.009497869018218807469 372.23504723773203295
46.009497869018190385759 4652.08741287548855325 46.009497869018190385759 370.22637108824119423
48.009497869018218807469 4662.77230527693882323 48.009497869018218807469 368.37511269556836169
50.009497869018190385759 4672.83593310613650829 50.009497869018190385759 366.71510100645440389
52.009497869018190385759 4682.33550275776724447 52.009497869018190385759 365.19001831362692201
54.009497869018218807469 4691.32108055523713119 54.009497869018218807469 363.76369584554453240
56.009497869018190385759 4699.83642241326651856 56.009497869018190385759 362.44513296889869025
58.009497869018218807469 4707.92029602669299493 58.009497869018218807469 361.26531019200098171
60.009497869018190385759 4715.60697722013810562 60.009497869018190385759 360.11778200360004121
62.009497869018190385759 4722.92701297395069560 62.009497869018190385759 359.04575279944754129
64.009497869018218807469 4729.90777734672610677 64.009497869018218807469 358.04036513220955840
66.009497869018190385759 4736.57372265458161564 66.009497869018190385759 357.10469661751238846
68.009497869018190385759 4742.94704016183914064 68.009497869018190385759 356.22972448612318885
70.009497869018190385759 4749.04763722368807066 70.009497869018190385759 355.38439858764081691
72.009497869018190385759 4754.89364498192298925 72.009497869018190385759 354.59187946642106226
74.009497869018218807469 4760.50157090908578539 74.009497869018218807469 353.83532863410363234
76.009497869018190385759 4765.88637704591019428 76.009497869018190385759 353.11568635916188441
78.009497869018190385759 4771.06181619722792675 78.009497869018190385759 352.43330945423809908
80.009497869018218807469 4776.04047073525998712 80.009497869018218807469 351.77958106157137763
82.009497869018190385759 4780.83384934171863279 82.009497869018190385759 351.15369097626381745
84.009497869018218807469 4785.45260136701926967 84.009497869018218807469 350.54940371118885878
86.009497869018190385759 4789.90653806629779865 86.009497869018190385759 349.97772406587273508
88.009497869018190385759 4794.20467903430198930 88.009497869018190385759 349.42286787914599699
91.009497869018218807469 4800.37794710227171890 91.009497869018218807469 348.63478199316773498
94.009497869018218807469 4806.24516260984182736 94.009497869018218807469 347.88974154902314240
97.009497869018218807469 4811.82934472918623214 97.009497869018218807469 347.19008746287767053
99.504748934509137825444 4816.27339577197471954 99.504748934509137825444 346.53605631969992373
nan nan nan nan

