Time Pressure difference Time.1 Pressure.1 difference.1
(hr) (psi) (hr) (psi)
0.000200000000020850166 0.34849030789332380 0.000200000000020850166 0.27776486429267594
0.000399999999999067768 0.69685667638598003 0.000399999999999067768 0.72741090065106773
0.000600000000019917934 1.04511853582407999 0.000600000000019917934 1.06443827408589331
0.000799999999998135536 1.39328418186467440 0.000799999999998135536 1.40765210376930172
0.001007140329434719206 1.75378484411709801 0.001007140329434719206 1.76805864531794699
0.001267914553977789183 2.20749678789894821 0.001267914553977789183 2.22514070937687336
0.001596209851982166583 2.77848655820722135 0.001596209851982166583 2.80020243882424635
0.002009509145224797066 3.49701635602836758 0.002009509145224797066 3.52359728649923110
0.002529822128153114136 4.40112931677018437 0.002529822128153114136 4.43343504283186451
0.003184857364431081805 5.53863517155833751 0.003184857364431081805 5.57753531702176719
0.004009497869034817086 6.96959456381234510 0.004009497869034817086 7.01585750329867608
0.005047658755856332391 8.76942284523915205 0.005047658755856332391 8.82351490599580224
0.006354625877790454069 11.03276101877731641 0.006354625877790454069 11.09450019756016204
0.008000000000009777068 13.87829291652001906 0.008000000000009777068 13.94626949287236783
0.010071403294361402914 17.45472363375374059 0.010071403294361402914 17.52535089621554931
0.012679145539692626699 21.94817394918152687 0.012679145539692626699 22.01415657071817122
0.015962098519750611558 27.59128705380522817 0.015962098519750611558 27.63917864584611905
0.020095091452091651263 34.67438356543371469 0.020095091452091651263 34.68072798519789046
0.025298221281360611101 43.55903161284334857 0.025298221281360611101 43.48431419864940750
0.031848573644296607199 54.69440901335453731 0.031848573644296607199 54.47363959007319067
0.040094978690191851456 68.63680524919126924 0.040094978690191851456 68.16495075540676396
0.050476587558435426217 86.07251241628461003 0.050476587558435426217 85.18210427170878063
0.063546258777947173257 107.84414181171074176 0.063546258777947173257 106.27108125449626641
0.080000000000012505552 134.98001113293165076 0.080000000000012505552 132.31172962731483267
0.100714032943542974863 168.72558510913069085 0.100714032943542974863 164.32310082808683660
0.126791455396883634421 210.57489814940342399 0.126791455396883634421 203.45674703728508348
0.159620985197506115583 262.29828954049708045 0.159620985197506115583 250.96964212875712974
0.200950914520774404082 325.96046815503825655 0.200950914520774404082 308.16494842114008179
0.252982212813464002465 403.91973223897502976 0.252982212813464002465 376.28482512308113428
0.318485736442809752589 498.79501245559572453 0.318485736442809752589 456.33542269248681578
0.400949786901833249431 613.38240335589989627 0.400949786901833249431 548.82154764981771677
0.504765875584169521062 750.49760782167152229 0.504765875584169521062 653.37042415007431373
0.635462587779443310865 912.71690546025718049 0.635462587779443310865 768.23718107305137437
0.800000000000011368684 1101.99062418172638900 0.800000000000011368684 889.72113540769851170
1.007140329435344483500 1319.11686769016569087 1.007140329435344483500 1011.59790706039655106
1.267914553968907398485 1563.10054496817110703 1.267914553968907398485 1124.79704994934127171
1.596209851975117999245 1830.49441845612295765 1.596209851975117999245 1217.70009703327059469
2.009509145207687197399 2114.92180369284551489 2.009509145207687197399 1277.49382852203939365
2.529822128134725289783 2407.07505910454801779 2.529822128134725289783 1292.80527433544330052
3.184857364427983839050 2695.48208366452172413 3.184857364427983839050 1257.23289555567339448
4.009497869018204596614 2968.13603533857713046 4.009497869018204596614 1172.73339448846309097
5.009497869018190385759 3207.05856358104756509 5.009497869018190385759 1054.96502875148735257
6.009497869018190385759 3379.82172870674503429 6.009497869018190385759 942.66349179709777673
7.009497869018204596614 3508.96255941984145466 7.009497869018204596614 844.20798877815343531
8.009497869018190385759 3608.44799699075474564 8.009497869018190385759 761.50194085804628230
9.009497869018204596614 3687.19186761001037667 9.009497869018204596614 694.16532248662781512
10.009497869018190385759 3751.03874463035072040 10.009497869018190385759 639.94912445929378464
11.009497869018190385759 3803.92465242922435209 11.009497869018190385759 594.13818108736154500
12.009497869018204596614 3848.56095824124759019 12.009497869018204596614 556.57078635332675276
13.009497869018190385759 3886.85849314033293922 13.009497869018190385759 525.66785918532787036
14.009497869018204596614 3920.19172174197910863 14.009497869018204596614 500.13053307376731027
15.009497869018190385759 3949.56829406743418076 15.009497869018190385759 478.90958551153937606
16.009497869018190385759 3975.74014928491033061 16.009497869018190385759 461.16716485825793370
17.009497869018204596614 3999.27778532137153888 17.009497869018204596614 446.63286410284717931
18.009497869018190385759 4020.62085329148476376 18.009497869018190385759 433.92261880516377914
19.009497869018204596614 4040.11401590814602969 19.009497869018204596614 423.60461418398040223
20.009497869018190385759 4058.02897815664846348 20.009497869018190385759 414.22901625018420191
21.009497869018190385759 4074.58412690210252549 21.009497869018190385759 406.14404718323788757
22.009497869018204596614 4089.95813763362821192 22.009497869018204596614 399.12476028035894160
23.009497869018190385759 4104.29568459076108411 23.009497869018190385759 393.18251559698745723
24.009497869018204596614 4117.71813911763274518 24.009497869018204596614 387.77253362636668044
25.009497869018204596614 4130.32669728486234817 25.009497869018204596614 382.99317436063381592
26.009497869018190385759 4142.20659070306010108 26.009497869018190385759 378.95283394794790865
27.009497869018204596614 4153.43096869314558717 27.009497869018204596614 375.13550657190353377
28.009497869018190385759 4164.06193684566733282 28.009497869018190385759 371.71467143777050524
29.009497869018190385759 4174.15370311975311779 29.009497869018190385759 368.72260604454567101
30.009497869018190385759 4183.75314608848657372 30.009497869018190385759 365.92054290140958983
31.009497869018218807469 4192.90118702914878668 31.009497869018218807469 363.37269235011814317
32.009497869018190385759 4201.63438443593076954 32.009497869018190385759 361.04906365301633286
33.009497869018190385759 4209.98417023755882838 33.009497869018190385759 359.00679080468523807
34.009497869018218807469 4217.97957499041422125 34.009497869018218807469 357.03492481265260494
35.009497869018190385759 4225.64559473577082827 35.009497869018190385759 355.26350480512161312
36.009497869018190385759 4233.00503540432237060 36.009497869018190385759 353.57343372933655701
37.009497869018190385759 4240.07873560114057909 37.009497869018190385759 352.00312182073867007
38.009497869018218807469 4246.88485756247609970 38.009497869018218807469 350.54110688137092211
39.009497869018190385759 4253.44036569067338860 39.009497869018190385759 349.20067174520221442
40.009497869018190385759 4259.76069282394928450 40.009497869018190385759 347.99415048380149074
41.009497869018218807469 4265.85956045597868069 41.009497869018218807469 346.75398763297829419
42.009497869018190385759 4271.74983187516954786 42.009497869018190385759 345.63678996432440726
43.009497869018190385759 4277.44337085199185822 43.009497869018190385759 344.53759078011836436
44.009497869018218807469 4282.95075755105153803 44.009497869018218807469 343.53851275905230978
46.009497869018190385759 4293.44631276394284214 46.009497869018190385759 341.68469049773801771
48.009497869018218807469 4303.30747998025981360 48.009497869018218807469 339.97615026309063069
50.009497869018190385759 4312.59527747020092647 50.009497869018190385759 338.44411304340172819
52.009497869018190385759 4321.36250144384302985 52.009497869018190385759 337.03660280486712963
54.009497869018218807469 4329.65535848600120516 54.009497869018218807469 335.72023911736380342
56.009497869018190385759 4337.51423125805922609 56.009497869018190385759 334.50332756380737464
58.009497869018218807469 4344.97489875591236341 58.009497869018218807469 333.41446028733122375
60.009497869018190385759 4352.06899439479639113 60.009497869018190385759 332.35539792843263740
62.009497869018190385759 4358.82471021164201375 62.009497869018190385759 331.36601414750776939
64.009497869018218807469 4365.26730993012824911 64.009497869018218807469 330.43813434007887508
66.009497869018190385759 4371.41936077592436050 66.009497869018190385759 329.57459886065572618
68.009497869018190385759 4377.30134323306265287 68.009497869018190385759 328.76708052794185733
70.009497869018190385759 4382.93162994873364369 70.009497869018190385759 327.98692292559798034
72.009497869018190385759 4388.32695428948318295 72.009497869018190385759 327.25550109345908822
74.009497869018218807469 4393.50255112534523505 74.009497869018218807469 326.55727466451418195
76.009497869018190385759 4398.47222903576312092 76.009497869018190385759 325.89311141957887230
78.009497869018190385759 4403.24868058730953635 78.009497869018190385759 325.26334066371316567
80.009497869018218807469 4407.84351814553701843 80.009497869018218807469 324.66000983435776561
82.009497869018190385759 4412.26736315898688190 82.009497869018190385759 324.08237118734479054
84.009497869018218807469 4416.53004399290966830 84.009497869018218807469 323.52466994490782781
86.009497869018190385759 4420.64061552814655442 86.009497869018190385759 322.99706251894423303
88.009497869018190385759 4424.60740201623866596 88.009497869018190385759 322.48498158890345167
91.009497869018218807469 4430.30475734769152041 91.009497869018218807469 321.75765122276936836
94.009497869018218807469 4435.71965447912680247 94.009497869018218807469 321.07004781727027876
97.009497869018218807469 4440.87333797693645465 97.009497869018218807469 320.42433182146641002
99.504748934509137825444 4444.97478596576547716 99.504748934509137825444 319.82072158139703788
nan nan nan nan

