Time Pressure difference Time.1 Pressure.1 difference.1
(hr) (psi) (hr) (psi)
0.000200000000020850166 0.18630508106946186 0.000200000000020850166 0.14849482005145445
0.000399999999999067768 0.37254390336625193 0.000399999999999067768 0.38887838125498608
0.000600000000019917934 0.55872685447397119 0.000600000000019917934 0.56905530643255386
0.000799999999998135536 0.74485836930235583 0.000799999999998135536 0.75253954950912549
0.001007140329434719206 0.93758426033945086 0.001007140329434719206 0.94521512303393818
0.001267914553977789183 1.18014148088153781 0.001267914553977789183 1.18957403078859092
0.001596209851982166583 1.48539615522295376 0.001596209851982166583 1.49700559975329650
0.002009509145224797066 1.86952664379559508 0.002009509145224797066 1.88373697416665342
0.002529822128153114136 2.35287104285565940 0.002529822128153114136 2.37014188447335927
0.003184857364431081805 2.96098873133429041 0.003184857364431081805 2.98178499048419043
0.004009497869034817086 3.72598850189490527 0.004009497869034817086 3.75072095641743086
0.005047658755856332391 4.68818786953119293 0.005047658755856332391 4.71710582086649133
0.006354625877790454069 5.89818250168524738 0.006354625877790454069 5.93118864976963334
0.008000000000009777068 7.41942151145700368 0.008000000000009777068 7.45576221098665926
0.010071403294361402914 9.33140356553899153 0.010071403294361402914 9.36916133831093845
0.012679145539692626699 11.73362998715193761 0.012679145539692626699 11.76890470606412897
0.015962098519750611558 14.75047326981473006 0.015962098519750611558 14.77607641209911904
0.020095091452091651263 18.53714061732017271 0.020095091452091651263 18.54053238349481347
0.025298221281360611101 23.28692859493295586 0.025298221281360611101 23.24698420166459911
0.031848573644296607199 29.23997045105349457 0.031848573644296607199 29.12194574743769948
0.040094978690191851456 36.69366199479437540 0.040094978690191851456 36.44140565444180879
0.050476587558435426217 46.01489923925477399 0.050476587558435426217 45.53888151995887057
0.063546258777947173257 57.65414741246588903 0.063546258777947173257 56.81317947734407170
0.080000000000012505552 72.16115153645985458 0.080000000000012505552 70.73467168620172174
0.100714032943542974863 90.20174478387893657 0.100714032943542974863 87.84814936871470081
0.126791455396883634421 112.57464722068345964 0.126791455396883634421 108.76923946623355732
0.159620985197506115583 140.22629321496742705 0.159620985197506115583 134.16992801155510051
0.200950914520774404082 174.26048894207295348 0.200950914520774404082 164.74689366667152512
0.252982212813464002465 215.93799527811552252 0.252982212813464002465 201.16420245243480736
0.318485736442809752589 266.65890880681013186 0.318485736442809752589 243.95974864705738128
0.400949786901833249431 327.91803902558848449 0.400949786901833249431 293.40340494882855182
0.504765875584169521062 401.22067816719430766 0.504765875584169521062 349.29588307784399603
0.635462587779443310865 487.94412129617563778 0.635462587779443310865 410.70436410587950604
0.800000000000011368684 589.13102581552914216 0.800000000000011368684 475.65043993156200486
1.007140329435344483500 705.20806291789290299 1.007140329435344483500 540.80651833300441922
1.267914553968907398485 835.64325077057367253 1.267914553968907398485 601.32348255048304964
1.596209851975117999245 978.59367478322565148 1.596209851975117999245 650.99002800824018777
2.009509145207687197399 1130.65031987397946978 2.009509145207687197399 682.95612789722383695
2.529822128134725289783 1286.83726310123802250 2.529822128134725289783 691.14172184042786284
3.184857364427983839050 1441.02144806886144579 3.184857364427983839050 672.12450740923827652
4.009497869018204596614 1586.78394251990766861 4.009497869018204596614 626.95054979812823603
5.009497869018190385759 1714.51340869249315801 5.009497869018190385759 563.99085069291936634
6.009497869018190385759 1806.87366880742456487 6.009497869018190385759 503.95375217792332023
7.009497869018204596614 1875.91315825786296045 7.009497869018204596614 451.31882932292688793
8.009497869018190385759 1929.09869051534383289 8.009497869018190385759 407.10366289308444721
9.009497869018204596614 1971.19565237384813372 9.009497869018204596614 371.10508887113275023
10.009497869018190385759 2005.32858901479357883 10.009497869018190385759 342.12077298062484942
11.009497869018190385759 2033.60172349438244055 11.009497869018190385759 317.62995838560618722
12.009497869018204596614 2057.46456956095335045 12.009497869018204596614 297.54619604569262492
13.009497869018190385759 2077.93866936380572952 13.009497869018190385759 281.02529942127307550
14.009497869018204596614 2095.75882021528241239 14.009497869018204596614 267.37288641652475008
15.009497869018190385759 2111.46371806946353900 15.009497869018190385759 256.02803616846017576
16.009497869018190385759 2125.45535427164622888 16.009497869018190385759 246.54282799104959167
17.009497869018204596614 2138.03872055366946370 17.009497869018204596614 238.77270061822855496
18.009497869018190385759 2149.44885712957648138 18.009497869018190385759 231.97772461182978532
19.009497869018204596614 2159.87002282440289491 19.009497869018204596614 226.46165531554083827
20.009497869018190385759 2169.44747280928231703 20.009497869018190385759 221.44940248219870682
21.009497869018190385759 2178.29795805744879544 21.009497869018190385759 217.12712784975008162
22.009497869018204596614 2186.51699959411189411 22.009497869018204596614 213.37457351503675795
23.009497869018190385759 2194.18194116546692385 23.009497869018190385759 210.19781263418900608
24.009497869018204596614 2201.35766864522656761 24.009497869018204596614 207.30560270240127352
25.009497869018204596614 2208.09828208068984168 25.009497869018204596614 204.75052758181854529
26.009497869018190385759 2214.44934681977429136 26.009497869018190385759 202.59053652587189731
27.009497869018204596614 2220.44996894335190518 27.009497869018204596614 200.54976962316561639
28.009497869018190385759 2226.13335048551198270 28.009497869018190385759 198.72096993331885528
29.009497869018190385759 2231.52847135757656361 29.009497869018190385759 197.12139320758527106
30.009497869018190385759 2236.66039313561077506 30.009497869018190385759 195.62339286376075620
31.009497869018218807469 2241.55099258837526577 31.009497869018218807469 194.26129614898917453
32.009497869018190385759 2246.21981411371962167 32.009497869018190385759 193.01906982882022135
33.009497869018190385759 2250.68366141578326278 33.009497869018190385759 191.92725809128756964
34.009497869018218807469 2254.95805441014954340 34.009497869018218807469 190.87308629602429733
35.009497869018190385759 2259.05635613559070407 35.009497869018190385759 189.92607416789314811
36.009497869018190385759 2262.99075878417215790 36.009497869018190385759 189.02255168346394498
37.009497869018190385759 2266.77240280347359658 37.009497869018190385759 188.18305319294859146
38.009497869018218807469 2270.41099783769595888 38.009497869018218807469 187.40145093419354794
39.009497869018190385759 2273.91561316160095885 39.009497869018190385759 186.68484599266182045
40.009497869018190385759 2277.29449926626421075 40.009497869018190385759 186.03983223955020776
41.009497869018218807469 2280.55499174734859480 41.009497869018218807469 185.37683348397885652
42.009497869018190385759 2283.70396739865873315 42.009497869018190385759 184.77957267782500139
43.009497869018190385759 2286.74776866550382692 43.009497869018190385759 184.19193397314205640
44.009497869018218807469 2289.69205176953619230 44.009497869018218807469 183.65782066355063762
46.009497869018190385759 2295.30304071389809906 46.009497869018190385759 182.66675577922032403
48.009497869018218807469 2300.57488189875402895 48.009497869018218807469 181.75335956785752956
50.009497869018190385759 2305.54019606998781455 50.009497869018190385759 180.93432296353697097
52.009497869018190385759 2310.22720840911915730 52.009497869018190385759 180.18185925606263709
54.009497869018218807469 2314.66062124311247317 54.009497869018218807469 179.47812306035677921
56.009497869018190385759 2318.86202339332976408 56.009497869018190385759 178.82755459258436304
58.009497869018218807469 2322.85054253299404081 58.009497869018218807469 178.24543938988591663
60.009497869018190385759 2326.64309008218242525 60.009497869018190385759 177.67925808107136731
62.009497869018190385759 2330.25473767877747377 62.009497869018190385759 177.15032737241463678
64.009497869018218807469 2333.69899146622628905 64.009497869018218807469 176.65427706963643573
66.009497869018190385759 2336.98791602340634199 66.009497869018190385759 176.19262564388276360
68.009497869018190385759 2340.13246034416715702 68.009497869018190385759 175.76092133236033987
70.009497869018190385759 2343.14244655970514941 70.009497869018190385759 175.34384423707388123
72.009497869018190385759 2346.02682043160939429 72.009497869018190385759 174.95282158695664521
74.009497869018218807469 2348.79372661593606608 74.009497869018218807469 174.57954540537272692
76.009497869018190385759 2351.45054726494299757 76.009497869018190385759 174.22447961333097055
78.009497869018190385759 2354.00406790347824426 78.009497869018190385759 173.88780025935975004
80.009497869018218807469 2356.46049657422508972 80.009497869018218807469 173.56525585416738977
82.009497869018190385759 2358.82551156948238713 82.009497869018190385759 173.25644664908168124
84.009497869018218807469 2361.10436719430026642 84.009497869018218807469 172.95829610419892219
86.009497869018190385759 2363.30190424416468886 86.009497869018190385759 172.67623390034250974
88.009497869018190385759 2365.42257291560281374 88.009497869018190385759 172.40247225755220484
91.009497869018218807469 2368.46841442931463462 91.009497869018218807469 172.01363693054972259
94.009497869018218807469 2371.36325203657406746 94.009497869018218807469 171.64603988321846373
97.009497869018218807469 2374.11844321440048589 97.009497869018218807469 171.30083610503214686
99.504748934509137825444 2376.31110275974106116 99.504748934509137825444 170.97814232513829324
nan nan nan nan

