Time Pressure difference Time.1 Pressure.1 difference.1
(hr) (psi) (hr) (psi)
0.000200000000020850166 0.73690313315867506 0.000200000000020850166 0.58735004716780637
0.000399999999999067768 1.47354418920758556 0.000399999999999067768 1.53815288299963271
0.000600000000019917934 2.20996425474972513 0.000600000000019917934 2.25081697097876221
0.000799999999998135536 2.94618087143699636 0.000799999999998135536 2.97656268243341593
0.001007140329434719206 3.70848060116407829 0.001007140329434719206 3.73866338842888046
0.001267914553977789183 4.66788103598679616 0.001267914553977789183 4.70519013963701571
0.001596209851982166583 5.87527229253364691 0.001596209851982166583 5.92119179188134215
0.002009509145224797066 7.39464556429864839 0.002009509145224797066 7.45085249603417310
0.002529822128153114136 9.30644528558086925 0.002529822128153114136 9.37475763233659265
0.003184857364431081805 11.71176792840259573 0.003184857364431081805 11.79402456057586157
0.004009497869034817086 14.73761523517359784 0.004009497869034817086 14.83544092582966023
0.005047658755856332391 18.54345737680641548 0.005047658755856332391 18.65783820217728106
0.006354625877790454069 23.32941828791575389 0.006354625877790454069 23.45996939149953064
0.008000000000009777068 29.34646187120939587 0.008000000000009777068 29.49020231667044811
0.010071403294361402914 36.90903374583726304 0.010071403294361402914 37.05837922206915636
0.012679145539692626699 46.41069718132418842 0.012679145539692626699 46.55022129273579878
0.015962098519750611558 58.34338980828504617 0.015962098519750611558 58.44465937999919447
0.020095091452091651263 73.32101154886460392 0.020095091452091651263 73.33442719543036503
0.025298221281360611101 92.10811935317232724 0.025298221281360611101 91.95012501194122478
0.031848573644296607199 115.65452598050624999 0.031848573644296607199 115.18769612602589802
0.040094978690191851456 145.13653806869558593 0.040094978690191851456 144.13877415105108071
0.050476587558435426217 182.00536038383808091 0.050476587558435426217 180.12254029769445651
0.063546258777947173257 228.04274378323560768 0.063546258777947173257 224.71641525413770069
0.080000000000012505552 285.42312616653322266 0.080000000000012505552 279.78088890167282443
0.100714032943542974863 356.78011552909254078 0.100714032943542974863 347.47080509232682743
0.126791455396883634421 445.27293498895335233 0.126791455396883634421 430.22118824590597796
0.159620985197506115583 554.64507048420148294 0.159620985197506115583 530.68998311713323801
0.200950914520774404082 689.26246965480629569 0.200950914520774404082 651.63280262799537468
0.252982212813464002465 854.11189203754622667 0.252982212813464002465 795.67626505739826825
0.318485736442809752589 1054.73121965550785717 0.318485736442809752589 964.94793438077158498
0.400949786901833249431 1297.03295793156871696 0.400949786901833249431 1160.51525350295582939
0.504765875584169521062 1586.97107525059891486 0.504765875584169521062 1381.58996610254371262
0.635462587779443310865 1929.99326548398039449 0.635462587779443310865 1624.48244016879129958
0.800000000000011368684 2330.22361103820867356 0.800000000000011368684 1881.36736508644594323
1.007140329435344483500 2789.34974886273676020 1.007140329435344483500 2139.08292519215137872
1.267914553968907398485 3305.26750081575073636 1.267914553968907398485 2378.44913187378597286
1.596209851975117999245 3870.68748150865167190 1.596209851975117999245 2574.89805721116408677
2.009509145207687197399 4472.12581878725814022 2.009509145207687197399 2701.33539873634072137
2.529822128134725289783 5089.90096030221866386 2.529822128134725289783 2733.71234620812083449
3.184857364427983839050 5699.75447762951353070 3.184857364427983839050 2658.49247127046919559
4.009497869018204596614 6276.29720121713489789 4.009497869018204596614 2479.81333536223928604
5.009497869018190385759 6781.51285759619986493 5.009497869018190385759 2230.78523979431474800
6.009497869018190385759 7146.83067215793744253 6.009497869018190385759 1993.31707334660768538
7.009497869018204596614 7419.90650989493951784 7.009497869018204596614 1785.12715526836268509
8.009497869018190385759 7630.27428480622620555 8.009497869018190385759 1610.24038090746807939
9.009497869018204596614 7796.78280358584561327 9.009497869018204596614 1467.85316401706950273
10.009497869018190385759 7931.79075833529896045 10.009497869018190385759 1353.20984312872133160
11.009497869018190385759 8043.62110275010127225 11.009497869018190385759 1256.33992468592441583
12.009497869018204596614 8138.00718138841421023 12.009497869018204596614 1176.90147185930209162
13.009497869018190385759 8218.98955828719408601 13.009497869018190385759 1111.55542538949976006
14.009497869018204596614 8289.47461924437629932 14.009497869018204596614 1057.55525609393293962
15.009497869018190385759 8351.59309914975347056 15.009497869018190385759 1012.68232163060588391
16.009497869018190385759 8406.93501734231540468 16.009497869018190385759 975.16493571459795930
17.009497869018204596614 8456.70672504710091744 17.009497869018204596614 944.43130690960038010
18.009497869018190385759 8501.83789025359328662 18.009497869018190385759 917.55475002714820221
19.009497869018204596614 8543.05732242152225808 19.009497869018204596614 895.73672593557671462
20.009497869018190385759 8580.93955762957193656 20.009497869018190385759 875.91147588941100821
21.009497869018190385759 8615.94638767365904641 21.009497869018190385759 858.81533604856508646
22.009497869018204596614 8648.45563232313907065 22.009497869018204596614 843.97264345679718645
23.009497869018190385759 8678.77321371697871655 23.009497869018190385759 831.40741961558683215
24.009497869018204596614 8707.15577865924387879 24.009497869018204596614 819.96769640324782813
25.009497869018204596614 8733.81731215844411054 25.009497869018204596614 809.86146177451439598
26.009497869018190385759 8758.93804143893066794 26.009497869018190385759 801.31792572286838094
27.009497869018204596614 8782.67264501700810797 27.009497869018204596614 793.24596377734246744
28.009497869018190385759 8805.15244879537385714 28.009497869018190385759 786.01240786125219984
29.009497869018190385759 8826.49207867327277199 29.009497869018190385759 779.68551063357392650
30.009497869018190385759 8846.79066213460464496 30.009497869018190385759 773.76038427362504990
31.009497869018218807469 8866.13472961294974084 31.009497869018218807469 768.37280530359112163
32.009497869018190385759 8884.60158618194509472 32.009497869018190385759 763.45935655506559669
33.009497869018190385759 8902.25769649278481666 33.009497869018190385759 759.14085120036065746
34.009497869018218807469 8919.16444735443292302 34.009497869018218807469 754.97122526016755728
35.009497869018190385759 8935.37469435773891746 35.009497869018190385759 751.22545407479162805
36.009497869018190385759 8950.93666197668062523 36.009497869018190385759 747.65169996227257343
37.009497869018190385759 8965.89441466016796767 37.009497869018190385759 744.33118361139497665
38.009497869018218807469 8980.28635751874389825 38.009497869018218807469 741.23966753435479404
39.009497869018190385759 8994.14836277311769663 39.009497869018190385759 738.40523906026055556
40.009497869018190385759 9007.51306406209914712 40.009497869018190385759 735.85397930464955607
41.009497869018218807469 9020.40947628638787137 41.009497869018218807469 733.23158244109504267
42.009497869018190385759 9032.86479962148041523 42.009497869018190385759 730.86920264532568581
43.009497869018190385759 9044.90412070373531606 43.009497869018190385759 728.54488169733861014
44.009497869018218807469 9056.54981190985927242 44.009497869018218807469 726.43227280315113603
46.009497869018190385759 9078.74327710943543934 46.009497869018190385759 722.51225723388040478
48.009497869018218807469 9099.59529179596574977 48.009497869018218807469 718.89944900500790936
50.009497869018190385759 9119.23488266968524840 50.009497869018190385759 715.65986672184703821
52.009497869018190385759 9137.77369040392477473 52.009497869018190385759 712.68360402174766932
54.009497869018218807469 9155.30942152409625123 54.009497869018218807469 709.90007603337551245
56.009497869018190385759 9171.92746752897437545 56.009497869018190385759 707.32684539745423535
58.009497869018218807469 9187.70348519746767124 58.009497869018218807469 705.02437187249518047
60.009497869018190385759 9202.70436523577518528 60.009497869018190385759 702.78492258852338637
62.009497869018190385759 9216.98972135444819287 62.009497869018190385759 700.69281273196145321
64.009497869018218807469 9230.61297517444654659 64.009497869018218807469 698.73075662365124572
66.009497869018190385759 9243.62184641400926921 66.009497869018190385759 696.90476035928634246
68.009497869018190385759 9256.05964225416028057 68.009497869018190385759 695.19721562710390117
70.009497869018190385759 9267.96521273168946209 70.009497869018190385759 693.54752675914039628
72.009497869018190385759 9279.37394152859815222 72.009497869018190385759 692.00089252698035125
74.009497869018218807469 9290.31804366839060094 74.009497869018218807469 690.52445191589390561
76.009497869018190385759 9300.82671819972892990 76.009497869018190385759 689.12003989915729107
78.009497869018190385759 9310.92680429679239751 78.009497869018190385759 687.78835281157478221
80.009497869018218807469 9320.64285698554886039 80.009497869018218807469 686.51257449460854332
82.009497869018190385759 9329.99733594000645098 82.009497869018190385759 685.29112379949276601
84.009497869018218807469 9339.01102381317105028 84.009497869018218807469 684.11183191214399812
86.009497869018190385759 9347.70306768004229525 86.009497869018190385759 682.99617515939053192
88.009497869018190385759 9356.09106965725004557 88.009497869018190385759 681.91335009013960189
91.009497869018218807469 9368.13846064452081919 91.009497869018218807469 680.37536750208505509
94.009497869018218807469 9379.58857725180496345 94.009497869018218807469 678.92138989523016335
97.009497869018218807469 9390.48634235695863026 97.009497869018218807469 677.55598566543960715
99.504748934509137825444 9399.15909395147536998 99.504748934509137825444 676.27961651818088740
nan nan nan nan

