Time Pressure difference Time.1 Pressure.1 difference.1
(hr) (psi) (hr) (psi)
0.000200000000020850166 0.25367432913475835 0.000200000000020850166 0.20219160765934646
0.000399999999999067768 0.50725843985136976 0.000399999999999067768 0.52949958161951238
0.000600000000019917934 0.76076647595786240 0.000600000000019917934 0.77482976991932551
0.000799999999998135536 1.01420447605901121 0.000799999999998135536 1.02466322589412173
0.001007140329434719206 1.27662142590862726 0.001007140329434719206 1.28701166305960335
0.001267914553977789183 1.60688906995030822 0.001267914553977789183 1.61973249727910829
0.001596209851982166583 2.02252601492411088 0.001596209851982166583 2.03833351752122960
0.002009509145224797066 2.54556083195382366 0.002009509145224797066 2.56490971928941613
0.002529822128153114136 3.20368601817400078 0.002529822128153114136 3.22720211948381586
0.003184857364431081805 4.03170340650427939 0.003184857364431081805 4.06001974150749234
0.004009497869034817086 5.07333255838368746 0.004009497869034817086 5.10700844512194863
0.005047658755856332391 6.38347009020988398 0.005047658755856332391 6.42284497930481990
0.006354625877790454069 8.03100742416964586 0.006354625877790454069 8.07594883115954509
0.008000000000009777068 10.10233732586779531 0.008000000000009777068 10.15181908192379900
0.010071403294361402914 12.70570574772050243 0.010071403294361402914 12.75711700082516131
0.012679145539692626699 15.97659440214884619 0.012679145539692626699 16.02462471138196420
0.015962098519750611558 20.08434976470309152 0.015962098519750611558 20.11921118611710568
0.020095091452091651263 25.24030307269041273 0.020095091452091651263 25.24492132574070524
0.025298221281360611101 31.70764831006496465 0.025298221281360611101 31.65325973887367539
0.031848573644296607199 39.81335262308623157 0.031848573644296607199 39.65264934360936877
0.040094978690191851456 49.96235226969769627 0.040094978690191851456 49.61887823484264004
0.050476587558435426217 62.65421548202101576 0.050476587558435426217 62.00606635530113664
0.063546258777947173257 78.50229893215221466 0.063546258777947173257 77.35723098477652115
0.080000000000012505552 98.25513936884044597 0.080000000000012505552 96.31283421558715929
0.100714032943542974863 122.81933999590657436 0.100714032943542974863 119.61466766722313082
0.126791455396883634421 153.28244376030559692 0.126791455396883634421 148.10097338036266024
0.159620985197506115583 190.93312245787973325 0.159620985197506115583 182.68673233716211257
0.200950914520774404082 237.27432646130469607 0.200950914520774404082 224.32054718006614280
0.252982212813464002465 294.02271678493411855 0.252982212813464002465 273.90661494639556395
0.318485736442809752589 363.08467493784417002 0.318485736442809752589 332.17733632746654848
0.400949786901833249431 446.49554420894861551 0.400949786901833249431 399.50017191693177665
0.504765875584169521062 546.30494125443863140 0.504765875584169521062 475.60376936938581593
0.635462587779443310865 664.38820087202486775 0.635462587779443310865 559.21799576916635033
0.800000000000011368684 802.16501282918022753 0.800000000000011368684 647.64903651395718498
1.007140329435344483500 960.21633566945229177 1.007140329435344483500 736.36601826592129783
1.267914553968907398485 1137.81781912957558234 1.267914553968907398485 818.76634900847022891
1.596209851975117999245 1332.46013753965985416 1.596209851975117999245 886.39267206479132710
2.009509145207687197399 1539.50155161412385496 2.009509145207687197399 929.91794200291633388
2.529822128134725289783 1752.16680913338200298 2.529822128134725289783 941.06350518451131393
3.184857364427983839050 1962.10509670090482359 3.184857364427983839050 915.16953017775745138
4.009497869018204596614 2160.57635030612391347 4.009497869018204596614 853.66034682334429817
5.009497869018190385759 2334.49370380004620529 5.009497869018190385759 767.93397080955537604
6.009497869018190385759 2460.25209368868036108 6.009497869018190385759 686.18702863511884971
7.009497869018204596614 2554.25675566360814628 7.009497869018204596614 614.51894171202104644
8.009497869018190385759 2626.67455628205334506 8.009497869018190385759 554.31525527853023050
9.009497869018204596614 2683.99408024117701643 9.009497869018204596614 505.29933975756910058
10.009497869018190385759 2730.46973057817876906 10.009497869018190385759 465.83408821022578650
11.009497869018190385759 2768.96663243654757025 11.009497869018190385759 432.48722012325833930
12.009497869018204596614 2801.45845408969080381 12.009497869018204596614 405.14102586578678711
13.009497869018190385759 2829.33613462482435352 13.009497869018190385759 382.64605501557269918
14.009497869018204596614 2853.60017931098764166 14.009497869018204596614 364.05683195107167194
15.009497869018190385759 2874.98408040708227418 15.009497869018190385759 348.60960281866226751
16.009497869018190385759 2894.03519220023281378 16.009497869018190385759 335.69447561281305070
17.009497869018204596614 2911.16879361102292023 17.009497869018204596614 325.11461468107012251
18.009497869018190385759 2926.70491707375367696 18.009497869018190385759 315.86252681521466457
19.009497869018204596614 2940.89445072072703624 19.009497869018204596614 308.35180746089264403
20.009497869018190385759 2953.93517503049633888 20.009497869018190385759 301.52708820120813016
21.009497869018190385759 2965.98605896215121902 21.009497869018190385759 295.64184818827578738
22.009497869018204596614 2977.17716462591124582 22.009497869018204596614 290.53234340217062481
23.009497869018190385759 2987.61380381905064496 23.009497869018190385759 286.20684309565916692
24.009497869018204596614 2997.38432561068748328 24.009497869018204596614 282.26878939389456491
25.009497869018204596614 3006.56239301165396682 25.009497869018204596614 278.78978085917259477
26.009497869018190385759 3015.21004812513911020 26.009497869018190385759 275.84872160888807002
27.009497869018204596614 3023.38053807018923180 27.009497869018204596614 273.06999881725676005
28.009497869018190385759 3031.11907097357652674 28.009497869018190385759 270.57989209670648734
29.009497869018190385759 3038.46510608955759380 29.009497869018190385759 268.40189700139961815
30.009497869018190385759 3045.45276743911290396 30.009497869018190385759 266.36220903324567644
31.009497869018218807469 3052.11184258685079840 31.009497869018218807469 264.50756841715042356
32.009497869018190385759 3058.46894332448437126 32.009497869018190385759 262.81614418656317866
33.009497869018190385759 3064.54694969559750461 33.009497869018190385759 261.32952552608350061
34.009497869018218807469 3070.36699372810608111 34.009497869018218807469 259.89415767985451566
35.009497869018190385759 3075.94727063104983245 35.009497869018190385759 258.60469920181884618
36.009497869018190385759 3081.30438138023464489 36.009497869018190385759 257.37445653328796880
37.009497869018190385759 3086.45349488865849708 37.009497869018190385759 256.23138939218449650
38.009497869018218807469 3091.40783187721990544 38.009497869018218807469 255.16715417379029418
39.009497869018190385759 3096.17974113521540858 39.009497869018190385759 254.19141976679401296
40.009497869018190385759 3100.78045659022563996 40.009497869018190385759 253.31316443331613186
41.009497869018218807469 3105.21996644170258151 41.009497869018218807469 252.41042059202482051
42.009497869018190385759 3109.50763418120914139 42.009497869018190385759 251.59718601221706535
43.009497869018190385759 3113.65209572758340073 43.009497869018190385759 250.79705295450145286
44.009497869018218807469 3117.66105263262716107 44.009497869018218807469 250.06980045706666260
46.009497869018190385759 3125.30101525776262861 46.009497869018190385759 248.72035943152764048
48.009497869018218807469 3132.47919187107163452 48.009497869018218807469 247.47667262587745540
50.009497869018190385759 3139.23999911315331701 50.009497869018190385759 246.36146653517309346
52.009497869018190385759 3145.62186859277380790 52.009497869018190385759 245.33690657633528076
54.009497869018218807469 3151.65843517477378555 54.009497869018218807469 244.37869434557509862
56.009497869018190385759 3157.37909435252549883 56.009497869018190385759 243.49287567293853840
58.009497869018218807469 3162.80989050251400840 58.009497869018218807469 242.70026345497859666
60.009497869018190385759 3167.97385033511500296 60.009497869018190385759 241.92934694074446611
62.009497869018190385759 3172.89149550012098189 62.009497869018190385759 241.20915110976099527
64.009497869018218807469 3177.58121605892392836 64.009497869018218807469 240.53372547428173789
66.009497869018190385759 3182.05943922829874282 66.009497869018190385759 239.90513759546539063
68.009497869018190385759 3186.34107323647731391 68.009497869018190385759 239.31732592129421278
70.009497869018190385759 3190.43949196745552399 70.009497869018190385759 238.74943076923003105
72.009497869018190385759 3194.36687603411155578 72.009497869018190385759 238.21701153581150834
74.009497869018218807469 3198.13431525830628743 74.009497869018218807469 237.70875602070839250
76.009497869018190385759 3201.75186123128332838 76.009497869018190385759 237.22529590208009154
78.009497869018190385759 3205.22875317214629831 78.009497869018190385759 236.76687088886038168
80.009497869018218807469 3208.57344399615431030 80.009497869018218807469 236.32769212286186189
82.009497869018190385759 3211.79366530666129620 82.009497869018190385759 235.90721530343711265
84.009497869018218807469 3214.89657140295366844 84.009497869018218807469 235.50125139187798595
86.009497869018190385759 3217.88875354674200935 86.009497869018190385759 235.11719348037706823
88.009497869018190385759 3220.77627115740551744 88.009497869018190385759 234.74443767211349154
91.009497869018218807469 3224.92351071848679567 91.009497869018218807469 234.21499671347172011
94.009497869018218807469 3228.86514228194209863 94.009497869018218807469 233.71447394813228016
97.009497869018218807469 3232.61663026960786738 97.009497869018218807469 233.24444201801253485
99.504748934509137825444 3235.60217116839748996 99.504748934509137825444 232.80505986235345972
nan nan nan nan

