Time Pressure difference Time.1 Pressure.1 difference.1
(hr) (psi) (hr) (psi)
0.000200000000020850166 0.53396366985086841 0.000200000000020850166 0.42559676104032923
0.000399999999999067768 1.06773743732648985 0.000399999999999067768 1.11455321770402271
0.000600000000019917934 1.60135107398343512 0.000600000000019917934 1.63095315504330163
0.000799999999998135536 2.13481729058978775 0.000799999999998135536 2.15683210171811890
0.001007140329434719206 2.68718346043717604 0.001007140329434719206 2.70905405798119769
0.001267914553977789183 3.38236978002655064 0.001267914553977789183 3.40940414181372953
0.001596209851982166583 4.25725148059435821 0.001596209851982166583 4.29052497786435882
0.002009509145224797066 5.35819689873558946 0.002009509145224797066 5.39892472060264073
0.002529822128153114136 6.74349647104166738 0.002529822128153114136 6.79299593674954050
0.003184857364431081805 8.48640520319917080 0.003184857364431081805 8.54600876736986770
0.004009497869034817086 10.67894918846664787 0.004009497869034817086 10.74983416973210026
0.005047658755856332391 13.43668130463850829 0.005047658755856332391 13.51956221873342479
0.006354625877790454069 16.90461234858003792 0.006354625877790454069 16.99921032657189457
0.008000000000009777068 21.26459201051516246 0.008000000000009777068 21.36874705113141104
0.010071403294361402914 26.74446914766086181 0.010071403294361402914 26.85268562140902660
0.012679145539692626699 33.62942165960510721 0.012679145539692626699 33.73052152363022316
0.015962098519750611558 42.27590999652257153 0.015962098519750611558 42.34929043110550850
0.020095091452091651263 53.12876909071228226 0.020095091452091651263 53.13849013483780936
0.025298221281360611101 66.74200070512034699 0.025298221281360611101 66.62751722084229300
0.031848573644296607199 83.80384388203725621 0.031848573644296607199 83.46557665113840585
0.040094978690191851456 105.16665625293744313 0.040094978690191851456 104.44367156317696299
0.050476587558435426217 131.88198799822126261 0.050476587558435426217 130.51768721345356994
0.063546258777947173257 165.24090463751386437 0.063546258777947173257 162.83063046631647808
0.080000000000012505552 206.81901467146087725 0.080000000000012505552 202.73062152920311974
0.100714032943542974863 258.52464353236729266 0.100714032943542974863 251.77907095854834552
0.126791455396883634421 322.64697998070880658 0.126791455396883634421 311.74040954161580430
0.159620985197506115583 401.89857251789771908 0.159620985197506115583 384.54059724740346837
0.200950914520774404082 499.44300848576261842 0.200950914520774404082 472.17636488394248317
0.252982212813464002465 618.89371860959897731 0.252982212813464002465 576.55097310028190805
0.318485736442809752589 764.26347970523261210 0.318485736442809752589 699.20606531879843715
0.400949786901833249431 939.83652256440984729 0.400949786901833249431 840.91511596941040807
0.504765875584169521062 1149.92712224704791879 0.504765875584169521062 1001.10695060703505987
0.635462587779443310865 1398.48270478636072767 0.635462587779443310865 1177.10804355345817385
0.800000000000011368684 1688.49160077486476439 0.800000000000011368684 1363.24813587528046810
1.007140329435344483500 2021.17668032717483584 1.007140329435344483500 1549.99011057941447689
1.267914553968907398485 2395.01324551209063429 1.267914553968907398485 1723.43605266700956236
1.596209851975117999245 2804.71937147692324288 1.596209851975117999245 1865.78391955933125246
2.009509145207687197399 3240.52457749595896530 2.009509145207687197399 1957.40104513400729047
2.529822128134725289783 3688.16751299551242482 2.529822128134725289783 1980.86154206051196525
3.184857364427983839050 4130.07040026878985373 3.184857364427983839050 1926.35684712826332543
4.009497869018204596614 4547.83612097223522142 4.009497869018204596614 1796.88505790356407488
5.009497869018190385759 4913.91789455616253690 5.009497869018190385759 1616.43806314667040169
6.009497869018190385759 5178.62899720699442696 6.009497869018190385759 1444.36745043851260561
7.009497869018204596614 5376.50110536405372841 7.009497869018204596614 1293.51200189874589341
8.009497869018190385759 5528.93463978058389330 8.009497869018190385759 1166.78817668464375856
9.009497869018204596614 5649.58753939290363633 9.009497869018204596614 1063.61369221101426774
10.009497869018190385759 5747.41497387275649089 10.009497869018190385759 980.54257256054074787
11.009497869018190385759 5828.44779680086412554 11.009497869018190385759 910.35014858731767617
12.009497869018204596614 5896.84041811666065769 12.009497869018204596614 852.78865116667259372
13.009497869018190385759 5955.52065058733569458 13.009497869018190385759 805.43858137704160072
14.009497869018204596614 6006.59447579558673169 14.009497869018204596614 766.30979053307544291
15.009497869018190385759 6051.60583482408765121 15.009497869018190385759 733.79463937567606990
16.009497869018190385759 6091.70686358212969935 16.009497869018190385759 706.60935522434749601
17.009497869018204596614 6127.77169015828349075 17.009497869018204596614 684.33961516474425935
18.009497869018190385759 6160.47395659459016315 18.009497869018190385759 664.86472857497653877
19.009497869018204596614 6190.34176184493935580 19.009497869018204596614 649.05527996686259939
20.009497869018190385759 6217.79141760517541115 20.009497869018190385759 634.68980532844454956
21.009497869018190385759 6243.15754050393752550 21.009497869018190385759 622.30185749794441108
22.009497869018204596614 6266.71390062240880070 22.009497869018204596614 611.54676873506070933
23.009497869018190385759 6288.68217066174020147 23.009497869018190385759 602.44194513905961230
24.009497869018204596614 6309.24831817069298268 24.009497869018204596614 594.15266488813222168
25.009497869018204596614 6328.56739774912057328 25.009497869018204596614 586.82963708717636564
26.009497869018190385759 6346.77000293881792459 26.009497869018190385759 580.63894843575792493
27.009497869018204596614 6363.96821456085763202 27.009497869018204596614 574.78996472353708214
28.009497869018190385759 6380.25719201651190815 28.009497869018190385759 569.54849418388710092
29.009497869018190385759 6395.71999380162651505 29.009497869018190385759 564.96399303245425472
30.009497869018190385759 6410.42844818331286660 30.009497869018190385759 560.67061704702859970
31.009497869018218807469 6424.44525554346910212 31.009497869018218807469 556.76675056987073731
32.009497869018190385759 6437.82643152235687012 32.009497869018190385759 553.20644120581505376
33.009497869018190385759 6450.62013673630644917 33.009497869018190385759 550.07723077949378876
34.009497869018218807469 6462.87085237194787624 34.009497869018218807469 547.05589911628396749
35.009497869018190385759 6474.61687785289814201 35.009497869018190385759 544.34169471333655110
36.009497869018190385759 6485.89315687249290932 36.009497869018190385759 541.75213473564224387
37.009497869018190385759 6496.73161874924153381 37.009497869018190385759 539.34607209764726576
38.009497869018218807469 6507.16009201696851960 38.009497869018218807469 537.10594419532264965
39.009497869018190385759 6517.20456986494446028 39.009497869018190385759 535.05210324682536793
40.009497869018190385759 6526.88869878991772566 40.009497869018190385759 533.20344775799662784
41.009497869018218807469 6536.23350313302671566 41.009497869018218807469 531.30324596747516352
42.009497869018190385759 6545.25869227651219262 42.009497869018190385759 529.59145383555210174
43.009497869018190385759 6553.98244412166695838 43.009497869018190385759 527.90723933373749333
44.009497869018218807469 6562.42096980375936255 44.009497869018218807469 526.37643243749778321
46.009497869018190385759 6578.50246490322479076 46.009497869018190385759 523.53596968865815597
48.009497869018218807469 6593.61193829910826025 48.009497869018218807469 520.91811090430587683
50.009497869018190385759 6607.84288337916223099 50.009497869018190385759 518.57069349370863165
52.009497869018190385759 6621.27619552970736549 52.009497869018190385759 516.41407876067944471
54.009497869018218807469 6633.98267338427740469 54.009497869018218807469 514.39712055691552450
56.009497869018190385759 6646.02419204695434019 56.009497869018190385759 512.53254485910338190
58.009497869018218807469 6657.45557279545573692 58.009497869018218807469 510.86416110851234862
60.009497869018190385759 6668.32528496768463810 60.009497869018190385759 509.24144503592776800
62.009497869018190385759 6678.67652495435322635 62.009497869018190385759 507.72549184415265699
64.009497869018218807469 6688.54800232730849530 64.009497869018218807469 506.30377624422590088
66.009497869018190385759 6697.97429503137027496 66.009497869018190385759 504.98065028291398448
68.009497869018190385759 6706.98678366497915704 68.009497869018190385759 503.74335489006847411
70.009497869018190385759 6715.61361915772613429 70.009497869018190385759 502.54798214375631460
72.009497869018190385759 6723.88044070130945329 72.009497869018190385759 501.42728329833113321
74.009497869018218807469 6731.81059146174629859 74.009497869018218807469 500.35744709932714613
76.009497869018190385759 6739.42522921470208530 76.009497869018190385759 499.33980317749319511
78.009497869018190385759 6746.74380175907572266 78.009497869018190385759 498.37485610048645412
80.009497869018218807469 6753.78410178862668545 80.009497869018218807469 497.45042079631906518
82.009497869018190385759 6760.56240369467650453 82.009497869018190385759 496.56535155674305315
84.009497869018218807469 6767.09376669080666034 84.009497869018218807469 495.71083079864143883
86.009497869018190385759 6773.39206484265014296 86.009497869018190385759 494.90242037508880912
88.009497869018190385759 6779.47005273132617731 88.009497869018190385759 494.11779995244882002
91.009497869018218807469 6788.19965206973211025 91.009497869018218807469 493.00337013130763353
94.009497869018218807469 6796.49646342625237594 94.009497869018218807469 491.94981073672437333
97.009497869018218807469 6804.39303814127288206 97.009497869018218807469 490.96043205102961338
99.504748934509137825444 6810.67735701675701421 99.504748934509137825444 490.03556862829805141
nan nan nan nan

