Time Pressure difference Time.1 Pressure.1 difference.1
(hr) (psi) (hr) (psi)
0.000200000000020850166 0.13057990057100677 0.000200000000020850166 0.10407895869677834
0.000399999999999067768 0.26111336084152476 0.000399999999999067768 0.27256207971889651
0.000600000000019917934 0.39160766139470293 0.000600000000019917934 0.39884679959781677
0.000799999999998135536 0.52206591062709762 0.000799999999998135536 0.52744959496844956
0.001007140329434719206 0.65714611104149012 0.001007140329434719206 0.66249452819789412
0.001267914553977789183 0.82715273436786363 0.001267914553977789183 0.83376394122236064
0.001596209851982166583 1.04110355522323106 0.001596209851982166583 1.04924053196994427
0.002009509145224797066 1.31033787087459119 0.002009509145224797066 1.32029778992930602
0.002529822128153114136 1.64911050771579704 0.002529822128153114136 1.66121551724248873
0.003184857364431081805 2.07533585187269454 0.003184857364431081805 2.08991180136615151
0.004009497869034817086 2.61151872677455410 0.004009497869034817086 2.62885352748900258
0.005047658755856332391 3.28591739069820221 0.005047658755856332391 3.30618577623231724
0.006354625877790454069 4.13399398555617736 0.006354625877790454069 4.15712775899032305
0.008000000000009777068 5.20021954151227472 0.008000000000009777068 5.22569047823618504
0.010071403294361402914 6.54031410620366849 0.010071403294361402914 6.56677825944114879
0.012679145539692626699 8.22401744635202725 0.012679145539692626699 8.24874124487530480
0.015962098519750611558 10.33850135428978767 0.015962098519750611558 10.35644641383732711
0.020095091452091651263 12.99254945053244192 0.020095091452091651263 12.99492671521734621
0.025298221281360611101 16.32164191698425881 0.025298221281360611101 16.29364517705955961
0.031848573644296607199 20.49408643221160276 0.031848573644296607199 20.41136376048088508
0.040094978690191851456 25.71832559456570166 0.040094978690191851456 25.54152092744358526
0.050476587558435426217 32.25151419894196891 0.050476587558435426217 31.91787677961402991
0.063546258777947173257 40.40938010605868413 0.063546258777947173257 39.81995168724562006
0.080000000000012505552 50.57723567510802809 0.080000000000012505552 49.57742613720387936
0.100714032943542974863 63.22175862084370834 0.100714032943542974863 61.57214040575092184
0.126791455396883634421 78.90276613235403147 0.126791455396883634421 76.23558301874405174
0.159620985197506115583 98.28360729799055662 0.159620985197506115583 94.03874418667031421
0.200950914520774404082 122.13793198172076870 0.200950914520774404082 115.46992100744387244
0.252982212813464002465 151.34939847617917508 0.252982212813464002465 140.99455261175117471
0.318485736442809752589 186.89932447620174116 0.318485736442809752589 170.98964525708933593
0.400949786901833249431 229.83541128132765152 0.400949786901833249431 205.64435079002714701
0.504765875584169521062 281.21270746539960328 0.504765875584169521062 244.81898947866747562
0.635462587779443310865 341.99654930133743846 0.635462587779443310865 287.85975519921015575
0.800000000000011368684 412.91772791534850739 0.800000000000011368684 333.37999584488943583
1.007140329435344483500 494.27529409870169275 1.007140329435344483500 379.04742579590043761
1.267914553968907398485 585.69638558473241119 1.267914553968907398485 421.46333375190107517
1.596209851975117999245 685.88931670074293834 1.596209851975117999245 456.27426070220406018
2.009509145207687197399 792.46473312595890093 2.009509145207687197399 478.67907178510779431
2.529822128134725289783 901.93504601292124789 2.529822128134725289783 484.41629611137136635
3.184857364427983839050 1010.00163994112153887 3.184857364427983839050 471.08726635379645131
4.009497869018204596614 1112.16553114118528356 4.009497869018204596614 439.42516213529523839
5.009497869018190385759 1201.69020162822039310 5.009497869018190385759 395.29715874459077440
6.009497869018190385759 1266.42484822663254818 6.009497869018190385759 353.21758523184809064
7.009497869018204596614 1314.81413324323420966 7.009497869018204596614 316.32614376651577004
8.009497869018190385759 1352.09149290584377923 8.009497869018190385759 285.33604943845654134
9.009497869018204596614 1381.59695277988453199 9.009497869018204596614 260.10490603914217900
10.009497869018190385759 1405.52048426483315779 10.009497869018190385759 239.79000606231292636
11.009497869018190385759 1425.33692227061624180 11.009497869018190385759 222.62456904705430816
12.009497869018204596614 1442.06222062977531095 12.009497869018204596614 208.54800347845420561
13.009497869018190385759 1456.41237093802419622 13.009497869018190385759 196.96862504080300482
14.009497869018204596614 1468.90238738303287391 14.009497869018204596614 187.39974628301067128
15.009497869018190385759 1479.90983811118667290 15.009497869018190385759 179.44822177878683078
16.009497869018190385759 1489.71647598503795962 16.009497869018190385759 172.80010711872674278
17.009497869018204596614 1498.53606753091980863 17.009497869018204596614 167.35408034402624367
18.009497869018190385759 1506.53335075599807169 18.009497869018190385759 162.59153019668428897
19.009497869018204596614 1513.83747135460362188 19.009497869018204596614 158.72535662741032070
20.009497869018190385759 1520.55023763864892317 20.009497869018190385759 155.21230441832679503
21.009497869018190385759 1526.75347953133677947 21.009497869018190385759 152.18285300183376307
22.009497869018204596614 1532.51414703694422315 22.009497869018204596614 149.55271447259272577
23.009497869018190385759 1537.88644983472454442 23.009497869018190385759 147.32614546235569719
24.009497869018204596614 1542.91586597009154502 24.009497869018204596614 145.29901617980803508
25.009497869018204596614 1547.64031377976948534 25.009497869018204596614 143.50818227832817797
26.009497869018190385759 1552.09172969064547942 26.009497869018190385759 141.99425997572271285
27.009497869018204596614 1556.29752287547444212 27.009497869018204596614 140.56390103052231666
28.009497869018190385759 1560.28096440279182389 28.009497869018190385759 139.28210839076368188
29.009497869018190385759 1564.06236608544463706 29.009497869018190385759 138.16097648924503005
30.009497869018190385759 1567.65929340308434803 30.009497869018190385759 137.11103874826090987
31.009497869018218807469 1571.08707962667403990 31.009497869018218807469 136.15635489013973825
32.009497869018190385759 1574.35942328506234844 32.009497869018190385759 135.28568733537844082
33.009497869018190385759 1577.48810197445527592 33.009497869018190385759 134.52044428719707980
34.009497869018218807469 1580.48399349282817639 34.009497869018218807469 133.78158280569562066
35.009497869018190385759 1583.35646389860607997 35.009497869018190385759 133.11782876946082865
36.009497869018190385759 1586.11405861212051605 36.009497869018190385759 132.48455631385644438
37.009497869018190385759 1588.76458589350613693 37.009497869018190385759 131.89615781827200180
38.009497869018218807469 1591.31485116302792449 38.009497869018218807469 131.34833837798387890
39.009497869018190385759 1593.77121101058628483 39.009497869018190385759 130.84607509307099349
40.009497869018190385759 1596.13944814644401049 40.009497869018190385759 130.39398956075618230
41.009497869018218807469 1598.42470403720426475 41.009497869018218807469 129.92929846868162258
42.009497869018190385759 1600.63179857852401256 42.009497869018190385759 129.51068263579696804
43.009497869018190385759 1602.76517714501824230 43.009497869018190385759 129.09881086510401360
44.009497869018218807469 1604.82880414204078079 44.009497869018218807469 128.72445466150645643
46.009497869018190385759 1608.76150621465149015 46.009497869018190385759 128.02982436311424408
48.009497869018218807469 1612.45650204510889125 48.009497869018218807469 127.38963148282871884
50.009497869018190385759 1615.93665528119686314 50.009497869018190385759 126.81557457712187897
52.009497869018190385759 1619.22174875103428349 52.009497869018190385759 126.28817813929390468
54.009497869018218807469 1622.32909613914580405 54.009497869018218807469 125.79493446641079402
56.009497869018190385759 1625.27382889621776485 56.009497869018190385759 125.33895567426672812
58.009497869018218807469 1628.06935347178614393 58.009497869018218807469 124.93095528666111704
60.009497869018190385759 1630.72752295938698808 60.009497869018190385759 124.53412285146518457
62.009497869018190385759 1633.25890096235730198 62.009497869018190385759 124.16339909584418422
64.009497869018218807469 1635.67295384016733806 64.009497869018218807469 123.81572098184338415
66.009497869018190385759 1637.97813756997675227 66.009497869018190385759 123.49215279504284126
68.009497869018190385759 1640.18212622336704953 68.009497869018190385759 123.18957432669897401
70.009497869018190385759 1642.29180406193609087 70.009497869018190385759 122.89724796973482057
72.009497869018190385759 1644.31344110608347364 72.009497869018190385759 122.62318298728658306
74.009497869018218807469 1646.25274588706270151 74.009497869018218807469 122.36155637787284434
76.009497869018190385759 1648.11489250266072304 76.009497869018190385759 122.11269330041500325
78.009497869018190385759 1649.90463687877695520 78.009497869018190385759 121.87671714606911166
80.009497869018218807469 1651.62633018818451092 80.009497869018218807469 121.65064807635839372
82.009497869018190385759 1653.28395230539604199 82.009497869018190385759 121.43420591029385491
84.009497869018218807469 1654.88118593529088685 84.009497869018218807469 121.22523432303226798
86.009497869018190385759 1656.42142395684754774 86.009497869018190385759 121.02753893907934923
88.009497869018190385759 1657.90778548102525747 88.009497869018190385759 120.83566135908793626
91.009497869018218807469 1660.04259404197500771 91.009497869018218807469 120.56312945578707740
94.009497869018218807469 1662.07156504349154602 94.009497869018218807469 120.30548331100580128
97.009497869018218807469 1664.00265886009310634 97.009497869018218807469 120.06353244861628582
99.504748934509137825444 1665.53947827356842026 99.504748934509137825444 119.83735868324423279
nan nan nan nan

