Time Pressure difference Time.1 Pressure.1 difference.1
(hr) (psi) (hr) (psi)
0.000200000000020850166 0.79179659454521301 0.000200000000020850166 0.63110298521868147
0.000399999999999067768 1.58331158930657057 0.000399999999999067768 1.65273312033369080
0.000600000000019917934 2.37458913151437701 0.000600000000019917934 2.41848505233835409
0.000799999999998135536 3.16564806953501199 0.000799999999998135536 3.19829308541378321
0.001007140329434719206 3.98473310644266654 0.001007140329434719206 4.01716427289423716
0.001267914553977789183 5.01560129374653574 0.001267914553977789183 5.05568963085151157
0.001596209851982166583 6.31293365969755271 0.001596209851982166583 6.36227379895151035
0.002009509145224797066 7.94548823613127819 0.002009509145224797066 8.00588214020827671
0.002529822128153114136 9.99970193213655278 0.002529822128153114136 10.07310300901177946
0.003184857364431081805 12.58420210817073404 0.003184857364431081805 12.67258620955781012
0.004009497869034817086 15.83545113305334695 0.004009497869034817086 15.94056406477407961
0.005047658755856332391 19.92479844550757306 0.005047658755856332391 20.04769973868258859
0.006354625877790454069 25.06727563216229981 0.006354625877790454069 25.20755176152094279
0.008000000000009777068 31.53254142369226543 0.008000000000009777068 31.68698939669330272
0.010071403294361402914 39.65846515354071755 0.010071403294361402914 39.81893568782148662
0.012679145539692626699 49.86792744539573619 0.012679145539692626699 50.01784500077254592
0.015962098519750611558 62.68951139671259654 0.015962098519750611558 62.79832475142125503
0.020095091452091651263 78.78284762361073490 0.020095091452091651263 78.79726262985295193
0.025298221281360611101 98.96944652846507040 0.025298221281360611101 98.79968285707454356
0.031848573644296607199 124.26987441697734482 0.031848573644296607199 123.76826942661020325
0.040094978690191851456 155.94806347787610434 0.040094978690191851456 154.87597403137766605
0.050476587558435426217 195.56332176683281432 0.050476587558435426217 193.54024645982519814
0.063546258777947173257 245.03012650298003905 0.063546258777947173257 241.45601277871230650
0.080000000000012505552 306.68489402995442106 0.080000000000012505552 300.62235466635729608
0.100714032943542974863 383.35741533148546978 0.100714032943542974863 373.35463481703743582
0.126791455396883634421 478.44225068790473188 0.126791455396883634421 462.26926773149261862
0.159620985197506115583 595.96174616361145127 0.159620985197506115583 570.22219404910924823
0.200950914520774404082 740.60707800381010202 0.200950914520774404082 700.17429808335396046
0.252982212813464002465 917.73647993199097073 0.252982212813464002465 854.94786042284783889
0.318485736442809752589 1133.30036242894311727 0.318485736442809752589 1036.82893174999389885
0.400949786901833249431 1393.65166585875113014 0.400949786901833249431 1246.96447103252125999
0.504765875584169521062 1705.18788221057570809 0.504765875584169521062 1484.50750308083706841
0.635462587779443310865 2073.76251550874667373 0.635462587779443310865 1745.49354744998777278
0.800000000000011368684 2503.80685971599859840 0.800000000000011368684 2021.51436970913823643
1.007140329435344483500 2997.13426740104478085 1.007140329435344483500 2298.42770291526858273
1.267914553968907398485 3551.48381577493773875 1.267914553968907398485 2555.62480083955324517
1.596209851975117999245 4159.02311782870856405 1.596209851975117999245 2766.70761903502079804
2.009509145207687197399 4805.26385946441314445 2.009509145207687197399 2902.56354356320116494
2.529822128134725289783 5469.05836818026091350 2.529822128134725289783 2937.35231782181881499
3.184857364427983839050 6124.34115429266057617 3.184857364427983839050 2856.52915648926273207
4.009497869018204596614 6743.83175570960793266 4.009497869018204596614 2664.53983664204542947
5.009497869018190385759 7286.68198694309558050 5.009497869018190385759 2396.96111544490668166
6.009497869018190385759 7679.21309243155428703 6.009497869018190385759 2141.80344675617425310
7.009497869018204596614 7972.63092259591667244 7.009497869018204596614 1918.10502462243925947
8.009497869018190385759 8198.66943469021134661 8.009497869018190385759 1730.19056729560907115
9.009497869018204596614 8377.58152258885456831 9.009497869018204596614 1577.19662770231411741
10.009497869018190385759 8522.64650331287339213 10.009497869018190385759 1454.01328516765534005
11.009497869018190385759 8642.80732485112457653 11.009497869018190385759 1349.92732313882606832
12.009497869018204596614 8744.22442063405105728 12.009497869018204596614 1264.57133319419358486
13.009497869018190385759 8831.23934479617309989 13.009497869018190385759 1194.35752254041062770
14.009497869018204596614 8906.97498591495241271 14.009497869018204596614 1136.33476727023025887
15.009497869018190385759 8973.72080179521981336 15.009497869018190385759 1088.11915371595569013
16.009497869018190385759 9033.18525565449817805 16.009497869018190385759 1047.80701896196069356
17.009497869018204596614 9086.66456235309306066 17.009497869018204596614 1014.78397762747135857
18.009497869018190385759 9135.15764280070106906 18.009497869018190385759 985.90532960027667286
19.009497869018204596614 9179.44759700371105282 19.009497869018204596614 962.46203509104850582
20.009497869018190385759 9220.15175943944996106 20.009497869018190385759 941.15996054934453241
21.009497869018190385759 9257.76632174415681220 21.009497869018190385759 922.79029336143776163
22.009497869018204596614 9292.69724827497520891 22.009497869018204596614 906.84193743890625683
23.009497869018190385759 9325.27324995323397161 23.009497869018190385759 893.34070369530331845
24.009497869018204596614 9355.77009174221166177 24.009497869018204596614 881.04881148520541956
25.009497869018204596614 9384.41769884293171344 25.009497869018204596614 870.18974222272879615
26.009497869018190385759 9411.40972398404119303 26.009497869018190385759 861.00978023495554226
27.009497869018204596614 9436.91236800924707495 27.009497869018204596614 852.33652089845384126
28.009497869018190385759 9461.06673956342638121 28.009497869018190385759 844.56412221660514206
29.009497869018190385759 9483.99600326969994057 29.009497869018190385759 837.76592113223739489
30.009497869018190385759 9505.80667082634499820 30.009497869018190385759 831.39941967098320674
31.009497869018218807469 9526.59171850059647113 31.009497869018218807469 825.61050863320394910
32.009497869018190385759 9546.43420998330839211 32.009497869018190385759 820.33104677248581993
33.009497869018190385759 9565.40556101707807102 33.009497869018190385759 815.69084688797215676
34.009497869018218807469 9583.57173124313703738 34.009497869018218807469 811.21061675810324232
35.009497869018190385759 9600.98951357625992387 35.009497869018190385759 807.18581521354587949
36.009497869018190385759 9617.71072483273201215 36.009497869018190385759 803.34584465472175907
37.009497869018190385759 9633.78271191476233071 37.009497869018190385759 799.77797607003151370
38.009497869018218807469 9649.24674081020930316 38.009497869018218807469 796.45616647032250057
39.009497869018190385759 9664.14135593680293823 39.009497869018190385759 793.41059546881274400
40.009497869018190385759 9678.50162188162175880 40.009497869018190385759 790.66928701808831192
41.009497869018218807469 9692.35871492623300583 41.009497869018218807469 787.85154230691023258
42.009497869018190385759 9705.74186144429950218 42.009497869018190385759 785.31318388075624171
43.009497869018190385759 9718.67801682839126443 43.009497869018190385759 782.81571938585364023
44.009497869018218807469 9731.19122002052608877 44.009497869018218807469 780.54573782009015304
46.009497869018190385759 9755.03792303406407882 46.009497869018190385759 776.33371206168635581
48.009497869018218807469 9777.44324806970507780 48.009497869018218807469 772.45177816339446508
50.009497869018190385759 9798.54583329745037190 50.009497869018190385759 768.97087259503211953
52.009497869018190385759 9818.46563573875391739 52.009497869018190385759 765.77290183826607972
54.009497869018218807469 9837.30764028322846571 54.009497869018218807469 762.78202300651639689
56.009497869018190385759 9855.16359942165217944 56.009497869018190385759 760.01710701848355711
58.009497869018218807469 9872.11480576522444608 58.009497869018218807469 757.54311740701518829
60.009497869018190385759 9888.23313284927644418 60.009497869018190385759 755.13684684455324714
62.009497869018190385759 9903.58263513480414986 62.009497869018190385759 752.88889133276222765
64.009497869018218807469 9918.22071373145990947 64.009497869018218807469 750.78067754595485894
66.009497869018190385759 9932.19864309947661241 66.009497869018190385759 748.81865898650187319
68.009497869018190385759 9945.56295646270882571 68.009497869018190385759 746.98391566253144447
70.009497869018190385759 9958.35539787874586182 70.009497869018190385759 745.21133800756388155
72.009497869018190385759 9970.61398683433981205 72.009497869018190385759 743.54949174456578476
74.009497869018218807469 9982.37333811772987247 74.009497869018218807469 741.96306797283409651
76.009497869018190385759 9993.66482587600694387 76.009497869018190385759 740.45403835665649694
78.009497869018190385759 10004.51728858978094650 78.009497869018190385759 739.02315110227903006
80.009497869018218807469 10014.95711044045492599 80.009497869018218807469 737.65233738021140653
82.009497869018190385759 10025.00842417029889475 82.009497869018190385759 736.33989825859714529
84.009497869018218807469 10034.69356057577715546 84.009497869018218807469 735.07275844284538380
86.009497869018190385759 10044.03309303769856342 86.009497869018190385759 733.87399407645568772
88.009497869018190385759 10053.04593489131184469 88.009497869018190385759 732.71050709459700556
91.009497869018218807469 10065.99076132458685606 91.009497869018218807469 731.05795695483629970
94.009497869018218807469 10078.29382115543921827 94.009497869018218807469 729.49566950367852769
97.009497869018218807469 10090.00338366120195133 97.009497869018218807469 728.02855344638658153
99.504748934509137825444 10099.32218672889939626 99.504748934509137825444 726.65710488183765392
nan nan nan nan

