Time Pressure difference Time.1 Pressure.1 difference.1
(hr) (psi) (hr) (psi)
0.000200000000020850166 0.05905205694612407 0.000200000000020850166 0.04706755456988065
0.000399999999999067768 0.11808311222769591 0.000399999999999067768 0.12326055834421433
0.000600000000019917934 0.17709645833773191 0.000600000000019917934 0.18037020873531842
0.000799999999998135536 0.23609350098422885 0.000799999999998135536 0.23852816078191033
0.001007140329434719206 0.29718072537545098 0.001007140329434719206 0.29959943631879288
0.001267914553977789183 0.37406270152941601 0.001267914553977789183 0.37705248297316940
0.001596209851982166583 0.47081753134298981 0.001596209851982166583 0.47449731063608946
0.002009509145224797066 0.59257317727449665 0.002009509145224797066 0.59707734449032313
0.002529822128153114136 0.74577608947657070 0.002529822128153114136 0.75125032945360959
0.003184857364431081805 0.93852767823542238 0.003184857364431081805 0.94511934966239974
0.004009497869034817086 1.18100528408276007 0.004009497869034817086 1.18884458886445343
0.005047658755856332391 1.48598811936033348 0.005047658755856332391 1.49515407714964677
0.006354625877790454069 1.86951320365916329 0.006354625877790454069 1.87997497381091061
0.008000000000009777068 2.35169163979217499 0.008000000000009777068 2.36321034366094995
0.010071403294361402914 2.95772166586280560 0.010071403294361402914 2.96968953133962765
0.012679145539692626699 3.71914164771333766 0.012679145539692626699 3.73032247379711235
0.015962098519750611558 4.67537322391448917 0.015962098519750611558 4.68348850562070318
0.020095091452091651263 5.87561153495416200 0.020095091452091651263 5.87668660369701623
0.025298221281360611101 7.38112468857250015 0.025298221281360611101 7.36846374249190372
0.031848573644296607199 9.26802634832499272 0.031848573644296607199 9.23061673244677117
0.040094978690191851456 11.63058036442143006 0.040094978690191851456 11.55062411368468034
0.050476587558435426217 14.58507966958521962 0.050476587558435426217 14.43419905320124919
0.063546258777947173257 18.27430565305838783 0.063546258777947173257 18.00774885219388111
0.080000000000012505552 22.87250785307433532 0.080000000000012505552 22.42036468625143542
0.100714032943542974863 28.59073160560448201 0.100714032943542974863 27.84472591597653235
0.126791455396883634421 35.68214264584163686 0.126791455396883634421 34.47596429510081606
0.159620985197506115583 44.44672686724413779 0.159620985197506115583 42.52707539651970592
0.200950914520774404082 55.23435140574633806 0.200950914520774404082 52.21888147470392028
0.252982212813464002465 68.44463243190268997 0.252982212813464002465 63.76186774161995174
0.318485736442809752589 84.52135055930142471 0.318485736442809752589 77.32652747295122708
0.400949786901833249431 103.93830701257491000 0.400949786901833249431 92.99840067574476166
0.504765875584169521062 127.17262566906606480 0.504765875584169521062 110.71432008270949154
0.635462587779443310865 154.66085987512710176 0.635462587779443310865 130.17861540856003444
0.800000000000011368684 186.73349478974361659 0.800000000000011368684 150.76420194259330287
1.007140329435344483500 223.52576994272496336 1.007140329435344483500 171.41635179305049519
1.267914553968907398485 264.86906609245858135 1.267914553968907398485 190.59806812984061253
1.596209851975117999245 310.17924513218315496 1.596209851975117999245 206.34058923475470237
2.009509145207687197399 358.37577103148458946 2.009509145207687197399 216.47270125313792732
2.529822128134725289783 407.88145392941027012 2.529822128134725289783 219.06724219049277735
3.184857364427983839050 456.75233398611226221 3.184857364427983839050 213.03946440203534962
4.009497869018204596614 502.95383892372075252 4.009497869018204596614 198.72093319494243246
5.009497869018190385759 543.43951793378118964 5.009497869018190385759 178.76495713927351972
6.009497869018190385759 572.71442180949611611 6.009497869018190385759 159.73534109210964971
7.009497869018204596614 594.59747426923331659 7.009497869018204596614 143.05195036574914980
8.009497869018190385759 611.45538851155981774 8.009497869018190385759 129.03732172057587491
9.009497869018204596614 624.79862195778218847 9.009497869018204596614 117.62705941897510797
10.009497869018190385759 635.61754383951051750 10.009497869018190385759 108.44006643582304150
11.009497869018190385759 644.57911771473720819 11.009497869018190385759 100.67735288115194692
12.009497869018204596614 652.14278767333780706 12.009497869018204596614 94.31151749662578254
13.009497869018190385759 658.63234609299195199 13.009497869018190385759 89.07498329870709597
14.009497869018204596614 664.28069747895119690 14.009497869018204596614 84.74765596238061960
15.009497869018190385759 669.25858920951748132 15.009497869018190385759 81.15174360696728684
16.009497869018190385759 673.69343818431650561 16.009497869018190385759 78.14527137216303743
17.009497869018204596614 677.68191588977902029 17.009497869018204596614 75.68241849952779887
18.009497869018190385759 681.29852167946398822 18.009497869018190385759 73.52865378321391177
19.009497869018204596614 684.60165902023481976 19.009497869018204596614 71.78025681876518149
20.009497869018190385759 687.63736861365646291 20.009497869018190385759 70.19155167962549058
21.009497869018190385759 690.44265634856640190 21.009497869018190385759 68.82154498809042309
22.009497869018204596614 693.04779897849073222 22.009497869018204596614 67.63211928378397886
23.009497869018190385759 695.47731170869712969 23.009497869018190385759 66.62519954030098290
24.009497869018204596614 697.75176104379931985 24.009497869018204596614 65.70847228513611071
25.009497869018204596614 699.88829476664727736 25.009497869018204596614 64.89860472459427854
26.009497869018190385759 701.90135546519638865 26.009497869018190385759 64.21396470239689336
27.009497869018204596614 703.80333837043747280 27.009497869018204596614 63.56711447877123078
28.009497869018190385759 705.60476734139001564 28.009497869018190385759 62.98745029136446760
29.009497869018190385759 707.31482797494618353 29.009497869018190385759 62.48044159704711831
30.009497869018190385759 708.94146389566242306 30.009497869018190385759 62.00562898806703060
31.009497869018218807469 710.49160925792261878 31.009497869018218807469 61.57389297579567256
32.009497869018190385759 711.97145893783078918 32.009497869018190385759 61.18015159752782495
33.009497869018190385759 713.38633910946691685 33.009497869018190385759 60.83408627000632407
34.009497869018218807469 714.74116903178855864 34.009497869018218807469 60.49995145990055789
35.009497869018190385759 716.04018431083454743 35.009497869018190385759 60.19978243714470523
36.009497869018190385759 717.28724943605448061 36.009497869018190385759 59.91339807824080310
37.009497869018190385759 718.48589553145814079 37.009497869018190385759 59.64730703883638796
38.009497869018218807469 719.63920020748400930 38.009497869018218807469 59.39956703717741959
39.009497869018190385759 720.75003810032876572 39.009497869018190385759 59.17242886374548760
40.009497869018190385759 721.82102432100339229 40.009497869018190385759 58.96798254021457097
41.009497869018218807469 722.85448399134713782 41.009497869018218807469 58.75783561322544557
42.009497869018190385759 723.85259680939623195 42.009497869018190385759 58.56852526841775131
43.009497869018190385759 724.81737310379810424 43.009497869018190385759 58.38226478612984494
44.009497869018218807469 725.75060569480820050 44.009497869018218807469 58.21296994246471002
46.009497869018190385759 727.52908879770859585 46.009497869018190385759 57.89883776930643933
48.009497869018218807469 729.20007417326576160 48.009497869018218807469 57.60932379159769567
50.009497869018190385759 730.77390143289801472 50.009497869018190385759 57.34971843933537627
52.009497869018190385759 732.25951695110472883 52.009497869018190385759 57.11121431776984991
54.009497869018218807469 733.66475048330801201 54.009497869018218807469 56.88815507716666531
56.009497869018190385759 734.99644491485014441 56.009497869018190385759 56.68194810747093726
58.009497869018218807469 736.26066303501147559 58.009497869018218807469 56.49743837804420110
60.009497869018190385759 737.46276515997760725 60.009497869018190385759 56.31797912391101590
62.009497869018190385759 738.60752846068385224 62.009497869018190385759 56.15032697964928587
64.009497869018218807469 739.69923390224130344 64.009497869018218807469 55.99309674975083340
66.009497869018190385759 740.74170552527607470 66.009497869018190385759 55.84676973533784405
68.009497869018190385759 741.73841376980283258 68.009497869018190385759 55.70993488659635773
70.009497869018190385759 742.69247190062083064 70.009497869018190385759 55.57773634300109222
72.009497869018190385759 743.60671540466194074 72.009497869018190385759 55.45379612800858382
74.009497869018218807469 744.48372584701553478 74.009497869018218807469 55.33548090973867772
76.009497869018190385759 745.32584310629886204 76.009497869018190385759 55.22293773458257959
78.009497869018190385759 746.13521795154883876 78.009497869018190385759 55.11622240363634972
80.009497869018218807469 746.91381811058022322 80.009497869018218807469 55.01398734663341372
82.009497869018190385759 747.66344339925547047 82.009497869018190385759 54.91610585752142981
84.009497869018218807469 748.38575924462202238 84.009497869018218807469 54.82160278302733047
86.009497869018190385759 749.08230000596290665 86.009497869018190385759 54.73219913805499459
88.009497869018190385759 749.75447623664206276 88.009497869018190385759 54.64542647449199819
91.009497869018218807469 750.71989921643455546 91.009497869018218807469 54.52217956280816935
94.009497869018218807469 751.63745935087831640 94.009497869018218807469 54.40566442727013907
97.009497869018218807469 752.51075655456440927 97.009497869018218807469 54.29624715829144321
99.504748934509137825444 753.20575132116789518 99.504748934509137825444 54.19396475484293063
nan nan nan nan

