Time Pressure difference Time.1 Pressure.1 difference.1
(hr) (psi) (hr) (psi)
0.000200000000020850166 0.32187529631197209 0.000200000000020850166 0.25655131857103963
0.000399999999999067768 0.64363611876222993 0.000399999999999067768 0.67185684618606978
0.000600000000019917934 0.96530041375636988 0.000600000000019917934 0.98314465888124269
0.000799999999998135536 1.28687584339290928 0.000799999999998135536 1.30014645383942651
0.001007140329434719206 1.61984423549717627 0.001007140329434719206 1.63302791345595577
0.001267914553977789183 2.03890514777301401 0.001267914553977789183 2.05520156212136040
0.001596209851982166583 2.56628710746108535 0.001596209851982166583 2.58634449600234717
0.002009509145224797066 3.22994112120042542 0.002009509145224797066 3.25449200447542353
0.002529822128153114136 4.06500488207651944 0.002529822128153114136 4.09484334504995662
0.003184857364431081805 5.11563678136772459 0.003184857364431081805 5.15156603266688329
0.004009497869034817086 6.43731049211307305 0.004009497869034817086 6.48004022381047218
0.005047658755856332391 8.09968172102040818 0.005047658755856332391 8.14964264587201725
0.006354625877790454069 10.19016351853656488 0.006354625877790454069 10.24718753330735765
0.008000000000009777068 12.81837555774044901 0.008000000000009777068 12.88116060558856013
0.010071403294361402914 16.12166598153388364 0.010071403294361402914 16.18689927645684534
0.012679145539692626699 20.27194109387410847 0.012679145539692626699 20.33288446985186937
0.015962098519750611558 25.48407658668883968 0.015962098519750611558 25.52831058697481481
0.020095091452091651263 32.02622062010225790 0.020095091452091651263 32.03208050184148448
0.025298221281360611101 40.23232752785292377 0.025298221281360611101 40.16331645555446528
0.031848573644296607199 50.51727037748975135 0.031848573644296607199 50.31336162615352237
0.040094978690191851456 63.39485353564921155 0.040094978690191851456 62.95903566191509526
0.050476587558435426217 79.49895538210535051 0.050476587558435426217 78.67654976885751239
0.063546258777947173257 99.60783503850133513 0.063546258777947173257 98.15491275773284485
0.080000000000012505552 124.67127519915165124 0.080000000000012505552 122.20677652928600310
0.100714032943542974863 155.83962156857654691 0.100714032943542974863 151.77336520398475272
0.126791455396883634421 194.49280568930581126 0.126791455396883634421 187.91828425639457123
0.159620985197506115583 242.26596193835888471 0.159620985197506115583 231.80250955567780125
0.200950914520774404082 301.06611259188497343 0.200950914520774404082 284.62967789732982737
0.252982212813464002465 373.07144719924428955 0.252982212813464002465 347.54708191559046782
0.318485736442809752589 460.70088262605139562 0.318485736442809752589 421.48403002862147559
0.400949786901833249431 566.53696920938727999 0.400949786901833249431 506.90677551427074832
0.504765875584169521062 693.18036808350097999 0.504765875584169521062 603.47101228181088572
0.635462587779443310865 843.01060241794630201 0.635462587779443310865 709.56512905792567381
0.800000000000011368684 1017.82904906522207966 0.800000000000011368684 821.77107256033252725
1.007140329435344483500 1218.37285870189543857 1.007140329435344483500 934.33983301282466982
1.267914553968907398485 1443.72293771523209216 1.267914553968907398485 1038.89369529927216718
1.596209851975117999245 1690.69532205851919571 1.596209851975117999245 1124.70152160352199644
2.009509145207687197399 1953.40032942513425951 2.009509145207687197399 1179.92866739386431618
2.529822128134725289783 2223.24116437579914418 2.529822128134725289783 1194.07074264395350838
3.184857364427983839050 2489.62187679754197234 3.184857364427983839050 1161.21510878292497182
4.009497869018204596614 2741.45261497859064548 4.009497869018204596614 1083.16903023158783981
5.009497869018190385759 2962.12807662497698402 5.009497869018190385759 974.39490722392758926
6.009497869018190385759 3121.69691887711269374 6.009497869018190385759 870.67009862882298421
7.009497869018204596614 3240.97496538300401880 7.009497869018204596614 779.73387030344963478
8.009497869018190385759 3332.86246977427708771 8.009497869018190385759 703.34427473046287105
9.009497869018204596614 3405.59248869946077320 9.009497869018204596614 641.15030979075174855
10.009497869018190385759 3464.56323191395131289 10.009497869018190385759 591.07472831920438239
11.009497869018190385759 3513.41012050145491230 11.009497869018190385759 548.76247274656054742
12.009497869018204596614 3554.63744830396854013 12.009497869018204596614 514.06418691822796063
13.009497869018190385759 3590.01011180264595168 13.009497869018190385759 485.52138783943155431
14.009497869018204596614 3620.79760456836766025 14.009497869018204596614 461.93440644283521124
15.009497869018190385759 3647.93062005751107790 15.009497869018190385759 442.33415177318789802
16.009497869018190385759 3672.10367010324671355 16.009497869018190385759 425.94676085953653910
17.009497869018204596614 3693.84368238513343385 17.009497869018204596614 412.52247830024305131
18.009497869018190385759 3713.55673084440240928 18.009497869018190385759 400.78294386061668320
19.009497869018204596614 3731.56115550465983688 19.009497869018204596614 391.25294913890320458
20.009497869018190385759 3748.10791061246527534 20.009497869018190385759 382.59338732415579898
21.009497869018190385759 3763.39870432246698329 21.009497869018190385759 375.12588606184499440
22.009497869018204596614 3777.59856626304099336 22.009497869018204596614 368.64267834963942505
23.009497869018190385759 3790.84112156712353681 23.009497869018190385759 363.15425664924623561
24.009497869018204596614 3803.23847216831472906 24.009497869018204596614 358.15744752602364542
25.009497869018204596614 3814.88408555904925379 25.009497869018204596614 353.74309899180258299
26.009497869018190385759 3825.85668401452130638 26.009497869018190385759 350.01132872996623746
27.009497869018204596614 3836.22383027266641875 27.009497869018204596614 346.48553948287985804
28.009497869018190385759 3846.04288677630893289 28.009497869018190385759 343.32596144729643584
29.009497869018190385759 3855.36392149724224510 29.009497869018190385759 340.56240701489065259
30.009497869018190385759 3864.23023278339906028 30.009497869018190385759 337.97434392087234301
31.009497869018218807469 3872.67961665938128135 31.009497869018218807469 335.62107861454830982
32.009497869018190385759 3880.74583956254264194 32.009497869018190385759 333.47491082032775012
33.009497869018190385759 3888.45793289244693369 33.009497869018190385759 331.58861107735845053
34.009497869018218807469 3895.84271007467896197 34.009497869018218807469 329.76734105607766878
35.009497869018190385759 3902.92325814497144165 35.009497869018190385759 328.13120849542252699
36.009497869018190385759 3909.72064129229693208 36.009497869018190385759 326.57021206027025073
37.009497869018190385759 3916.25410662921558469 37.009497869018190385759 325.11982850746034046
38.009497869018218807469 3922.54042929994830047 38.009497869018218807469 323.76947103362903135
39.009497869018190385759 3928.59527809615838123 39.009497869018190385759 322.53140803196481556
40.009497869018190385759 3934.43290721448329350 40.009497869018190385759 321.41703159243718346
41.009497869018218807469 3940.06599020635712805 41.009497869018218807469 320.27158284955282852
42.009497869018190385759 3945.50640796107518327 42.009497869018190385759 319.23970815320654992
43.009497869018190385759 3950.76511818549124655 43.009497869018190385759 318.22445735538383360
44.009497869018218807469 3955.85189301254649763 44.009497869018218807469 317.30168123568790861
46.009497869018190385759 3965.54587837624239910 46.009497869018190385759 315.58943967213508586
48.009497869018218807469 3974.65392542329391290 48.009497869018218807469 314.01138461053955098
50.009497869018190385759 3983.23239231734532950 50.009497869018190385759 312.59635262003934031
52.009497869018190385759 3991.33004309968328016 52.009497869018190385759 311.29633719685818960
54.009497869018218807469 3998.98955545127046207 54.009497869018218807469 310.08050725159858985
56.009497869018190385759 4006.24822791615497408 56.009497869018190385759 308.95653405058101271
58.009497869018218807469 4013.13910696548509804 58.009497869018218807469 307.95082608877612529
60.009497869018190385759 4019.69141009734266845 60.009497869018190385759 306.97264677399385846
62.009497869018190385759 4025.93117625753029643 62.009497869018190385759 306.05882452287710294
64.009497869018218807469 4031.88173972066761053 64.009497869018218807469 305.20180904441650682
66.009497869018190385759 4037.56394420115248067 66.009497869018190385759 304.40422376867246612
68.009497869018190385759 4042.99670604103812366 68.009497869018190385759 303.65837748046186562
70.009497869018190385759 4048.19699472591901213 70.009497869018190385759 302.93780232030172783
72.009497869018190385759 4053.18026565639638648 72.009497869018190385759 302.26224086675097169
74.009497869018218807469 4057.96059018021151132 74.009497869018218807469 301.61733960660376397
76.009497869018190385759 4062.55072228362860187 76.009497869018190385759 301.00390004624586027
78.009497869018190385759 4066.96238517252641032 78.009497869018190385759 300.42222634094741807
80.009497869018218807469 4071.20630434921895358 80.009497869018218807469 299.86497328376242422
82.009497869018190385759 4075.29229007763251502 82.009497869018190385759 299.33145023747596269
84.009497869018218807469 4079.22942010800989010 84.009497869018218807469 298.81634193002224720
86.009497869018190385759 4083.02605777898088490 86.009497869018190385759 298.32902910460961721
88.009497869018190385759 4086.68989159972397829 88.009497869018190385759 297.85605698068172842
91.009497869018218807469 4091.95212671493209200 91.009497869018218807469 297.18427451840511822
94.009497869018218807469 4096.95347561675953330 94.009497869018218807469 296.54918497681040890
97.009497869018218807469 4101.71356037487930735 97.009497869018218807469 295.95278380646180949
99.504748934509137825444 4105.50177128580253338 99.504748934509137825444 295.39527267780584907
nan nan nan nan

