Time Pressure difference Time.1 Pressure.1 difference.1
(hr) (psi) (hr) (psi)
0.000200000000020850166 0.26282323936584800 0.000200000000020850166 0.20948376400115898
0.000399999999999067768 0.52555300653453385 0.000399999999999067768 0.54859628784185532
0.000600000000019917934 0.78820395541863786 0.000600000000019917934 0.80277445014592419
0.000799999999998135536 1.05078234240868063 0.000799999999998135536 1.06161829305751643
0.001007140329434719206 1.32266351012172545 0.001007140329434719206 1.33342847713716273
0.001267914553977789183 1.66484244624359801 0.001267914553977789183 1.67814907914819078
0.001596209851982166583 2.09546957611809548 0.001596209851982166583 2.11184718536625748
0.002009509145224797066 2.63736794392592877 0.002009509145224797066 2.65741465998510007
0.002529822128153114136 3.31922879259994863 0.002529822128153114136 3.34359301559634670
0.003184857364431081805 4.17710910313230244 0.003184857364431081805 4.20644668300448288
0.004009497869034817086 5.25630520803031231 0.004009497869034817086 5.29119563494601852
0.005047658755856332391 6.61369360166007603 0.005047658755856332391 6.65448856872237204
0.006354625877790454069 8.32065031487740114 0.006354625877790454069 8.36721255949644771
0.008000000000009777068 10.46668391794827357 0.008000000000009777068 10.51795026192760929
0.010071403294361402914 13.16394431567107759 0.010071403294361402914 13.21720974511721636
0.012679145539692626699 16.55279944616076904 0.012679145539692626699 16.60256199605475302
0.015962098519750611558 20.80870336277435229 0.015962098519750611558 20.84482208135411341
0.020095091452091651263 26.15060908514810123 0.020095091452091651263 26.15539389814446736
0.025298221281360611101 32.85120283928042539 0.025298221281360611101 32.79485271306256067
0.031848573644296607199 41.24924402916474975 0.031848573644296607199 41.08274489370675298
0.040094978690191851456 51.76427317122777794 0.040094978690191851456 51.40841154823041137
0.050476587558435426217 64.91387571252013799 0.050476587558435426217 64.24235071565625788
0.063546258777947173257 81.33352938544295796 0.063546258777947173257 80.14716390553894598
0.080000000000012505552 101.79876734607731237 0.080000000000012505552 99.78641184303457123
0.100714032943542974863 127.24888996297207200 0.100714032943542974863 123.92863928800822748
0.126791455396883634421 158.81066304346416018 0.126791455396883634421 153.44231996129377649
0.159620985197506115583 197.81923507111474692 0.159620985197506115583 189.27543415915809533
0.200950914520774404082 245.83176118613860694 0.200950914520774404082 232.41079642262590710
0.252982212813464002465 304.62681476734150010 0.252982212813464002465 283.78521417397053028
0.318485736442809752589 376.17953206675002775 0.318485736442809752589 344.15750255567024851
0.400949786901833249431 462.59866219681231314 0.400949786901833249431 413.90837483852601508
0.504765875584169521062 566.00774241443491519 0.504765875584169521062 492.75669219910139418
0.635462587779443310865 688.34974254281917183 0.635462587779443310865 579.38651364936572463
0.800000000000011368684 831.09555427547866202 0.800000000000011368684 671.00687061773919595
1.007140329435344483500 994.84708875917021942 1.007140329435344483500 762.92348121977408937
1.267914553968907398485 1178.85387162277356765 1.267914553968907398485 848.29562716943155465
1.596209851975117999245 1380.51607692633615443 1.596209851975117999245 918.36093236876740775
2.009509145207687197399 1595.02455839364961321 2.009509145207687197399 963.45596614072655939
2.529822128134725289783 1815.35971044638927197 2.529822128134725289783 975.00350045346078787
3.184857364427983839050 2032.86954281142948275 3.184857364427983839050 948.17564438088970746
4.009497869018204596614 2238.49877605486972243 4.009497869018204596614 884.44809703664520839
5.009497869018190385759 2418.68855869119533963 5.009497869018190385759 795.62995008465395586
6.009497869018190385759 2548.98249706761680500 6.009497869018190385759 710.93475753671327766
7.009497869018204596614 2646.37749111377070221 7.009497869018204596614 636.68191993770051340
8.009497869018190385759 2721.40708126271738365 8.009497869018190385759 574.30695300988702456
9.009497869018204596614 2780.79386674167835736 9.009497869018204596614 523.52325037177649847
10.009497869018190385759 2828.94568807444102276 10.009497869018190385759 482.63466188338139773
11.009497869018190385759 2868.83100278671827255 11.009497869018190385759 448.08511986540867156
12.009497869018204596614 2902.49466063063027832 12.009497869018204596614 419.75266942160209283
13.009497869018190385759 2931.37776570965434075 13.009497869018190385759 396.44640454072452940
14.009497869018204596614 2956.51690708941669072 14.009497869018204596614 377.18675048045457743
15.009497869018190385759 2978.67203084799348289 15.009497869018190385759 361.18240816622062539
16.009497869018190385759 2998.41023191893009425 16.009497869018190385759 347.80148948737354431
17.009497869018204596614 3016.16176649535464094 17.009497869018204596614 336.84005980071532349
18.009497869018190385759 3032.25820916493876211 18.009497869018190385759 327.25429007740274301
19.009497869018204596614 3046.95949648442501712 19.009497869018204596614 319.47269232013798046
20.009497869018190385759 3060.47054199880903980 20.009497869018190385759 312.40183564453036524
21.009497869018190385759 3072.95604797390069507 21.009497869018190385759 306.30434107375458552
22.009497869018204596614 3084.55076728455014745 22.009497869018204596614 301.01055906585543198
23.009497869018190385759 3095.36380985842652080 23.009497869018190385759 296.52905710894521008
24.009497869018204596614 3105.48671112451575027 24.009497869018204596614 292.44897524088747787
25.009497869018204596614 3114.99579079240174906 25.009497869018204596614 288.84449426720829024
26.009497869018190385759 3123.95532854932480404 26.009497869018190385759 285.79736402756935831
27.009497869018204596614 3132.42049190222860489 27.009497869018204596614 282.91842500410865568
28.009497869018190385759 3140.43811943491891725 28.009497869018190385759 280.33851115593199665
29.009497869018190385759 3148.04909352229560682 29.009497869018190385759 278.08196541784354849
30.009497869018190385759 3155.28876888773675091 30.009497869018190385759 275.96871493280536924
31.009497869018218807469 3162.18800740145843520 31.009497869018218807469 274.04718563875258042
32.009497869018190385759 3168.77438062471173907 32.009497869018190385759 272.29475922279993938
33.009497869018190385759 3175.07159378297956209 33.009497869018190385759 270.75452480735208383
34.009497869018218807469 3181.10154104288994859 34.009497869018218807469 269.26738959617716773
35.009497869018190385759 3186.88307383413712159 35.009497869018190385759 267.93142605827785019
36.009497869018190385759 3192.43339185624290621 36.009497869018190385759 266.65681398202951868
37.009497869018190385759 3197.76821109775755758 37.009497869018190385759 265.47252146862393829
38.009497869018218807469 3202.90122909246429117 38.009497869018218807469 264.36990399645162597
39.009497869018190385759 3207.84523999582961551 39.009497869018190385759 263.35897916821937770
40.009497869018190385759 3212.61188289348001490 40.009497869018190385759 262.44904905222261959
41.009497869018218807469 3217.21150621501010392 41.009497869018218807469 261.51374723632733321
42.009497869018190385759 3221.65381115167929238 42.009497869018190385759 260.67118288478883414
43.009497869018190385759 3225.94774508169302862 43.009497869018190385759 259.84219256925393893
44.009497869018218807469 3230.10128731773829713 44.009497869018218807469 259.08871129322318438
46.009497869018190385759 3238.01678957853437169 46.009497869018190385759 257.69060190282863232
48.009497869018218807469 3245.45385125002849236 48.009497869018218807469 256.40206081894189083
50.009497869018190385759 3252.45849088444765584 50.009497869018190385759 255.24663418070392140
52.009497869018190385759 3259.07052614857866502 52.009497869018190385759 254.18512287908836811
54.009497869018218807469 3265.32480496796233638 54.009497869018218807469 253.19235217443190322
56.009497869018190385759 3271.25178300130482967 56.009497869018190385759 252.27458594311008255
58.009497869018218807469 3276.87844393047362246 58.009497869018218807469 251.45338771073190287
60.009497869018190385759 3282.22864493736460645 60.009497869018190385759 250.65466765008281413
62.009497869018190385759 3287.32364779684621681 62.009497869018190385759 249.90849754322778153
64.009497869018218807469 3292.18250581842630709 64.009497869018218807469 249.20871229466570185
66.009497869018190385759 3296.82223867587663335 66.009497869018190385759 248.55745403333463628
68.009497869018190385759 3301.25829227123585952 68.009497869018190385759 247.94844259386547947
70.009497869018190385759 3305.50452282529795411 70.009497869018190385759 247.36006597730064982
72.009497869018190385759 3309.57355025173455942 72.009497869018190385759 246.80844473874242340
74.009497869018218807469 3313.47686433319586286 74.009497869018218807469 246.28185869686507203
76.009497869018190385759 3317.22487917732996721 76.009497869018190385759 245.78096231166333041
78.009497869018190385759 3320.82716722097757156 78.009497869018190385759 245.30600393731108966
80.009497869018218807469 3324.29248623863850298 80.009497869018218807469 244.85098593712899628
82.009497869018190385759 3327.62884667837670349 82.009497869018190385759 244.41534437995454709
84.009497869018218807469 3330.84366086338786772 84.009497869018218807469 243.99473914699487409
86.009497869018190385759 3333.94375777301775088 86.009497869018190385759 243.59682996655459419
88.009497869018190385759 3336.93541536308248396 88.009497869018190385759 243.21063050618971602
91.009497869018218807469 3341.23222749849765023 91.009497869018218807469 242.66209495559692755
94.009497869018218807469 3345.31601626588098952 94.009497869018218807469 242.14352054954031246
97.009497869018218807469 3349.20280382031478439 97.009497869018218807469 241.65653664817034496
99.504748934509137825444 3352.29601996463452451 99.504748934509137825444 241.20130792296293976
nan nan nan nan

