Time Pressure difference Time.1 Pressure.1 difference.1
(hr) (psi) (hr) (psi)
0.000200000000020850166 0.21208837353889634 0.000200000000020850166 0.16904544246928965
0.000399999999999067768 0.42410131856425998 0.000399999999999067768 0.44269637151795294
0.000600000000019917934 0.63605066022706525 0.000600000000019917934 0.64780849616205916
0.000799999999998135536 0.84794144719687825 0.000799999999998135536 0.85668564787869195
0.001007140329434719206 1.06733922493999978 0.001007140329434719206 1.07602614452524215
0.001267914553977789183 1.34346463225353641 0.001267914553977789183 1.35420257969236912
0.001596209851982166583 1.69096437313327330 0.001596209851982166583 1.70418048186201165
0.002009509145224797066 2.12825577753516404 0.002009509145224797066 2.14443271612721720
0.002529822128153114136 2.67849158896514838 0.002529822128153114136 2.69815259169958344
0.003184857364431081805 3.37076842183144665 0.003184857364431081805 3.39444273470298485
0.004009497869034817086 4.24163869635357482 0.004009497869034817086 4.26979394592162897
0.005047658755856332391 5.33699958361809923 0.005047658755856332391 5.36991957286140664
0.006354625877790454069 6.71444883004347393 0.006354625877790454069 6.75202279326453780
0.008000000000009777068 8.44621645277471345 0.008000000000009777068 8.48758644554284913
0.010071403294361402914 10.62280316612697639 0.010071403294361402914 10.66578634495218481
0.012679145539692626699 13.35748056573100051 0.012679145539692626699 13.39763705377836267
0.015962098519750611558 16.79183340983373185 0.015962098519750611558 16.82097984413069369
0.020095091452091651263 21.10254847061001726 0.020095091452091651263 21.10640963299632489
0.025298221281360611101 26.50967317726743033 0.025298221281360611101 26.46420076528782417
0.031848573644296607199 33.28657350454750485 0.031848573644296607199 33.15221502498487638
0.040094978690191851456 41.77180271728823868 0.040094978690191851456 41.48463590126187484
0.050476587558435426217 52.38303261611593342 0.050476587558435426217 51.84113744459603623
0.063546258777947173257 65.63306959901251503 0.063546258777947173257 64.67571770858364744
0.080000000000012505552 82.14773947230922602 0.080000000000012505552 80.52384499991713085
0.100714032943542974863 102.68502196379074576 0.100714032943542974863 100.00570575456359279
0.126791455396883634421 128.15417429140305217 0.126791455396883634421 123.82212528522124728
0.159620985197506115583 159.63261057953880595 0.159620985197506115583 152.73808769172569555
0.200950914520774404082 198.37689589387767342 0.200950914520774404082 187.54668698661268422
0.252982212813464002465 245.82227141035471618 0.252982212813464002465 229.00389118469138339
0.318485736442809752589 303.56259707918115964 0.318485736442809752589 277.72203529017696155
0.400949786901833249431 373.29955335502262415 0.400949786901833249431 334.00834045513965975
0.504765875584169521062 456.74675416354710933 0.504765875584169521062 397.63593832522423099
0.635462587779443310865 555.47210236841419828 0.635462587779443310865 467.54291449553244320
0.800000000000011368684 670.66255170964257104 0.800000000000011368684 541.47706331494782717
1.007140329435344483500 802.80382162527985201 1.007140329435344483500 615.65027756658980707
1.267914553968907398485 951.29030779685842845 1.267914553968907398485 684.54235736773739518
1.596209851975117999245 1114.02404941840427455 1.596209851975117999245 741.08239795580914233
2.009509145207687197399 1287.12424807082493317 2.009509145207687197399 777.47237774014320166
2.529822128134725289783 1464.92634861971305327 2.529822128134725289783 786.79079941655857056
3.184857364427983839050 1640.44852347124833614 3.184857364427983839050 765.14173834533823992
4.009497869018204596614 1806.38350599364503069 4.009497869018204596614 713.71602767197634876
5.009497869018190385759 1951.78981793118623500 5.009497869018190385759 642.04315592274292612
6.009497869018190385759 2056.93207832988082373 6.009497869018190385759 573.69735180968962140
7.009497869018204596614 2135.52613998104925486 7.009497869018204596614 513.77813159529614495
8.009497869018190385759 2196.07217000630680559 8.009497869018190385759 463.44390195418094436
9.009497869018204596614 2243.99505069344286312 9.009497869018204596614 422.46338242026268972
10.009497869018190385759 2282.85174195880517800 10.009497869018190385759 389.46784424133630864
11.009497869018190385759 2315.03767629940875850 11.009497869018190385759 361.58767584075695822
12.009497869018204596614 2342.20296981269257230 12.009497869018204596614 338.72446424844474677
13.009497869018190385759 2365.51053878468928815 13.009497869018190385759 319.91719353760998956
14.009497869018204596614 2385.79687122721907144 14.009497869018204596614 304.37538409024023167
15.009497869018190385759 2403.67521476657702806 15.009497869018190385759 291.46048760248811504
16.009497869018190385759 2419.60319347888344055 16.009497869018190385759 280.66259436481095690
17.009497869018204596614 2433.92800777315005689 17.009497869018204596614 271.81713686450126488
18.009497869018190385759 2446.91722575018775387 18.009497869018190385759 264.08178471435979873
19.009497869018204596614 2458.78060634027997367 19.009497869018204596614 257.80233082795945165
20.009497869018190385759 2469.68350699270968107 20.009497869018190385759 252.09641800428875058
21.009497869018190385759 2479.75883618147054221 21.009497869018190385759 247.17597143609938826
22.009497869018204596614 2489.11533435936780734 22.009497869018204596614 242.90409038542134113
23.009497869018190385759 2497.84104909461620991 23.009497869018190385759 239.28768848981340511
24.009497869018204596614 2506.00984600237825362 24.009497869018204596614 235.99521736210860468
25.009497869018204596614 2513.68331219007131949 25.009497869018204596614 233.08653809537378265
26.009497869018190385759 2520.91331892429661821 26.009497869018190385759 230.62761970579168747
27.009497869018204596614 2527.74438428819121327 27.009497869018204596614 228.30442524065725252
28.009497869018190385759 2534.21430524020343000 28.009497869018190385759 226.22253273659066508
29.009497869018190385759 2540.35607230438426996 29.009497869018190385759 224.40158601756360213
30.009497869018190385759 2546.19821539991426107 30.009497869018190385759 222.69627312615622827
31.009497869018218807469 2551.76563888408827552 31.009497869018218807469 221.14567195532251276
32.009497869018190385759 2557.08059195981513767 32.009497869018190385759 219.73153038548727523
33.009497869018190385759 2562.16220384385997022 33.009497869018190385759 218.48861970213539507
34.009497869018218807469 2567.02814229726891426 34.009497869018218807469 217.28855806020624186
35.009497869018190385759 2571.69361970792715510 35.009497869018190385759 216.21048621791410937
36.009497869018190385759 2576.17251558019597724 36.009497869018190385759 215.18192267537190787
37.009497869018190385759 2580.47751212002549437 37.009497869018190385759 214.22624359018701057
38.009497869018218807469 2584.61966271702021913 38.009497869018218807469 213.33647316169353303
39.009497869018190385759 2588.60929176878653379 39.009497869018190385759 212.52069521486055237
40.009497869018190385759 2592.45579157543443216 40.009497869018190385759 211.78641616555938754
41.009497869018218807469 2596.16751292666913287 41.009497869018218807469 211.03166311792236343
42.009497869018190385759 2599.75228431543700935 42.009497869018190385759 210.35174568234540970
43.009497869018190385759 2603.21732593617616658 43.009497869018190385759 209.68278197835365972
44.009497869018218807469 2606.56907679121286492 44.009497869018218807469 209.07475120180987460
46.009497869018190385759 2612.95658652698193691 46.009497869018190385759 207.94653001652312696
48.009497869018218807469 2618.95801287581389261 48.009497869018218807469 206.90672629376638270
50.009497869018190385759 2624.61049106181690149 50.009497869018190385759 205.97434087366931976
52.009497869018190385759 2629.94615243002363059 52.009497869018190385759 205.11774156382128353
54.009497869018218807469 2634.99311793300785212 54.009497869018218807469 204.31661330531687781
56.009497869018190385759 2639.77596413079982085 56.009497869018190385759 203.57601080852239761
58.009497869018218807469 2644.31646582997063888 58.009497869018218807469 202.91333501973622333
60.009497869018190385759 2648.63387487034196965 60.009497869018190385759 202.26879826193390954
62.009497869018190385759 2652.74534869682247518 62.009497869018190385759 201.66666732127561090
64.009497869018218807469 2656.66626260664133952 64.009497869018218807469 201.10196719980930880
66.009497869018190385759 2660.41035083021688479 66.009497869018190385759 200.57642651424154678
68.009497869018190385759 2663.99007762394012389 68.009497869018190385759 200.08497740960663691
70.009497869018190385759 2667.41662443180712216 70.009497869018190385759 199.61017982345461519
72.009497869018190385759 2670.70017504491261207 72.009497869018190385759 199.16504243158010468
74.009497869018218807469 2673.85000128153478727 74.009497869018218807469 198.74010749272341059
76.009497869018190385759 2676.87450693107348343 76.009497869018190385759 198.33590313124730642
78.009497869018190385759 2679.78141658654840285 78.009497869018190385759 197.95262975953900764
80.009497869018218807469 2682.57779743940773187 80.009497869018218807469 197.58544751255661254
82.009497869018190385759 2685.27011361704444425 82.009497869018190385759 197.23390131926711888
84.009497869018218807469 2687.86434658279722498 84.009497869018218807469 196.89448886861930532
86.009497869018190385759 2690.36600706366925806 86.009497869018190385759 196.57339127047919192
88.009497869018190385759 2692.78016113160174427 88.009497869018190385759 196.26174297176703476
91.009497869018218807469 2696.24752535480047300 91.009497869018218807469 195.81909561290257216
94.009497869018218807469 2699.54298780949284264 94.009497869018218807469 195.40062575991385074
97.009497869018218807469 2702.67947776639311996 97.009497869018218807469 195.00764824456786073
99.504748934509137825444 2705.17558573095493557 99.504748934509137825444 194.64029595049223076
nan nan nan nan

