Time Pressure difference Time.1 Pressure.1 difference.1
(hr) (psi) (hr) (psi)
0.000200000000020850166 0.22206900288190320 0.000200000000020850166 0.17700052211490330
0.000399999999999067768 0.44405902767316630 0.000399999999999067768 0.46352914194232719
0.000600000000019917934 0.66598245600245665 0.000600000000019917934 0.67829360186380305
0.000799999999998135536 0.88784457412379014 0.000799999999998135536 0.89700026660239518
0.001007140329434719206 1.11756695317247057 0.001007140329434719206 1.12666266897348888
0.001267914553977789183 1.40668649730076178 0.001267914553977789183 1.41792975991318659
0.001596209851982166583 1.77053916716307436 0.001596209851982166583 1.78437721042022379
0.002009509145224797066 2.22840899059564235 0.002009509145224797066 2.24534719688614492
0.002529822128153114136 2.80453825197527262 0.002529822128153114136 2.82512447836779934
0.003184857364431081805 3.52939281815292638 0.003184857364431081805 3.55418121633606621
0.004009497869034817086 4.44124522324080218 0.004009497869034817086 4.47072542572970555
0.005047658755856332391 5.58815250520012707 0.005047658755856332391 5.62262167040782668
0.006354625877790454069 7.03042289263375419 0.006354625877790454069 7.06976504235933945
0.008000000000009777068 8.84368546231705288 0.008000000000009777068 8.88700227827427724
0.010071403294361402914 11.12269978570942186 0.010071403294361402914 11.16770570236169924
0.012679145539692626699 13.98606788647128418 0.012679145539692626699 14.02811409160322498
0.015962098519750611558 17.58203733500237931 0.015962098519750611558 17.61255536620743101
0.020095091452091651263 22.09560957510931090 0.020095091452091651263 22.09965243925497802
0.025298221281360611101 27.75718720913883431 0.025298221281360611101 27.70957491894842661
0.031848573644296607199 34.85300049299679870 0.031848573644296607199 34.71231926145475910
0.040094978690191851456 43.73753460986650765 0.040094978690191851456 43.43685406132126303
0.050476587558435426217 54.84811650393314864 0.050476587558435426217 54.28072038316526005
0.063546258777947173257 68.72168463896603896 0.063546258777947173257 67.71928089486993940
0.080000000000012505552 86.01351544747672051 0.080000000000012505552 84.31320241167793483
0.100714032943542974863 107.51725829149854974 0.100714032943542974863 104.71185661360188135
0.126791455396883634421 134.18495896393966405 0.126791455396883634421 129.64904882805518582
0.159620985197506115583 167.14473343034063646 0.159620985197506115583 159.92576240663044018
0.200950914520774404082 207.71227923006017591 0.200950914520774404082 196.37241343304151542
0.252982212813464002465 257.39037830025381481 0.252982212813464002465 239.78054488750038331
0.318485736442809752589 317.84789576526026167 0.318485736442809752589 290.79130753912647833
0.400949786901833249431 390.86659115996479841 0.400949786901833249431 349.72638000596975871
0.504765875584169521062 478.24071906536107690 0.504765875584169521062 416.34821777582300228
0.635462587779443310865 581.61196600928076350 0.635462587779443310865 489.54493400120452407
0.800000000000011368684 702.22314237833154493 0.800000000000011368684 566.95833688271000028
1.007140329435344483500 840.58282499588119663 1.007140329435344483500 644.62205533442931937
1.267914553968907398485 996.05691051671055902 1.267914553968907398485 716.75611536151325254
1.596209851975117999245 1166.44871056750548632 1.596209851975117999245 775.95686374196486668
2.009509145207687197399 1347.69480092121648340 2.009509145207687197399 814.05931316320868518
2.529822128134725289783 1533.86405914299348296 2.529822128134725289783 823.81624880086724261
3.184857364427983839050 1717.64610104636585675 3.184857364427983839050 801.14840838511884158
4.009497869018204596614 1891.38978862863996255 4.009497869018204596614 747.30266426830462478
5.009497869018190385759 2043.63875053971264606 5.009497869018190385759 672.25695149557782315
6.009497869018190385759 2153.72888201599289459 6.009497869018190385759 600.69487424779265439
7.009497869018204596614 2236.02148774486295224 7.009497869018204596614 537.95592602331021226
8.009497869018190385759 2299.41674271248575678 8.009497869018190385759 485.25302675202476621
9.009497869018204596614 2349.59481778489907811 9.009497869018204596614 442.34401218121627153
10.009497869018190385759 2390.28005922745478529 10.009497869018190385759 407.79574279386980606
11.009497869018190385759 2423.98062577232167314 11.009497869018190385759 378.60356646855734652
12.009497869018204596614 2452.42428603917187502 12.009497869018204596614 354.66443903660683645
13.009497869018190385759 2476.82868178632179479 13.009497869018190385759 334.97212029232105124
14.009497869018204596614 2498.06966516732336459 14.009497869018204596614 318.69893157683975460
15.009497869018190385759 2516.78934252029785057 15.009497869018190385759 305.17627525436995484
16.009497869018190385759 2533.46687317200712641 16.009497869018190385759 293.87024586433147988
17.009497869018204596614 2548.46579637423928943 17.009497869018204596614 284.60853154047777025
18.009497869018190385759 2562.06627166784392102 18.009497869018190385759 276.50916281856495971
19.009497869018204596614 2574.48792899158706859 19.009497869018204596614 269.93420521986342919
20.009497869018190385759 2585.90390732177866084 20.009497869018190385759 263.95977885154934484
21.009497869018190385759 2596.45336964883381370 21.009497869018190385759 258.80778185662177293
22.009497869018204596614 2606.25017362333846904 22.009497869018204596614 254.33487110944116694
23.009497869018190385759 2615.38651022848034700 23.009497869018190385759 250.54828559521638454
24.009497869018204596614 2623.93972110837239597 24.009497869018204596614 247.10087464973724991
25.009497869018204596614 2631.97429158725117304 25.009497869018204596614 244.05531635868547369
26.009497869018190385759 2639.54453393249923465 26.009497869018190385759 241.48068416253482837
27.009497869018204596614 2646.69706119587044668 27.009497869018204596614 239.04816289904115933
28.009497869018190385759 2653.47144901621322788 28.009497869018190385759 236.86829898301846242
29.009497869018190385759 2659.90224041282590406 29.009497869018190385759 234.96166065368421982
30.009497869018190385759 2666.01930788932213545 30.009497869018190385759 233.17609774385769583
31.009497869018218807469 2671.84872777275131739 31.009497869018218807469 231.55252710616119316
32.009497869018190385759 2677.41379628733557183 32.009497869018190385759 230.07183769774550797
33.009497869018190385759 2682.73454284827721494 33.009497869018190385759 228.77043709988294040
34.009497869018218807469 2687.82946664067003439 34.009497869018218807469 227.51390196892182871
35.009497869018190385759 2692.71449592947647034 35.009497869018190385759 226.38509733405120983
36.009497869018190385759 2697.40416337220540299 36.009497869018190385759 225.30813080127174430
37.009497869018190385759 2701.91174798449765149 37.009497869018190385759 224.30747858266641970
38.009497869018218807469 2706.24882331546814385 38.009497869018218807469 223.37583660459677048
39.009497869018190385759 2710.42619961672926365 39.009497869018190385759 222.52166910732458405
40.009497869018190385759 2714.45371117898457669 40.009497869018190385759 221.75283574982100276
41.009497869018218807469 2718.34010177027766986 41.009497869018218807469 220.96256491170697700
42.009497869018190385759 2722.09356828322233923 42.009497869018190385759 220.25065136151459910
43.009497869018190385759 2725.72167068611361174 43.009497869018190385759 219.55020701262913008
44.009497869018218807469 2729.23115099315191401 44.009497869018218807469 218.91356302307150372
46.009497869018190385759 2735.91924942236937568 46.009497869018190385759 217.73224907612421930
48.009497869018218807469 2742.20309583467587800 48.009497869018218807469 216.64351341347304469
50.009497869018190385759 2748.12157299413775036 50.009497869018190385759 215.66725103243021522
52.009497869018190385759 2753.70832430908376409 52.009497869018190385759 214.77034116682463605
54.009497869018218807469 2758.99279407103131234 54.009497869018218807469 213.93151275497882580
56.009497869018190385759 2764.00071538401380167 56.009497869018190385759 213.15605837598224070
58.009497869018218807469 2768.75488775138137498 58.009497869018218807469 212.46219784419437815
60.009497869018190385759 2773.27546898188711566 60.009497869018190385759 211.78732994484846586
62.009497869018190385759 2777.58042392961397127 62.009497869018190385759 211.15686343051208951
64.009497869018218807469 2781.68585143518930636 64.009497869018218807469 210.56558918568271110
66.009497869018190385759 2785.60613204575656709 66.009497869018190385759 210.01531717373526931
68.009497869018190385759 2789.35431657094932234 68.009497869018190385759 209.50074105241165512
70.009497869018190385759 2792.94211264036266584 70.009497869018190385759 209.00360005044072409
72.009497869018190385759 2796.38018328232055865 72.009497869018190385759 208.53751501659567680
74.009497869018218807469 2799.67823663595981998 74.009497869018218807469 208.09258313943979601
76.009497869018190385759 2802.84507196312370070 76.009497869018190385759 207.66935739624716462
78.009497869018190385759 2805.88877736709218880 78.009497869018190385759 207.26804763057614878
80.009497869018218807469 2808.81675261302734725 80.009497869018218807469 206.88358621902989398
82.009497869018190385759 2811.63576602255216130 82.009497869018190385759 206.51549667546791511
84.009497869018218807469 2814.35208053963469865 84.009497869018218807469 206.16011187420139095
86.009497869018190385759 2816.97146621960655466 86.009497869018190385759 205.82390380085467996
88.009497869018190385759 2819.49922753779446793 88.009497869018190385759 205.49758969985018098
91.009497869018218807469 2823.12976184208491759 91.009497869018218807469 205.03411187703918017
94.009497869018218807469 2826.58030488288068227 94.009497869018218807469 204.59594932508628062
97.009497869018218807469 2829.86439436716455020 97.009497869018218807469 204.18447875019455751
99.504748934509137825444 2832.47796623594103949 99.504748934509137825444 203.79983928933893367
nan nan nan nan

