Time Pressure difference Time.1 Pressure.1 difference.1
(hr) (psi) (hr) (psi)
0.000200000000020850166 0.36928328569125474 0.000200000000020850166 0.29433794688770437
0.000399999999999067768 0.73843523702953506 0.000399999999999067768 0.77081250570184756
0.000600000000019917934 1.10747644368947840 0.000600000000019917934 1.12794891096452643
0.000799999999998135536 1.47641569629574088 0.000799999999998135536 1.49164089277701661
0.001007140329434719206 1.85842594460141175 0.001007140329434719206 1.87355140458512737
0.001267914553977789183 2.33920900674733367 0.001267914553977789183 2.35790566817024283
0.001596209851982166583 2.94426737910264036 0.001596209851982166583 2.96727895665385510
0.002009509145224797066 3.70566888323769739 0.002009509145224797066 3.73383578808033034
0.002529822128153114136 4.66372653137461057 0.002529822128153114136 4.69795980672398095
0.003184857364431081805 5.86910266389475410 0.003184857364431081805 5.91032382042402116
0.004009497869034817086 7.38544149482740142 0.004009497869034817086 7.43446475289883679
0.005047658755856332391 9.29265809853504265 0.005047658755856332391 9.34997760921750931
0.006354625877790454069 11.69104031584040015 0.006354625877790454069 11.75646321650766701
0.008000000000009777068 14.70635335306656089 0.008000000000009777068 14.77838581106284188
0.010071403294361402914 18.49617492455050183 0.010071403294361402914 18.57101622415203934
0.012679145539692626699 23.25773086739044970 0.012679145539692626699 23.32765039951997110
0.015962098519750611558 29.23754523123990978 0.015962098519750611558 29.28829431683932327
0.020095091452091651263 36.74326086647391065 0.020095091452091651263 36.74998383157007709
0.025298221281360611101 46.15801917924211040 0.025298221281360611101 46.07884368544232956
0.031848573644296607199 57.95779857262389356 0.031848573644296607199 57.72385674938544042
0.040094978690191851456 72.73208002539598738 0.040094978690191851456 72.23207192219716433
0.050476587558435426217 91.20810384923714764 0.050476587558435426217 90.26456872706134504
0.063546258777947173257 114.27875647828061290 0.063546258777947173257 112.61183789259270327
0.080000000000012505552 143.03371108119725363 0.080000000000012505552 140.20622423514981847
0.100714032943542974863 178.79274412518859094 0.100714032943542974863 174.12758178441663404
0.126791455396883634421 223.13903288385469637 0.126791455396883634421 215.59617108485579706
0.159620985197506115583 277.94854547966752989 0.159620985197506115583 265.94396445147532404
0.200950914520774404082 345.40918343875171104 0.200950914520774404082 326.55187851786678266
0.252982212813464002465 428.01995492626468831 0.252982212813464002465 398.73618700393325298
0.318485736442809752589 528.55605138492717288 0.318485736442809752589 483.56307321113160924
0.400949786901833249431 649.98039878286283511 0.400949786901833249431 581.56746338071377522
0.504765875584169521062 795.27670136711731175 0.504765875584169521062 692.35433967215510620
0.635462587779443310865 967.17495471206245838 0.635462587779443310865 814.07472170986818583
0.800000000000011368684 1167.74185474149521724 0.800000000000011368684 942.80712200720313376
1.007140329435344483500 1397.82312471225191075 1.007140329435344483500 1071.95577741006241013
1.267914553968907398485 1656.36430063452985451 1.267914553968907398485 1191.90904576970751805
1.596209851975117999245 1939.71246251675074745 1.596209851975117999245 1290.35523408776180077
2.009509145207687197399 2241.11045546449486210 2.009509145207687197399 1353.71661065342573238
2.529822128134725289783 2550.69528936138249264 2.529822128134725289783 1369.94162721941961536
3.184857364427983839050 2856.31037027935008155 3.184857364427983839050 1332.24679147188317074
4.009497869018204596614 3145.23245749481657185 4.009497869018204596614 1242.70555406414700883
5.009497869018190385759 3398.41050651547720918 5.009497869018190385759 1117.91043619489369121
6.009497869018190385759 3581.48173638614525771 6.009497869018190385759 998.90833020981233403
7.009497869018204596614 3718.32786726112135511 7.009497869018204596614 894.57839383651582921
8.009497869018190385759 3823.74919012862801537 8.009497869018190385759 806.93761752022089695
9.009497869018204596614 3907.19138238387768070 9.009497869018204596614 735.58330115528099213
10.009497869018190385759 3974.84773894003774330 10.009497869018190385759 678.13224644373849515
11.009497869018190385759 4030.88913049779375797 11.009497869018190385759 629.58795322861215027
12.009497869018204596614 4078.18870037974693332 12.009497869018204596614 589.77906716199788661
13.009497869018190385759 4118.77129106039956241 13.009497869018190385759 557.03228992430911148
14.009497869018204596614 4154.09337578386384848 14.009497869018204596614 529.97125700418303040
15.009497869018190385759 4185.22272688768680382 15.009497869018190385759 507.48414311962648071
16.009497869018190385759 4212.95614864558501722 16.009497869018190385759 488.68310548225900902
17.009497869018204596614 4237.89817824030888005 17.009497869018204596614 473.28160301113160813
18.009497869018190385759 4260.51469895326772530 18.009497869018190385759 459.81298985559118364
19.009497869018204596614 4281.17093809836933360 19.009497869018204596614 448.87935250044705526
20.009497869018190385759 4300.15481217554133764 20.009497869018190385759 438.94435134864392012
21.009497869018190385759 4317.69773829244240915 21.009497869018190385759 430.37698555932604449
22.009497869018204596614 4333.98905276689947641 22.009497869018204596614 422.93888678873355502
23.009497869018190385759 4349.18206195297898375 23.009497869018190385759 416.64209289991038077
24.009497869018204596614 4363.40537892178781476 24.009497869018204596614 410.90931964225967477
25.009497869018204596614 4376.76623769565321709 25.009497869018204596614 405.84479574253316514
26.009497869018190385759 4389.35495530348180182 26.009497869018190385759 401.56338489949609993
27.009497869018204596614 4401.24904558414436906 27.009497869018204596614 397.51829336020324490
28.009497869018190385759 4412.51431971235433593 28.009497869018190385759 393.89335111782844479
29.009497869018190385759 4423.20822001233955234 29.009497869018190385759 390.72276153646367902
30.009497869018190385759 4433.38042210808544041 30.009497869018190385759 387.75351085495435655
31.009497869018218807469 4443.07428888052982074 31.009497869018218807469 385.05364058103208436
32.009497869018190385759 4452.32856011826606846 32.009497869018190385759 382.59137055355432722
33.009497869018190385759 4461.17654316342668608 33.009497869018190385759 380.42724371665929084
34.009497869018218807469 4469.64900070583280467 34.009497869018218807469 378.33772462247674184
35.009497869018190385759 4477.77242019733239431 35.009497869018190385759 376.46061129707391046
36.009497869018190385759 4485.57096830434147705 36.009497869018190385759 374.66970065829457326
37.009497869018190385759 4493.06672698545662570 37.009497869018190385759 373.00569472173742724
38.009497869018218807469 4500.27894214257594285 38.009497869018218807469 371.45644738741930269
39.009497869018190385759 4507.22559037388691650 39.009497869018190385759 370.03603402116897314
40.009497869018190385759 4513.92302533134534315 40.009497869018190385759 368.75752461767990553
41.009497869018218807469 4520.38578721349495027 41.009497869018218807469 367.44336637002953694
42.009497869018190385759 4526.62750680805493175 42.009497869018190385759 366.25951012926026351
43.009497869018190385759 4532.66075574769547529 43.009497869018190385759 365.09472626819223251
44.009497869018218807469 4538.49674547175891348 44.009497869018218807469 364.03603738668067535
46.009497869018190385759 4549.61852712933341536 46.009497869018190385759 362.07160520524024605
48.009497869018218807469 4560.06806947788845719 48.009497869018218807469 360.26112342914615283
50.009497869018190385759 4569.91003149586958898 50.009497869018190385759 358.63767587415361504
52.009497869018190385759 4579.20035952521720901 52.009497869018190385759 357.14618531112415667
54.009497869018218807469 4587.98801710688439925 54.009497869018218807469 355.75127963749292803
56.009497869018190385759 4596.31579636892183771 56.009497869018190385759 354.46175999601541662
58.009497869018218807469 4604.22161109218450292 58.009497869018218807469 353.30792450495249568
60.009497869018190385759 4611.73898212718358991 60.009497869018190385759 352.18567226783790147
62.009497869018190385759 4618.89778361328990286 62.009497869018190385759 351.13725604175044737
64.009497869018218807469 4625.72478665626931615 64.009497869018218807469 350.15401347731506121
66.009497869018190385759 4632.24390497496642638 66.009497869018190385759 349.23895440126767653
68.009497869018190385759 4638.47684103933170263 68.009497869018190385759 348.38325478378567368
70.009497869018190385759 4644.44306371655875409 70.009497869018190385759 347.55654839848568827
72.009497869018190385759 4650.16030478408356430 72.009497869018190385759 346.78148564557483269
74.009497869018218807469 4655.64470811373121251 74.009497869018218807469 346.04159892850663027
76.009497869018190385759 4660.91090618586895289 76.009497869018190385759 345.33780780499529328
78.009497869018190385759 4665.97234888010825671 78.009497869018190385759 344.67046122837376743
80.009497869018218807469 4670.84134142391030764 80.009497869018218807469 344.03113213951036187
82.009497869018190385759 4675.52913900379462575 82.009497869018190385759 343.41902817942980164
84.009497869018218807469 4680.04615640298743529 84.009497869018218807469 342.82805120653711128
86.009497869018190385759 4684.40198876968315744 86.009497869018190385759 342.26896362389322803
88.009497869018190385759 4688.60545702914168942 88.009497869018190385759 341.72632893907672269
91.009497869018218807469 4694.64275002953490912 91.009497869018218807469 340.95560177305389971
94.009497869018218807469 4700.38073171535143047 94.009497869018218807469 340.22697191137939399
97.009497869018218807469 4705.84191422854382836 97.009497869018218807469 339.54272870818869023
99.504748934509137825444 4710.18807868448675436 99.504748934509137825444 338.90310353732769499
nan nan nan nan

