Time Pressure difference Time.1 Pressure.1 difference.1
(hr) (psi) (hr) (psi)
0.000200000000020850166 0.61796730015450962 0.000200000000020850166 0.49255201472424404
0.000399999999999067768 1.23571482232645158 0.000399999999999067768 1.28989570210917281
0.000600000000019917934 1.85327702175964526 0.000600000000019917934 1.88753612803298010
0.000799999999998135536 2.47066860889129636 0.000799999999998135536 2.49614680930928667
0.001007140329434719206 3.10993350639380361 0.001007140329434719206 3.13524480542060768
0.001267914553977789183 3.91448714417402988 0.001267914553977789183 3.94577457533894238
0.001596209851982166583 4.92700599701185116 0.001596209851982166583 4.96551410989597830
0.002009509145224797066 6.20115310866128144 0.002009509145224797066 6.24828826699028372
0.002529822128153114136 7.80438921804354990 0.002529822128153114136 7.86167598287368818
0.003184857364431081805 9.82149387223829251 0.003184857364431081805 9.89047432111497038
0.004009497869034817086 12.35897078976747387 0.004009497869034817086 12.44100745811674713
0.005047658755856332391 15.55055172795391272 0.005047658755856332391 15.64647153974911831
0.006354625877790454069 19.56406070871490144 0.006354625877790454069 19.67354092311980907
0.008000000000009777068 24.60995617416318382 0.008000000000009777068 24.73049697662092683
0.010071403294361402914 30.95193236247978419 0.010071403294361402914 31.07717354627244077
0.012679145539692626699 38.92003160916915050 0.012679145539692626699 39.03703659198949794
0.015962098519750611558 48.92679303335867047 0.015962098519750611558 49.01171774191806207
0.020095091452091651263 61.48703338691468190 0.020095091452091651263 61.49828375418145043
0.025298221281360611101 77.24191047337137661 0.025298221281360611101 77.10941634748569129
0.031848573644296607199 96.98793770148547821 0.031848573644296607199 96.59645397475986783
0.040094978690191851456 121.71156634880455272 0.040094978690191851456 120.87484107701010316
0.050476587558435426217 152.62977738734954869 0.050476587558435426217 151.05084361307785912
0.063546258777947173257 191.23674789045605849 0.063546258777947173257 188.44728728422609265
0.080000000000012505552 239.35596246245393104 0.080000000000012505552 234.62437974485658287
0.100714032943542974863 299.19596595724124199 0.100714032943542974863 291.38917402212064189
0.126791455396883634421 373.40608430789200156 0.126791455396883634421 360.78368269380149513
0.159620985197506115583 465.12560651214636209 0.159620985197506115583 445.03685943118500745
0.200950914520774404082 578.01581823196511323 0.200950914520774404082 546.45956247471849565
0.252982212813464002465 716.25861826624930018 0.252982212813464002465 667.25447509892433118
0.318485736442809752589 884.49807697973176346 0.318485736442809752589 809.20577341412342776
0.400949786901833249431 1087.69242408934042032 0.400949786901833249431 973.20861552223038871
0.504765875584169521062 1330.83466017064893094 0.504765875584169521062 1158.60196931624159333
0.635462587779443310865 1618.49322376365421405 0.635462587779443310865 1362.29170772619841046
0.800000000000011368684 1954.12657223633073045 0.800000000000011368684 1577.71552173727923218
1.007140329435344483500 2339.14995869640324599 1.007140329435344483500 1793.83590679206395180
1.267914553968907398485 2771.79881840417965577 1.267914553968907398485 1994.56851578128998881
1.596209851975117999245 3245.96026948185999572 1.596209851975117999245 2159.31067325947560676
2.009509145207687197399 3750.32673065342305563 2.009509145207687197399 2265.34108494480960871
2.529822128134725289783 4268.39324323312393972 2.529822128134725289783 2292.49240771177619536
3.184857364427983839050 4779.81667819269569009 3.184857364427983839050 2229.41298662975032130
4.009497869018204596614 5263.30566648344392888 4.009497869018204596614 2079.57258258932688477
5.009497869018190385759 5686.97974401126066368 5.009497869018190385759 1870.73750921803139136
6.009497869018190385759 5993.33542823176958336 6.009497869018190385759 1671.59659762587989462
7.009497869018204596614 6222.33694904282128846 7.009497869018204596614 1497.00843833452972831
8.009497869018190385759 6398.75146005759143009 8.009497869018190385759 1350.34831039982918810
9.009497869018204596614 6538.38557907932681701 9.009497869018204596614 1230.94232603237333024
10.009497869018190385759 6651.60331088389102661 10.009497869018190385759 1134.80238537769741924
11.009497869018190385759 6745.38428819788441615 11.009497869018190385759 1053.56722803797038068
12.009497869018204596614 6824.53649635619785840 12.009497869018204596614 986.95010563370374257
13.009497869018190385759 6892.44835418440834474 13.009497869018190385759 932.15088156252636509
14.009497869018204596614 6951.55715812479866145 14.009497869018204596614 886.86631521195488403
15.009497869018190385759 7003.64974341790821200 15.009497869018190385759 849.23585211234785675
16.009497869018190385759 7050.05950099925667018 16.009497869018190385759 817.77375534531176982
17.009497869018204596614 7091.79807755078672926 17.009497869018204596614 792.00052035421344954
18.009497869018190385759 7129.64509306819400081 18.009497869018190385759 769.46182761870318245
19.009497869018204596614 7164.21172749344259501 19.009497869018204596614 751.16522276538773895
20.009497869018190385759 7195.97978704150409612 20.009497869018190385759 734.53975912622172473
21.009497869018190385759 7225.33653052091267455 21.009497869018190385759 720.20292853734065375
22.009497869018204596614 7252.59879776082561875 22.009497869018204596614 707.75583982889429535
23.009497869018190385759 7278.02313520509687805 23.009497869018190385759 697.21863744286804376
24.009497869018204596614 7301.82476697947822686 24.009497869018204596614 687.62528039233995969
25.009497869018204596614 7324.18314100871702976 25.009497869018204596614 679.15018747004990018
26.009497869018190385759 7345.24939592451937642 26.009497869018190385759 671.98557428001265635
27.009497869018204596614 7365.15324520049398416 27.009497869018204596614 665.21642334826799470
28.009497869018190385759 7384.00481879792641848 28.009497869018190385759 659.15036009132097661
29.009497869018190385759 7401.90024204767632909 29.009497869018190385759 653.84462121980288885
30.009497869018190385759 7418.92264330249508930 30.009497869018190385759 648.87580757934927078
31.009497869018218807469 7435.14458702304909821 31.009497869018218807469 644.35778142276319613
32.009497869018190385759 7450.63090127898976789 32.009497869018190385759 640.23736108398850320
33.009497869018190385759 7465.43732335681670520 33.009497869018190385759 636.61586054386907563
34.009497869018218807469 7479.61533226223855308 34.009497869018218807469 633.11921034797342145
35.009497869018190385759 7493.20925271760734176 35.009497869018190385759 629.97800494082412115
36.009497869018190385759 7506.25952578857140907 36.009497869018190385759 626.98105312863265226
37.009497869018190385759 7518.80310394187927159 37.009497869018190385759 624.19646661768217655
38.009497869018218807469 7530.87219372057188593 38.009497869018218807469 621.60391983975796393
39.009497869018190385759 7542.49687758513118752 39.009497869018190385759 619.22696684173092763
40.009497869018190385759 7553.70452211979500134 40.009497869018190385759 617.08747925886518715
41.009497869018218807469 7564.51945923339371802 41.009497869018218807469 614.88833606516197960
42.009497869018190385759 7574.96449900537209032 42.009497869018190385759 612.90724330189277680
43.009497869018190385759 7585.06067910031015344 43.009497869018190385759 610.95806670555600704
44.009497869018218807469 7594.82676100341541314 44.009497869018218807469 609.18643193311652340
46.009497869018190385759 7613.43821093940186984 46.009497869018190385759 605.89910510696745405
48.009497869018218807469 7630.92471986952841689 48.009497869018218807469 602.86940249517022039
50.009497869018190385759 7647.39448964286202681 50.009497869018190385759 600.15268732994627499
52.009497869018190385759 7662.94114217846163228 52.009497869018190385759 597.65679208595770433
54.009497869018218807469 7677.64661421264554519 54.009497869018218807469 595.32252425823696740
56.009497869018190385759 7691.58251509483943664 56.009497869018190385759 593.16461188522396242
58.009497869018218807469 7704.81229063399314327 58.009497869018218807469 591.23375654770200072
60.009497869018190385759 7717.39203540652488300 60.009497869018190385759 589.35575336712508943
62.009497869018190385759 7729.37174149701604620 62.009497869018190385759 587.60130909689314649
64.009497869018218807469 7740.79620830091880634 64.009497869018218807469 585.95592795866014058
66.009497869018190385759 7751.70545359549487330 66.009497869018190385759 584.42464666698617748
68.009497869018190385759 7762.13579480230418994 68.009497869018190385759 582.99269888367734893
70.009497869018190385759 7772.11981157973514200 70.009497869018190385759 581.60926905422275013
72.009497869018190385759 7781.68717669949000992 72.009497869018190385759 580.31226088887854075
74.009497869018218807469 7790.86490569482521096 74.009497869018218807469 579.07411712585690111
76.009497869018190385759 7799.67748490112717263 76.009497869018190385759 577.89637657457535624
78.009497869018190385759 7808.14742166198357154 78.009497869018190385759 576.77962318171569223
80.009497869018218807469 7816.29530783325481025 80.009497869018218807469 575.70975490913565409
82.009497869018190385759 7824.13997810770342767 82.009497869018190385759 574.68544580476657302
84.009497869018218807469 7831.69886082752327638 84.009497869018218807469 573.69649109562408285
86.009497869018190385759 7838.98801273845674586 86.009497869018190385759 572.76090083908252382
88.009497869018190385759 7846.02219498344948079 88.009497869018190385759 571.85284324714871218
91.009497869018218807469 7856.12514250437834562 91.009497869018218807469 570.56309035445735844
94.009497869018218807469 7865.72721546059983666 94.009497869018218807469 569.34378407692554447
97.009497869018218807469 7874.86608619776507112 97.009497869018218807469 568.19875547338790511
99.504748934509137825444 7882.13905960039119236 99.504748934509137825444 567.12839173025770378
nan nan nan nan

