Time Pressure difference Time.1 Pressure.1 difference.1
(hr) (psi) (hr) (psi)
0.000200000000020850166 0.71444671713690966 0.000200000000020850166 0.56945111796517567
0.000399999999999067768 1.42863934371254642 0.000399999999999067768 1.49127914954479057
0.000600000000019917934 2.14261771425509462 0.000600000000019917934 2.18222548314983822
0.000799999999998135536 2.85639883585144494 0.000799999999998135536 2.88585479030508418
0.001007140329434719206 3.59546821264101935 0.001007140329434719206 3.62473120842032559
0.001267914553977789183 4.52563183963053994 0.001267914553977789183 4.56180398414017763
0.001596209851982166583 5.69622900596659498 0.001596209851982166583 5.74074915262536489
0.002009509145224797066 7.16930083491257264 0.002009509145224797066 7.22379491432658583
0.002529822128153114136 9.02284029380808761 0.002529822128153114136 9.08907088733310786
0.003184857364431081805 11.35486303667926578 0.003184857364431081805 11.43461297690142686
0.004009497869034817086 14.28850054967733740 0.004009497869034817086 14.38334509626148616
0.005047658755856332391 17.97836330324685150 0.005047658755856332391 18.08925848269783643
0.006354625877790454069 22.61847664708762196 0.006354625877790454069 22.74504933103622761
0.008000000000009777068 28.45215659973913347 0.008000000000009777068 28.59151669302473664
0.010071403294361402914 35.78426635177675763 0.010071403294361402914 35.92906066789775110
0.012679145539692626699 44.99637570965855105 0.012679145539692626699 45.13164795762985193
0.015962098519750611558 56.56543097665559117 0.015962098519750611558 56.66361445532653107
0.020095091452091651263 71.08662406374119769 0.020095091452091651263 71.09963088134840348
0.025298221281360611101 89.30121278146165764 0.025298221281360611101 89.14803316620485418
0.031848573644296607199 112.13006525649532819 0.031848573644296607199 111.67746159396867256
0.040094978690191851456 140.71364131039450740 0.040094978690191851456 139.74628329091746082
0.050476587558435426217 176.45892163624935733 0.050476587558435426217 174.63347868591370116
0.063546258777947173257 221.09335994334020370 0.063546258777947173257 217.86839808499357218
0.080000000000012505552 276.72513022240639202 0.080000000000012505552 271.25483472521108297
0.100714032943542974863 345.90758379175002801 0.100714032943542974863 336.88196565949067462
0.126791455396883634421 431.70366947574592587 0.126791455396883634421 417.11061027452961980
0.159620985197506115583 537.74279406989739982 0.159620985197506115583 514.51771500859751995
0.200950914520774404082 668.25785714839571483 0.200950914520774404082 631.77491812353048317
0.252982212813464002465 828.08365153527336133 0.252982212813464002465 771.42879422607802553
0.318485736442809752589 1022.58929761182992024 0.318485736442809752589 935.54207182063521486
0.400949786901833249431 1257.50712287044871118 0.400949786901833249431 1125.14966451358804989
0.504765875584169521062 1538.60965422151753046 0.504765875584169521062 1339.48733733869653406
0.635462587779443310865 1871.17857229203059433 0.635462587779443310865 1574.97789628102896131
0.800000000000011368684 2259.21228203365853915 0.800000000000011368684 1824.03449955898099688
1.007140329435344483500 2704.34699127888370640 1.007140329435344483500 2073.89642521451241919
1.267914553968907398485 3204.54264469608369836 1.267914553968907398485 2305.96817638779020854
1.596209851975117999245 3752.73199392317337697 1.596209851975117999245 2496.43050919231382068
2.009509145207687197399 4335.84207487387720903 2.009509145207687197399 2619.01479403444318450
2.529822128134725289783 4934.79111162483695807 2.529822128134725289783 2650.40508509342680554
3.184857364427983839050 5526.05992808549945039 3.184857364427983839050 2577.47746368096295555
4.009497869018204596614 6085.03306528839584644 4.009497869018204596614 2404.24340302050086393
5.009497869018190385759 6574.85275922701566742 5.009497869018190385759 2162.80419975543645705
6.009497869018190385759 6929.03786386418687471 6.009497869018190385759 1932.57264786087580433
7.009497869018204596614 7193.79197742635824397 7.009497869018204596614 1730.72711780533131787
8.009497869018190385759 7397.74899621732311061 8.009497869018190385759 1561.16985011231940916
9.009497869018204596614 7559.18332763006947062 9.009497869018204596614 1423.12174705492429894
10.009497869018190385759 7690.07704448083768511 10.009497869018190385759 1311.97207138552107608
11.009497869018190385759 7798.49946643604562269 11.009497869018190385759 1218.05417077337347109
12.009497869018204596614 7890.00921987883430120 12.009497869018204596614 1141.03652858593750352
13.009497869018190385759 7968.52373653352242400 13.009497869018190385759 1077.68184019139994234
14.009497869018204596614 8036.86083287914243556 14.009497869018204596614 1025.32727424908375724
15.009497869018190385759 8097.08631170388071041 15.009497869018190385759 981.82179941387187228
16.009497869018190385759 8150.74173803278790729 16.009497869018190385759 945.44771984067688209
17.009497869018204596614 8198.99670069464991684 17.009497869018204596614 915.65066888865317196
18.009497869018190385759 8242.75253693886770634 18.009497869018190385759 889.59314929268657579
19.009497869018204596614 8282.71584645607981656 19.009497869018204596614 868.44000855379283621
20.009497869018190385759 8319.44365688916877843 20.009497869018190385759 849.21891398307457166
21.009497869018190385759 8353.38368737209202664 21.009497869018190385759 832.64376260238987015
22.009497869018204596614 8384.90224397920428601 22.009497869018204596614 818.25338682775259258
23.009497869018190385759 8414.29592616578520392 23.009497869018190385759 806.07107612843014977
24.009497869018204596614 8441.81355967075614899 24.009497869018204596614 794.97996750608353977
25.009497869018204596614 8467.66260851478909899 25.009497869018204596614 785.18171068206311247
26.009497869018190385759 8492.01780767047421250 26.009497869018190385759 776.89853069519631390
27.009497869018204596614 8515.02912197473051492 27.009497869018204596614 769.07255404597879078
28.009497869018190385759 8536.82387529935112980 28.009497869018190385759 762.05943380678979793
29.009497869018190385759 8557.51320042927909526 29.009497869018190385759 755.92534270230248694
30.009497869018190385759 8577.19320403343772341 30.009497869018190385759 750.18077888379684737
31.009497869018218807469 8595.94777961345971562 31.009497869018218807469 744.95738121420401967
32.009497869018190385759 8613.85187644502366311 32.009497869018190385759 740.19366510248471513
33.009497869018190385759 8630.96993373284749396 33.009497869018190385759 736.00676205542868047
34.009497869018218807469 8647.36146758178074379 34.009497869018218807469 731.96420146555749398
35.009497869018190385759 8663.07772285925238975 35.009497869018190385759 728.33257906348319466
36.009497869018190385759 8678.16545444465918990 36.009497869018190385759 724.86773167899787040
37.009497869018190385759 8692.66738396510663733 37.009497869018190385759 721.64840487831622795
38.009497869018218807469 8706.62074617223697715 38.009497869018218807469 718.65109978782254530
39.009497869018190385759 8720.06032011524621339 39.009497869018190385759 715.90304780221651981
40.009497869018190385759 8733.01774495411154930 40.009497869018190385759 713.42953524006077259
41.009497869018218807469 8745.52115138827139162 41.009497869018218807469 710.88705340507965502
42.009497869018190385759 8757.59691069396285457 42.009497869018190385759 708.59666486719493150
43.009497869018190385759 8769.26934501637333597 43.009497869018190385759 706.34317537021877342
44.009497869018218807469 8780.56014495549788990 44.009497869018218807469 704.29494620531249893
46.009497869018190385759 8802.07728559481438424 46.009497869018190385759 700.49438934977797544
48.009497869018218807469 8822.29385513852685108 48.009497869018218807469 696.99167798566793408
50.009497869018190385759 8841.33494832196265634 50.009497869018190385759 693.85081886463501633
52.009497869018190385759 8859.30880367604186176 52.009497869018190385759 690.96525491499016880
54.009497869018218807469 8876.31015021354323835 54.009497869018218807469 688.26655227163610107
56.009497869018190385759 8892.42177720924337336 56.009497869018190385759 685.77173837066948181
58.009497869018218807469 8907.71703587429328763 58.009497869018218807469 683.53943051746432502
60.009497869018190385759 8922.26077848479872046 60.009497869018190385759 681.36822630196559203
62.009497869018190385759 8936.11080208066778141 62.009497869018190385759 679.33987148617939056
64.009497869018218807469 8949.31890031021612231 64.009497869018218807469 677.43760715543612605
66.009497869018190385759 8961.93133867904543877 66.009497869018190385759 675.66725637542549521
68.009497869018190385759 8973.99010462338992511 68.009497869018190385759 674.01174743079263862
70.009497869018190385759 8985.53286426243903406 70.009497869018190385759 672.41233124842165125
72.009497869018190385759 8996.59392299443061347 72.009497869018190385759 670.91282921069534950
74.009497869018218807469 9007.20451412093461840 74.009497869018218807469 669.48138171078198866
76.009497869018190385759 9017.39294687761503155 76.009497869018190385759 668.11976780290763145
78.009497869018190385759 9027.18524254057047074 78.009497869018190385759 666.82866260174125728
80.009497869018218807469 9036.60520784490654478 80.009497869018218807469 665.59176240504370980
82.009497869018190385759 9045.67461802761317813 82.009497869018190385759 664.40753424804097449
84.009497869018218807469 9054.41362241028582503 84.009497869018218807469 663.26418014958426284
86.009497869018190385759 9062.84078457918440108 86.009497869018190385759 662.18252196604566961
88.009497869018190385759 9070.97317024331641733 88.009497869018190385759 661.13269495195243053
91.009497869018218807469 9082.65342854813206941 91.009497869018218807469 659.64158090777777943
94.009497869018218807469 9093.75461383668334747 94.009497869018218807469 658.23191187359213927
97.009497869018218807469 9104.32028000522223010 97.009497869018218807469 656.90811702777955361
99.504748934509137825444 9112.72873781525777304 99.504748934509137825444 655.67064400577589822
nan nan nan nan

