Time Pressure difference Time.1 Pressure.1 difference.1
(hr) (psi) (hr) (psi)
0.000200000000020850166 0.77349877408303369 0.000200000000020850166 0.61651867253505643
0.000399999999999067768 1.54672245594024216 0.000399999999999067768 1.61453970788900492
0.000600000000019917934 2.31971417259282653 0.000600000000019917934 2.36259569188515650
0.000799999999998135536 3.09249233683567359 0.000799999999998135536 3.12438295108699426
0.001007140329434719206 3.89264893801647061 0.001007140329434719206 3.92433064473911797
0.001267914553977789183 4.89969454115995617 0.001267914553977789183 4.93885646711334658
0.001596209851982166583 6.16704653730958441 0.001596209851982166583 6.21524646326145458
0.002009509145224797066 7.76187401218706974 0.002009509145224797066 7.82087225881690795
0.002529822128153114136 9.76861638328465887 0.002529822128153114136 9.84032121678671778
0.003184857364431081805 12.29339071491468793 0.003184857364431081805 12.37973232656382727
0.004009497869034817086 15.46950583376009725 0.004009497869034817086 15.57218968512593982
0.005047658755856332391 19.46435142260718365 0.005047658755856332391 19.58441255984748608
0.006354625877790454069 24.48798985074678569 0.006354625877790454069 24.62502430484713756
0.008000000000009777068 30.80384823953130891 0.008000000000009777068 30.95472703668568570
0.010071403294361402914 38.74198801763956368 0.010071403294361402914 38.89875019923738364
0.012679145539692626699 48.71551735737188693 0.012679145539692626699 48.86197043142696828
0.015962098519750611558 61.24080420057007501 0.015962098519750611558 61.34710296094723248
0.020095091452091651263 76.96223559869537212 0.020095091452091651263 76.97631748504542770
0.025298221281360611101 96.68233747003415601 0.025298221281360611101 96.51649690869676590
0.031848573644296607199 121.39809160482030848 0.031848573644296607199 120.90807832641544906
0.040094978690191851456 152.34422167481594101 0.040094978690191851456 151.29690740460213760
0.050476587558435426217 191.04400130583456985 0.050476587558435426217 189.06767773911496988
0.063546258777947173257 239.36766559639858087 0.063546258777947173257 235.87614693718742842
0.080000000000012505552 299.59763807548068826 0.080000000000012505552 293.67519941146247220
0.100714032943542974863 374.49831539735447450 0.100714032943542974863 364.72669157546721408
0.126791455396883634421 467.38581212158754852 0.126791455396883634421 451.58657456963038612
0.159620985197506115583 582.18952093714153762 0.159620985197506115583 557.04479040511728272
0.200950914520774404082 723.49220855414216658 0.200950914520774404082 683.99379959823443187
0.252982212813464002465 896.52828396717609394 0.252982212813464002465 835.19066196769801991
0.318485736442809752589 1107.11064817113128811 0.318485736442809752589 1012.86859929358638510
0.400949786901833249431 1361.44542988302350750 0.400949786901833249431 1218.14806518933301049
0.504765875584169521062 1665.78227989058359526 0.504765875584169521062 1450.20165742140602561
0.635462587779443310865 2025.83943216715783819 0.635462587779443310865 1705.15651168958879680
0.800000000000011368684 2445.94577682340241154 0.800000000000011368684 1974.79870150157421449
1.007140329435344483500 2927.87276122160847081 1.007140329435344483500 2245.31277700756299964
1.267914553968907398485 3469.41171078854222287 1.267914553968907398485 2496.56624451763082106
1.596209851975117999245 4062.91123905535596350 1.596209851975117999245 2702.77109842706886411
2.009509145207687197399 4694.21784590536117321 2.009509145207687197399 2835.48749528758116867
2.529822128134725289783 5342.67256555424683029 2.529822128134725289783 2869.47232728391963974
3.184857364427983839050 5982.81226207161216735 3.184857364427983839050 2790.51692808299821991
4.009497869018204596614 6587.98690421211631474 4.009497869018204596614 2602.96433621544292691
5.009497869018190385759 7118.29227716079640231 5.009497869018190385759 2341.56915689470952202
6.009497869018190385759 7501.75228567368230870 6.009497869018190385759 2092.30798895298539719
7.009497869018204596614 7788.38945169559065107 7.009497869018204596614 1873.77906817108055293
8.009497869018190385759 8009.20438472888326942 8.009497869018190385759 1690.20717183289525565
9.009497869018204596614 8183.98194958785097697 9.009497869018204596614 1540.74880647389932165
10.009497869018190385759 8325.69458832034797524 10.009497869018190385759 1420.41213782134400390
11.009497869018190385759 8443.07858415078408143 11.009497869018190385759 1318.73152365452551749
12.009497869018204596614 8542.15200755217301776 12.009497869018204596614 1235.34804608256308711
13.009497869018190385759 8627.15608262651403493 13.009497869018190385759 1166.75682349010685357
14.009497869018204596614 8701.14153035809249559 14.009497869018204596614 1110.07493021146456158
15.009497869018190385759 8766.34490091339830542 15.009497869018190385759 1062.97354302083908806
16.009497869018190385759 8824.43517621710452659 16.009497869018190385759 1023.59299121283993372
17.009497869018204596614 8876.67861658442961925 17.009497869018204596614 991.33308738818095662
18.009497869018190385759 8924.05105861833180825 18.009497869018190385759 963.12180307590051598
19.009497869018204596614 8967.31750547631418158 19.009497869018204596614 940.22026537255794665
20.009497869018190385759 9007.08102550282455923 20.009497869018190385759 919.41046566270006224
21.009497869018190385759 9043.82634372065876960 21.009497869018190385759 901.46530759048016535
22.009497869018204596614 9077.95004295769467717 22.009497869018204596614 885.88550611153664249
23.009497869018190385759 9109.77323787448221992 23.009497869018190385759 872.69627566873111846
24.009497869018204596614 9139.56532071455694677 24.009497869018204596614 860.68843979121959364
25.009497869018204596614 9167.55090328143705847 25.009497869018204596614 850.08031540665740522
26.009497869018190385759 9193.91916313566980534 26.009497869018190385759 841.11249539759319305
27.009497869018204596614 9218.83246034516741929 27.009497869018204596614 832.63966852475004998
28.009497869018190385759 9242.42864264074160019 28.009497869018190385759 825.04688409815412342
29.009497869018190385759 9264.82802840422482404 29.009497869018190385759 818.40578429934953419
30.009497869018190385759 9286.13466792909821379 30.009497869018190385759 812.18640787186382113
31.009497869018218807469 9306.43938887138028804 31.009497869018218807469 806.53127418999963538
32.009497869018190385759 9325.82333538285456598 32.009497869018190385759 801.37381670001252587
33.009497869018190385759 9344.35627284231486556 33.009497869018190385759 796.84084832543487664
34.009497869018218807469 9362.10263661356839293 34.009497869018218807469 792.46415292545805187
35.009497869018190385759 9379.11790717008807405 35.009497869018190385759 788.53236150062775778
36.009497869018190385759 9395.45270388071548950 36.009497869018190385759 784.78112975723865929
37.009497869018190385759 9411.15327949656602868 37.009497869018190385759 781.29571191715274381
38.009497869018218807469 9426.25994637972144119 38.009497869018218807469 778.05066682500000752
39.009497869018190385759 9440.81035821557452437 39.009497869018190385759 775.07547666596201452
40.009497869018190385759 9454.83876927511300892 40.009497869018190385759 772.39751778027550699
41.009497869018218807469 9468.37563537961796101 41.009497869018218807469 769.64488901830520717
42.009497869018190385759 9481.44950750335920020 42.009497869018190385759 767.16519013561264728
43.009497869018190385759 9494.08671812017200864 43.009497869018190385759 764.72544015634866810
44.009497869018218807469 9506.31075065030563565 44.009497869018218807469 762.50791614777710947
46.009497869018190385759 9529.60637439252241165 46.009497869018190385759 758.39322711908437213
48.009497869018218807469 9551.49392931179136212 48.009497869018218807469 754.60100177726553738
50.009497869018190385759 9572.10884975486078474 50.009497869018190385759 751.20053730397046365
52.009497869018190385759 9591.56832062714420317 52.009497869018190385759 748.07646923276001871
54.009497869018218807469 9609.97490069685045455 54.009497869018218807469 745.15470734880273085
56.009497869018190385759 9627.41822212409351778 56.009497869018190385759 742.45368647814041196
58.009497869018218807469 9643.97769890930430847 58.009497869018218807469 740.03686889550851902
60.009497869018190385759 9659.72354364477541822 60.009497869018190385759 737.68620542587655109
62.009497869018190385759 9674.71833054135095153 62.009497869018190385759 735.49019846582859827
64.009497869018218807469 9689.01813421245606150 64.009497869018218807469 733.43070390518698787
66.009497869018190385759 9702.67304420432083134 66.009497869018190385759 731.51402611076332505
68.009497869018190385759 9715.72851839319264400 68.009497869018190385759 729.72168231738896793
70.009497869018190385759 9728.22533616306100157 70.009497869018190385759 727.99006759142275769
72.009497869018190385759 9740.20063839909380476 72.009497869018190385759 726.36662533870401148
74.009497869018218807469 9751.68823996795072162 74.009497869018218807469 724.81686262052062375
76.009497869018190385759 9762.71878998391366622 76.009497869018190385759 723.34270553749013288
78.009497869018190385759 9773.32046049211930949 78.009497869018190385759 721.94488500537750042
80.009497869018218807469 9783.51902595548745012 80.009497869018218807469 720.60574975167708089
82.009497869018190385759 9793.33806142686808016 82.009497869018190385759 719.32364010556239009
84.009497869018218807469 9802.79938165490784741 84.009497869018218807469 718.08578293261143699
86.009497869018190385759 9811.92308458514708036 86.009497869018190385759 716.91472110410063578
88.009497869018190385759 9820.72764647995791165 88.009497869018190385759 715.77812142644449978
91.009497869018218807469 9833.37332776456605643 91.009497869018218807469 714.16376047058588483
94.009497869018218807469 9845.39207318756052700 94.009497869018218807469 712.63757630086229256
97.009497869018218807469 9856.83103655978811730 97.009497869018218807469 711.20436418607096130
99.504748934509137825444 9865.93448913642350817 99.504748934509137825444 709.86460876061869385
nan nan nan nan

