Time Pressure difference Time.1 Pressure.1 difference.1
(hr) (psi) (hr) (psi)
0.000200000000020850166 0.57471790633481312 0.000200000000020850166 0.45808000292658491
0.000399999999999067768 1.14923141618785762 0.000399999999999067768 1.19962036360355095
0.000600000000019917934 1.72357257339961611 0.000600000000019917934 1.75543400332542299
0.000799999999998135536 2.29775505887467757 0.000799999999998135536 2.32145012817323959
0.001007140329434719206 2.89228001738643092 0.001007140329434719206 2.91581986614487176
0.001267914553977789183 3.64052572896938686 0.001267914553977789183 3.66962346104873349
0.001596209851982166583 4.58218188954938022 0.001596209851982166583 4.61799495281039185
0.002009509145224797066 5.76715585206587544 0.002009509145224797066 5.81099218370159587
0.002529822128153114136 7.25818701166634295 0.002529822128153114136 7.31146447397808785
0.003184857364431081805 9.13412148817854863 0.003184857364431081805 9.19827423403828526
0.004009497869034817086 11.49400917325615801 0.004009497869034817086 11.57030437894841413
0.005047658755856332391 14.46222240109845814 0.005047658755856332391 14.55142911704797015
0.006354625877790454069 18.19483977082368753 0.006354625877790454069 18.29665784370900283
0.008000000000009777068 22.88759046614638137 0.008000000000009777068 22.99969503478473953
0.010071403294361402914 28.78571367762251398 0.010071403294361402914 28.90218966416454904
0.012679145539692626699 36.19615321929459384 0.012679145539692626699 36.30496942808175476
0.015962098519750611558 45.50257602429454096 0.015962098519750611558 45.58155714625218735
0.020095091452091651263 57.18376860075107260 0.020095091452091651263 57.19423159372730225
0.025298221281360611101 71.83601633526193098 0.025298221281360611101 71.71279501495641284
0.031848573644296607199 90.20008741820521436 0.031848573644296607199 89.83600228339039973
0.040094978690191851456 113.19339481429871341 0.040094978690191851456 112.41522905008611133
0.050476587558435426217 141.94774720680828750 0.050476587558435426217 140.47931754594455356
0.063546258777947173257 177.85274938399078337 0.063546258777947173257 175.25851347698551308
0.080000000000012505552 222.60426657006146911 0.080000000000012505552 218.20383096055977035
0.100714032943542974863 278.25627520384080071 0.100714032943542974863 270.99585363295472007
0.126791455396883634421 347.27268406023330272 0.126791455396883634421 335.53368067485439497
0.159620985197506115583 432.57307415867182954 0.159620985197506115583 413.89026899993115194
0.200950914520774404082 537.56249044184107788 0.200950914520774404082 508.21474787352696012
0.252982212813464002465 666.13015507668671944 0.252982212813464002465 620.55564238675196975
0.318485736442809752589 822.59511600672226450 0.318485736442809752589 752.57226033534220733
0.400949786901833249431 1011.56859360125724834 0.400949786901833249431 905.09711080196666444
0.504765875584169521062 1237.69414559612187077 0.504765875584169521062 1077.51542503031350861
0.635462587779443310865 1505.22048131989913600 0.635462587779443310865 1266.94962320161926073
0.800000000000011368684 1817.36401267201154042 0.800000000000011368684 1467.29666961030943639
1.007140329435344483500 2175.44094409046419969 1.007140329435344483500 1668.29153646475924688
1.267914553968907398485 2577.81020661815364292 1.267914553968907398485 1854.97556447492775078
1.596209851975117999245 3018.78673783575413836 1.596209851975117999245 2008.18798818613390722
2.009509145207687197399 3487.85433496839186773 2.009509145207687197399 2106.79769811152527836
2.529822128134725289783 3969.66316429890821382 2.529822128134725289783 2132.04879371310607894
3.184857364427983839050 4445.29384203385416185 3.184857364427983839050 2073.38408312403407763
4.009497869018204596614 4894.94510839846498129 4.009497869018204596614 1934.03049067190454480
5.009497869018190385759 5288.96770270764591260 5.009497869018190385759 1739.81106173574653440
6.009497869018190385759 5573.88261225861788262 6.009497869018190385759 1554.60733372743311520
7.009497869018204596614 5786.85710873296011414 7.009497869018204596614 1392.23799581313619456
8.009497869018190385759 5950.92497833081506542 8.009497869018190385759 1255.84210294250601692
9.009497869018204596614 6080.78658834968337032 9.009497869018204596614 1144.79293040157472205
10.009497869018190385759 6186.08060271974227362 10.009497869018190385759 1055.38149165005233954
11.009497869018190385759 6273.29817381525936071 11.009497869018190385759 979.83170198416894436
12.009497869018204596614 6346.91079270811951574 12.009497869018204596614 917.87688155166790693
13.009497869018190385759 6410.06973451066824055 13.009497869018190385759 866.91286562544507888
14.009497869018204596614 6465.04171771768051258 14.009497869018204596614 824.79760943669020890
15.009497869018190385759 6513.48852315178373829 15.009497869018190385759 789.80077228752668361
16.009497869018190385759 6556.65022232905175770 16.009497869018190385759 760.54059884738956043
17.009497869018204596614 6595.46766027939884225 17.009497869018204596614 736.57114342498175574
18.009497869018190385759 6630.66589409168591374 18.009497869018190385759 715.60985583381420838
19.009497869018204596614 6662.81332933777775906 19.009497869018204596614 698.59376706713715066
20.009497869018190385759 6692.35805228220579011 20.009497869018190385759 683.13186212142545628
21.009497869018190385759 6719.66021882900440687 21.009497869018190385759 669.79841671507722367
22.009497869018204596614 6745.01449428362138860 22.009497869018204596614 658.22245669147503122
23.009497869018190385759 6768.65947029168455629 23.009497869018190385759 648.42271665278838100
24.009497869018204596614 6790.79530818683633697 24.009497869018204596614 639.50076547928256332
25.009497869018204596614 6811.58889695427205879 25.009497869018204596614 631.61881499569915377
26.009497869018190385759 6831.18079755564303923 26.009497869018190385759 624.95562830079234118
27.009497869018204596614 6849.69164526721579023 27.009497869018204596614 618.66022682860466375
28.009497869018190385759 6867.22386243521759752 28.009497869018190385759 613.01870635680052146
29.009497869018190385759 6883.86684691109621781 29.009497869018190385759 608.08429779661355497
30.009497869018190385759 6899.69790918172839156 30.009497869018190385759 603.46323423597630153
31.009497869018218807469 6914.78453517217621993 31.009497869018218807469 599.26140910246203930
32.009497869018190385759 6929.18701585973394685 32.009497869018190385759 595.42936273086945675
33.009497869018190385759 6942.95718767100879631 33.009497869018190385759 592.06131848696304587
34.009497869018218807469 6956.14292677416779043 34.009497869018218807469 588.80938674353922124
35.009497869018190385759 6968.78545575755924801 35.009497869018190385759 585.88802343756321989
36.009497869018190385759 6980.92238535653086728 36.009497869018190385759 583.10081791639993298
37.009497869018190385759 6992.58808186250189465 37.009497869018190385759 580.51111498360478436
38.009497869018218807469 7003.81249779396421218 38.009497869018218807469 578.10001158717739145
39.009497869018190385759 7014.62361024404526688 39.009497869018190385759 575.88941330772013316
40.009497869018190385759 7025.04687050441316387 40.009497869018190385759 573.89966106039821625
41.009497869018218807469 7035.10490757775914972 41.009497869018218807469 571.85442829209546289
42.009497869018190385759 7044.81893514496823627 42.009497869018190385759 570.01198535882622309
43.009497869018190385759 7054.20851851724637527 43.009497869018190385759 568.19922489036230218
44.009497869018218807469 7063.29110612834483618 44.009497869018218807469 566.55158070764946387
46.009497869018190385759 7080.60000505939024151 46.009497869018190385759 563.49432251536268268
48.009497869018218807469 7096.86269371446087462 48.009497869018218807469 560.67665830977477981
50.009497869018190385759 7112.17980126947259123 50.009497869018190385759 558.15007664198230941
52.009497869018190385759 7126.63839736920181167 52.009497869018190385759 555.82886047294311993
54.009497869018218807469 7140.31468428120842873 54.009497869018218807469 553.65795997636848824
56.009497869018190385759 7153.27525966424491344 56.009497869018190385759 551.65107242623116690
58.009497869018218807469 7165.57912897454843915 58.009497869018218807469 549.85535097504987334
60.009497869018190385759 7177.27846092316121940 60.009497869018190385759 548.10878274116214470
62.009497869018190385759 7188.41974882158592663 62.009497869018190385759 546.47712595686834902
64.009497869018218807469 7199.04465671054549603 64.009497869018218807469 544.94689935320877794
66.009497869018190385759 7209.19040166148988646 66.009497869018190385759 543.52278714251337988
68.009497869018190385759 7218.89075936526478472 68.009497869018190385759 542.19105643152227003
70.009497869018190385759 7228.17602934266142256 70.009497869018190385759 540.90444807061635402
72.009497869018190385759 7237.07380767072481831 72.009497869018190385759 539.69821302047785139
74.009497869018218807469 7245.60921915898234147 74.009497869018218807469 538.54672265675253584
76.009497869018190385759 7253.80503642890835181 76.009497869018190385759 537.45140809290933248
78.009497869018190385759 7261.68219161296110542 78.009497869018190385759 536.41281240722139501
80.009497869018218807469 7269.25983541423829593 80.009497869018218807469 535.41782051441816748
82.009497869018190385759 7276.55548435050059197 82.009497869018190385759 534.46519926122971356
84.009497869018218807469 7283.58534701456028415 84.009497869018218807469 533.54545807143506408
86.009497869018190385759 7290.36435639606133918 86.009497869018190385759 532.67534654078872336
88.009497869018190385759 7296.90624055661373859 88.009497869018190385759 531.83084075878832664
91.009497869018218807469 7306.30211772614438814 91.009497869018218807469 530.63135320986543775
94.009497869018218807469 7315.23217480925268319 94.009497869018218807469 529.49738196117834832
97.009497869018218807469 7323.73144759442220675 97.009497869018218807469 528.43248994900534399
99.504748934509137825444 7330.49541074545140873 99.504748934509137825444 527.43703726192211434
nan nan nan nan

