Time Pressure difference Time.1 Pressure.1 difference.1
(hr) (psi) (hr) (psi)
0.000200000000020850166 0.57970822100631669 0.000200000000020850166 0.46205754274939176
0.000399999999999067768 1.15921027074231064 0.000399999999999067768 1.21003674881573819
0.000600000000019917934 1.73853847128731176 0.000600000000019917934 1.77067655617629471
0.000799999999998135536 2.31770662233813374 0.000799999999998135536 2.34160743753509148
0.001007140329434719206 2.91739388150266654 0.001007140329434719206 2.94113812836899502
0.001267914553977789183 3.67213666149299911 0.001267914553977789183 3.70148705115914201
0.001596209851982166583 4.62196928656428074 0.001596209851982166583 4.65809331708949781
0.002009509145224797066 5.81723245859611549 0.002009509145224797066 5.86144942408105951
0.002529822128153114136 7.32121034317140573 0.002529822128153114136 7.37495041731219558
0.003184857364431081805 9.21343368633928783 0.003184857364431081805 9.27814347485482571
0.004009497869034817086 11.59381243669977124 0.004009497869034817086 11.67077011885245241
0.005047658755856332391 14.58779886188947117 0.005047658755856332391 14.67778016582118106
0.006354625877790454069 18.35282680211883033 0.006354625877790454069 18.45552896825640232
0.008000000000009777068 23.08632497091755198 0.008000000000009777068 23.19940295115045359
0.010071403294361402914 29.03566198741373938 0.010071403294361402914 29.15314934286930182
0.012679145539692626699 36.51044687966474100 0.012679145539692626699 36.62020794699419213
0.015962098519750611558 45.89767798687886824 0.015962098519750611558 45.97734490729056489
0.020095091452091651263 57.68029915300071764 0.020095091452091651263 57.69085299685662704
0.025298221281360611101 72.45977335119764007 0.025298221281360611101 72.33548209178673005
0.031848573644296607199 90.98330091242985418 0.031848573644296607199 90.61605440162533398
0.040094978690191851456 114.17626076058786566 0.040094978690191851456 113.39133813011579832
0.050476587558435426217 143.18028915071687379 0.050476587558435426217 141.69910901522916902
0.063546258777947173257 179.39705690396752402 0.063546258777947173257 176.78029507012863064
0.080000000000012505552 224.53715455764520925 0.080000000000012505552 220.09850966644015102
0.100714032943542974863 280.67239336769472402 0.100714032943542974863 273.34892906247381461
0.126791455396883634421 350.28807639650165129 0.126791455396883634421 338.44714244627141397
0.159620985197506115583 436.32913558407273058 0.159620985197506115583 417.48410635738355268
0.200950914520774404082 542.23018210993234334 0.200950914520774404082 512.62761109674136151
0.252982212813464002465 671.91420852163628297 0.252982212813464002465 625.94396923815645550
0.318485736442809752589 829.73776534976184394 0.318485736442809752589 759.10689645981699414
0.400949786901833249431 1020.35211250372833547 0.400949786901833249431 912.95613057738171392
0.504765875584169521062 1248.44112804702876929 0.504765875584169521062 1086.87156475561300795
0.635462587779443310865 1518.29041314033224808 0.635462587779443310865 1277.95063295445515905
0.800000000000011368684 1833.14430800635614105 0.800000000000011368684 1480.03730639419063664
1.007140329435344483500 2194.33044577576492884 1.007140329435344483500 1682.77742534867888935
1.267914553968907398485 2600.19350797807965137 1.267914553968907398485 1871.08244347181584999
1.596209851975117999245 3044.99906841030497162 1.596209851975117999245 2025.62522107921154202
2.009509145207687197399 3518.13961139358798391 2.009509145207687197399 2125.09116582305841803
2.529822128134725289783 4004.13201956054854236 2.529822128134725289783 2150.56151840526035812
3.184857364427983839050 4483.89263082141224004 3.184857364427983839050 2091.38741814392460583
4.009497869018204596614 4937.44824971596244723 4.009497869018204596614 1950.82380897006873965
5.009497869018190385759 5334.89216901190957287 5.009497869018190385759 1754.91795952216398291
6.009497869018190385759 5622.28101410167346330 6.009497869018190385759 1568.10609494648474538
7.009497869018204596614 5837.10478261486787233 7.009497869018204596614 1404.32689302714311452
8.009497869018190385759 6002.59726468390454102 8.009497869018190385759 1266.74666534142806995
9.009497869018204596614 6133.58647189541170519 9.009497869018204596614 1154.73324528205148454
10.009497869018190385759 6239.79476135406730464 10.009497869018190385759 1064.54544092631908825
11.009497869018190385759 6327.76964855171627278 11.009497869018190385759 988.33964729806905325
12.009497869018204596614 6402.02145082135848497 12.009497869018204596614 925.84686894574895177
13.009497869018190385759 6465.72880601148426649 13.009497869018190385759 874.44032900280058129
14.009497869018204596614 6521.17811468773197703 14.009497869018204596614 831.95938317998991351
15.009497869018190385759 6570.04558702864324005 15.009497869018190385759 796.65866611346757509
16.009497869018190385759 6613.58206217561382800 16.009497869018190385759 767.14442459714985034
17.009497869018204596614 6652.73655457994391327 17.009497869018204596614 742.96684076297015054
18.009497869018190385759 6688.24041705051331519 18.009497869018190385759 721.82354488591681729
19.009497869018204596614 6720.66699066343244340 19.009497869018204596614 704.65970426308911101
20.009497869018190385759 6750.46825244674073474 20.009497869018190385759 689.06354254505583867
21.009497869018190385759 6778.00748556268626999 21.009497869018190385759 675.61432192533845864
22.009497869018204596614 6803.58191391560649208 22.009497869018204596614 663.93784705348502939
23.009497869018190385759 6827.43220085861776170 23.009497869018190385759 654.05301520548994176
24.009497869018204596614 6849.76024573983340815 24.009497869018204596614 645.05359412309690015
25.009497869018204596614 6870.73438665286175819 25.009497869018204596614 637.10320412735507034
26.009497869018190385759 6890.49640505974457483 26.009497869018190385759 630.38216052916391163
27.009497869018204596614 6909.16798372105495218 27.009497869018204596614 624.03209565779650347
28.009497869018190385759 6926.85243432322295121 28.009497869018190385759 618.34158948001447698
29.009497869018190385759 6943.63993096531703486 29.009497869018190385759 613.36433511467373592
30.009497869018190385759 6959.60845542643255612 30.009497869018190385759 608.70314654482695005
31.009497869018218807469 6974.82607961650865036 31.009497869018218807469 604.46483667788152161
32.009497869018190385759 6989.35361802349325444 32.009497869018190385759 600.59951638699862997
33.009497869018190385759 7003.24335717321810080 33.009497869018190385759 597.20222718583681853
34.009497869018218807469 7016.54358894586766837 34.009497869018218807469 593.92205869789700046
35.009497869018190385759 7029.29589386833413300 35.009497869018190385759 590.97532899563179853
36.009497869018190385759 7041.53820925253512542 36.009497869018190385759 588.16392197934987962
37.009497869018190385759 7053.30519979473683634 37.009497869018190385759 585.55173247984453155
38.009497869018218807469 7064.62707809318817453 38.009497869018218807469 583.11969330862905281
39.009497869018190385759 7075.53206416801731393 39.009497869018190385759 580.88990025395219163
40.009497869018190385759 7086.04583030618778139 40.009497869018190385759 578.88287085252898123
41.009497869018218807469 7096.19120199956250872 41.009497869018218807469 576.81987918898778389
42.009497869018190385759 7105.98957712886112859 42.009497869018190385759 574.96143819841074674
43.009497869018190385759 7115.46069089221509785 43.009497869018190385759 573.13293740750009420
44.009497869018218807469 7124.62214322931413335 44.009497869018218807469 571.47098661828033528
46.009497869018190385759 7142.08133650708350615 46.009497869018190385759 568.38718204516328569
48.009497869018218807469 7158.48523519389163994 48.009497869018218807469 565.54505186962808239
50.009497869018190385759 7173.93534223563165142 50.009497869018190385759 562.99653172136277135
52.009497869018190385759 7188.51948330873165105 52.009497869018190385759 560.65516027444493830
54.009497869018218807469 7202.31452235022061359 54.009497869018218807469 558.46540970119951908
56.009497869018190385759 7215.38763529085190385 56.009497869018190385759 556.44109620996118792
58.009497869018218807469 7227.79833993525335245 58.009497869018218807469 554.62978238727896496
60.009497869018190385759 7239.59925797893447452 60.009497869018190385759 552.86804858261939444
62.009497869018190385759 7250.83728643798076519 62.009497869018190385759 551.22222401148655990
64.009497869018218807469 7261.55445112481902470 64.009497869018218807469 549.67871034614552173
66.009497869018190385759 7271.78829226925972762 66.009497869018190385759 548.24223247226029798
68.009497869018190385759 7281.57287883876961132 68.009497869018190385759 546.89893825292483598
70.009497869018190385759 7290.93877344693919440 70.009497869018190385759 545.60115818410929478
72.009497869018190385759 7299.91381178942810948 72.009497869018190385759 544.38444931298568008
74.009497869018218807469 7308.52333683619508520 74.009497869018218807469 543.22296048011071434
76.009497869018190385759 7316.79031894493255095 76.009497869018190385759 542.11813522540921895
78.009497869018190385759 7324.73587200323254365 78.009497869018190385759 541.07052134273988031
80.009497869018218807469 7332.37931300104810362 80.009497869018218807469 540.06688986765482241
82.009497869018190385759 7339.73831055325535999 82.009497869018190385759 539.10599693933011167
84.009497869018218807469 7346.82921399297902099 84.009497869018218807469 538.17826957422607848
86.009497869018190385759 7353.66708597402976011 86.009497869018190385759 537.30060280597638211
88.009497869018190385759 7360.26577375971100992 88.009497869018190385759 536.44876412282997080
91.009497869018218807469 7369.74323596978774731 91.009497869018218807469 535.23886134193378439
94.009497869018218807469 7378.75083334594637563 94.009497869018218807469 534.09504374376456326
97.009497869018218807469 7387.32390589480837662 97.009497869018218807469 533.02090520181877764
99.504748934509137825444 7394.14660099794400594 99.504748934509137825444 532.01680893134539474
nan nan nan nan

