Time Pressure difference Time.1 Pressure.1 difference.1
(hr) (psi) (hr) (psi)
0.000200000000020850166 0.39506657816068924 0.000200000000020850166 0.31488856930553955
0.000399999999999067768 0.78999265222754311 0.000399999999999067768 0.82463049596481430
0.000600000000019917934 1.18480024944257267 0.000600000000019917934 1.20670210069403172
0.000799999999998135536 1.57949877419026330 0.000799999999998135536 1.59578699114658318
0.001007140329434719206 1.98818090920196044 0.001007140329434719206 2.00436242607643145
0.001267914553977789183 2.50253215811933272 0.001267914553977789183 2.52253421707402081
0.001596209851982166583 3.14983559701295990 0.001596209851982166583 3.17445383876257070
0.002009509145224797066 3.96439801697726635 0.002009509145224797066 3.99453153004089412
0.002529822128153114136 4.98934707748409956 0.002529822128153114136 5.02597051395020422
0.003184857364431081805 6.27888235439191078 0.003184857364431081805 6.32298156464281558
0.004009497869034817086 7.90109168928607097 0.004009497869034817086 7.95353774240303490
0.005047658755856332391 9.94146981262194984 0.005047658755856332391 10.00279136121242551
0.006354625877790454069 12.50730664419862670 0.006354625877790454069 12.57729736000256970
0.008000000000009777068 15.73314829438427154 0.008000000000009777068 15.81021004561903176
0.010071403294361402914 19.78757452513848492 0.010071403294361402914 19.86764123079328570
0.012679145539692626699 24.88158144596951260 0.012679145539692626699 24.95638274723420480
0.015962098519750611558 31.27890537125891157 0.015962098519750611558 31.33319774887089793
0.020095091452091651263 39.30866871976375876 0.020095091452091651263 39.31586108107158850
0.025298221281360611101 49.38076376157658132 0.025298221281360611101 49.29606024906555461
0.031848573644296607199 62.00440162611791095 0.031848573644296607199 61.75412602693261732
0.040094978690191851456 77.81022074788985776 0.040094978690191851456 77.27530216901722326
0.050476587558435426217 97.57623722609829997 0.050476587558435426217 96.56682465169849650
0.063546258777947173257 122.25767866482721047 0.063546258777947173257 120.47437612383228611
0.080000000000012505552 153.02029901704659665 0.080000000000012505552 149.99539754886524179
0.100714032943542974863 191.27602130510041434 0.100714032943542974863 186.28513817026552601
0.126791455396883634421 238.71855995457428889 0.126791455396883634421 230.64905690384350123
0.159620985197506115583 297.35486284423893721 0.159620985197506115583 284.51212413164591908
0.200950914520774404082 369.52559039055648782 0.200950914520774404082 349.35167183780794176
0.252982212813464002465 457.90423105850391039 0.252982212813464002465 426.57587573618985743
0.318485736442809752589 565.45973965729831434 0.318485736442809752589 517.32535985425113267
0.400949786901833249431 695.36191311229697476 0.400949786901833249431 622.17239888702476946
0.504765875584169521062 850.80277736347011341 0.504765875584169521062 740.69439491953528432
0.635462587779443310865 1034.70293578430096204 0.635462587779443310865 870.91327209952123667
0.800000000000011368684 1249.27338063560864612 0.800000000000011368684 1008.63374539058895607
1.007140329435344483500 1495.41888341963885978 1.007140329435344483500 1146.79953664364757060
1.267914553968907398485 1772.01135766081461043 1.267914553968907398485 1275.12792058696186359
1.596209851975117999245 2075.14283715192959789 1.596209851975117999245 1380.44760403533064164
2.009509145207687197399 2397.58438366134032549 2.009509145207687197399 1448.23286049634498340
2.529822128134725289783 2728.78437487985729604 2.529822128134725289783 1465.59070479555020938
3.184857364427983839050 3055.73744568173697189 3.184857364427983839050 1425.26402240798302046
4.009497869018204596614 3364.83202096855393393 4.009497869018204596614 1329.47103193799534893
5.009497869018190385759 3635.68691575417005879 5.009497869018190385759 1195.96274142471725099
6.009497869018190385759 3831.54014590860151657 6.009497869018190385759 1068.65192984157852152
7.009497869018204596614 3977.94084898430719477 7.009497869018204596614 957.03769610888514308
8.009497869018190385759 4090.72266961959076070 8.009497869018190385759 863.27785658131745095
9.009497869018204596614 4179.99078070347241010 9.009497869018204596614 786.94159470441093163
10.009497869018190385759 4252.37089188404843298 10.009497869018190385759 725.47931770444995436
11.009497869018190385759 4312.32508330281962117 11.009497869018190385759 673.54567068376297811
12.009497869018204596614 4362.92710063148570043 12.009497869018204596614 630.95733536475006531
13.009497869018190385759 4406.34316048128403054 13.009497869018190385759 595.92418404064596871
14.009497869018204596614 4444.13142679580050753 14.009497869018204596614 566.97375467789845516
15.009497869018190385759 4477.43422358480074763 15.009497869018190385759 542.91659455365447684
16.009497869018190385759 4507.10398785282177414 16.009497869018190385759 522.80287185602037425
17.009497869018204596614 4533.78746545978992799 17.009497869018204596614 506.32603925740426121
18.009497869018190385759 4557.98306757387945254 18.009497869018190385759 491.91704995812119705
19.009497869018204596614 4580.08152161424641235 19.009497869018204596614 480.22002801286566864
20.009497869018190385759 4600.39084635896961117 20.009497869018190385759 469.59136687073390704
21.009497869018190385759 4619.15861641646461067 21.009497869018190385759 460.42582914567537955
22.009497869018204596614 4636.58738753215584438 22.009497869018204596614 452.46840365911810977
23.009497869018190385759 4652.84116988212736032 23.009497869018190385759 445.73196875553475138
24.009497869018204596614 4668.05755627893995552 24.009497869018204596614 439.59893430196694908
25.009497869018204596614 4682.35126780503469490 25.009497869018204596614 434.18080625608843093
26.009497869018190385759 4695.81892740800412867 26.009497869018190385759 429.60046807941586167
27.009497869018204596614 4708.54346092898322240 27.009497869018204596614 425.27294897769490944
28.009497869018190385759 4720.59527446704578324 28.009497869018190385759 421.39491392110022616
29.009497869018190385759 4732.03582095914680394 29.009497869018190385759 418.00295434644198167
30.009497869018190385759 4742.91824437238938117 30.009497869018190385759 414.82639111734977178
31.009497869018218807469 4753.28893517624237575 31.009497869018218807469 411.93801638736539417
32.009497869018190385759 4763.18933796436067496 32.009497869018190385759 409.30383111022143794
33.009497869018190385759 4772.65508559150475776 33.009497869018190385759 406.98860532750711627
34.009497869018218807469 4781.71908859295217553 34.009497869018218807469 404.75319638665865796
35.009497869018190385759 4790.40968376966793585 35.009497869018190385759 402.74502334709490015
36.009497869018190385759 4798.75272510036575113 36.009497869018190385759 400.82907165020253615
37.009497869018190385759 4806.77183630200852349 37.009497869018190385759 399.04888511897581793
38.009497869018218807469 4814.48760702190065786 38.009497869018218807469 397.39146961491934462
39.009497869018190385759 4821.91926898107340094 39.009497869018190385759 395.87188324336767664
40.009497869018190385759 4829.08431764051510982 40.009497869018190385759 394.50410854368908531
41.009497869018218807469 4835.99830839281548833 41.009497869018218807469 393.09819600397310069
42.009497869018190385759 4842.67582372483411746 42.009497869018190385759 391.83168313378070025
43.009497869018190385759 4849.13031301836781495 43.009497869018190385759 390.58557427340389268
44.009497869018218807469 4855.37377049343558610 44.009497869018218807469 389.45296792493991234
46.009497869018190385759 4867.27207294241725322 46.009497869018190385759 387.35137944254307740
48.009497869018218807469 4878.45120045494786609 48.009497869018218807469 385.41449015505503439
50.009497869018190385759 4888.98032648769822117 50.009497869018190385759 383.67769378428596383
52.009497869018190385759 4898.91930354612213705 52.009497869018190385759 382.08206761888283154
54.009497869018218807469 4908.32051379677886871 54.009497869018218807469 380.58976988245296980
56.009497869018190385759 4917.22973710639143974 56.009497869018190385759 379.21021621195347961
58.009497869018218807469 4925.68753438916064624 58.009497869018218807469 377.97582013480274554
60.009497869018190385759 4933.72976691534313431 60.009497869018190385759 376.77521244870041528
62.009497869018190385759 4941.38839463133626850 62.009497869018190385759 375.65359599061139306
64.009497869018218807469 4948.69205779668482137 64.009497869018218807469 374.60170360748799112
66.009497869018190385759 4955.66633978177651443 66.009497869018190385759 373.62275527162637445
68.009497869018190385759 4962.33445831910376000 68.009497869018190385759 372.70731086103199914
70.009497869018190385759 4968.71724158865981735 70.009497869018190385759 371.82288398486650749
72.009497869018190385759 4974.83365939738632733 72.009497869018190385759 370.99370649019829216
74.009497869018218807469 4980.70098277932902420 74.009497869018218807469 370.20216101585731394
76.009497869018190385759 4986.33486585199898400 76.009497869018190385759 369.44923132291160073
78.009497869018190385759 4991.74969756317932479 78.009497869018190385759 368.73529072855302502
80.009497869018218807469 4996.95864228909340454 80.009497869018218807469 368.05132379789955621
82.009497869018190385759 5001.97374105135713762 82.009497869018190385759 367.39648284961521085
84.009497869018218807469 5006.80613579148484860 84.009497869018218807469 366.76424397095752283
86.009497869018190385759 5011.46609158918818139 86.009497869018190385759 366.16612099402988179
88.009497869018190385759 5015.96304524514016521 88.009497869018190385759 365.58559965329152419
91.009497869018218807469 5022.42186095501983800 91.009497869018218807469 364.76106045540677769
94.009497869018218807469 5028.56046748827066040 94.009497869018218807469 363.98155778807483784
97.009497869018218807469 5034.40294878053646244 97.009497869018218807469 363.24954084772440410
99.504748934509137825444 5039.05256165570062876 99.504748934509137825444 362.56525716268157566
nan nan nan nan

