Time Pressure difference Time.1 Pressure.1 difference.1
(hr) (psi) (hr) (psi)
0.000200000000020850166 0.08400363030364129 0.000200000000020850166 0.06695525368391474
0.000399999999999067768 0.16797738499996179 0.000399999999999067768 0.17534248440514999
0.000600000000019917934 0.25192594777621019 0.000600000000019917934 0.25658297298967830
0.000799999999998135536 0.33585131830150861 0.000799999999998135536 0.33931470759116816
0.001007140329434719206 0.42275004595662741 0.001007140329434719206 0.42619074743940966
0.001267914553977789183 0.53211736414747912 0.001267914553977789183 0.53637043352521285
0.001596209851982166583 0.66975451641749262 0.001596209851982166583 0.67498913203162025
0.002009509145224797066 0.84295620992569242 0.002009509145224797066 0.84936354638764278
0.002529822128153114136 1.06089274700188230 0.002529822128153114136 1.06868004612414880
0.003184857364431081805 1.33508866903912193 0.003184857364431081805 1.34446555374510379
0.004009497869034817086 1.68002160130082778 0.004009497869034817086 1.69117328838464509
0.005047658755856332391 2.11387042331540398 0.005047658755856332391 2.12690932101569485
0.006354625877790454069 2.65944836013486618 0.006354625877790454069 2.67433059654791494
0.008000000000009777068 3.34536416364802403 0.008000000000009777068 3.36174992548952067
0.010071403294361402914 4.20746321481892060 0.010071403294361402914 4.22448792486341418
0.012679145539692626699 5.29060994956404329 0.012679145539692626699 5.30651506835927300
0.015962098519750611558 6.65088303683610604 0.015962098519750611558 6.66242731081254913
0.020095091452091651263 8.35826429620239963 0.020095091452091651263 8.35979361934364285
0.025298221281360611101 10.49990976825102074 0.025298221281360611101 10.48189912664341250
0.031848573644296607199 13.18409381944822734 0.031848573644296607199 13.13087732362146198
0.040094978690191851456 16.54491009586710604 0.040094978690191851456 16.43116951383313662
0.050476587558435426217 20.74778938912826831 0.050476587558435426217 20.53315639962431050
0.063546258777947173257 25.99584325294221188 0.063546258777947173257 25.61665681790960392
0.080000000000012505552 32.53694779099306089 0.080000000000012505552 31.89375821565345603
0.100714032943542974863 40.67132242487398486 0.100714032943542974863 39.61010306357224664
0.126791455396883634421 50.75910432718316656 0.126791455396883634421 49.04327315218566241
0.159620985197506115583 63.22703399424869986 0.159620985197506115583 60.49626218378154618
0.200950914520774404082 78.57280974620253744 0.200950914520774404082 74.28319759077599826
0.252982212813464002465 97.36489965665029445 0.252982212813464002465 90.70350199864246576
0.318485736442809752589 120.23459727449919399 0.318485736442809752589 109.99970809532497640
0.400949786901833249431 147.85590152493051619 0.400949786901833249431 132.29349955282003748
0.504765875584169521062 180.90753792360101215 0.504765875584169521062 157.49501870920644819
0.635462587779443310865 220.01051897729348639 0.635462587779443310865 185.18366417274029345
0.800000000000011368684 265.63497146146625028 0.800000000000011368684 214.46738586199893462
1.007140329435344483500 317.97327836922846700 1.007140329435344483500 243.84579621264933280
1.267914553968907398485 376.78557289208896464 1.267914553968907398485 271.13246311428036961
1.596209851975117999245 441.24089800493652547 1.596209851975117999245 293.52675370014401324
2.009509145207687197399 509.80215315746391980 2.009509145207687197399 307.94003981080180665
2.529822128134725289783 580.22573023761174227 2.529822128134725289783 311.63086565126440064
3.184857364427983839050 649.74627792390629111 3.184857364427983839050 303.05613950148688218
4.009497869018204596614 715.46954551120836641 4.009497869018204596614 282.68752468576320780
5.009497869018190385759 773.06184945509733097 5.009497869018190385759 254.29944607136093282
6.009497869018190385759 814.70643102477629327 6.009497869018190385759 227.22914718736723216
7.009497869018204596614 845.83584367876858323 7.009497869018204596614 203.49643643578400543
8.009497869018190385759 869.81682027700776416 8.009497869018190385759 183.56013371518540112
9.009497869018204596614 888.79803968642249856 9.009497869018204596614 167.32863382135897723
10.009497869018190385759 904.18833701113464940 10.009497869018190385759 154.25981281715672822
11.009497869018190385759 916.93649139702063167 11.009497869018190385759 143.21707945065276135
12.009497869018204596614 927.69607823953697334 12.009497869018204596614 134.16145446703103516
13.009497869018190385759 936.92770359707299122 13.009497869018190385759 126.71230018548473595
14.009497869018204596614 944.96268232921227082 14.009497869018204596614 120.55652467887946955
15.009497869018190385759 952.04390859382067447 15.009497869018190385759 115.44121273667178684
16.009497869018190385759 958.35263741712628871 16.009497869018190385759 111.16440012096433065
17.009497869018204596614 964.02638739250267008 17.009497869018204596614 107.66090518946911914
18.009497869018190385759 969.17113647360383766 18.009497869018190385759 104.59709904372682843
19.009497869018204596614 973.86996564850301183 19.009497869018204596614 102.10994279852511113
20.009497869018190385759 978.18836943632811654 20.009497869018190385759 99.84995379777710411
21.009497869018190385759 982.17899001697469430 21.009497869018190385759 97.90107103939624267
22.009497869018204596614 985.88489713841636330 22.009497869018204596614 96.20907109383354339
23.009497869018190385759 989.34096454335781345 23.009497869018190385759 94.77669230380844567
24.009497869018204596614 992.57644880878501681 24.009497869018204596614 93.47261550420770959
25.009497869018204596614 995.61574325959679754 25.009497869018204596614 92.32055038287354876
26.009497869018190385759 998.47939298570190658 26.009497869018190385759 91.34662584425474563
27.009497869018204596614 1001.18503063963635213 27.009497869018204596614 90.42645862473091256
28.009497869018190385759 1003.74762678141382821 28.009497869018190385759 89.60186590743394675
29.009497869018190385759 1006.18024824605026879 29.009497869018190385759 88.88062818734871939
30.009497869018190385759 1008.49419511918154058 30.009497869018190385759 88.20519053232068529
31.009497869018218807469 1010.69933147958022346 31.009497869018218807469 87.59103085289243040
32.009497869018190385759 1012.80446975663244302 32.009497869018190385759 87.03091987817339259
33.009497869018190385759 1014.81718662050946023 33.009497869018190385759 86.53862976437518739
34.009497869018218807469 1016.74447989029079054 34.009497869018218807469 86.06331123168952502
35.009497869018190385759 1018.59237486470829026 35.009497869018190385759 85.63631022748752741
36.009497869018190385759 1020.36636891607759026 36.009497869018190385759 85.22891839299043681
37.009497869018190385759 1022.07148519263762410 37.009497869018190385759 84.85039452003485394
38.009497869018218807469 1023.71210170360416214 38.009497869018218807469 84.49797564443548481
39.009497869018190385759 1025.29230772018604512 39.009497869018190385759 84.17486359490554548
40.009497869018190385759 1026.81582332987795780 40.009497869018190385759 83.88403150086861615
41.009497869018218807469 1028.28595610036722974 41.009497869018218807469 83.58509009768690134
42.009497869018190385759 1029.70580672885944296 42.009497869018190385759 83.31578946634073191
43.009497869018190385759 1031.07823497864228557 43.009497869018190385759 83.05082737181851371
44.009497869018218807469 1032.40579119965673272 44.009497869018218807469 82.80999949561881124
46.009497869018190385759 1034.93574603617707908 46.009497869018190385759 82.36313541830915597
48.009497869018218807469 1037.31278157042038401 48.009497869018218807469 81.95129159086432935
50.009497869018190385759 1039.55160626370002319 50.009497869018190385759 81.58199383623765755
52.009497869018190385759 1041.66494664875449416 52.009497869018190385759 81.24271332527823120
54.009497869018218807469 1043.66394082836768575 54.009497869018218807469 80.92540370132158500
56.009497869018190385759 1045.55832304788532383 56.009497869018190385759 80.63206702612062315
58.009497869018218807469 1047.35671783853763372 58.009497869018218807469 80.36959543918963789
60.009497869018190385759 1049.06675043884115439 60.009497869018190385759 80.11430833119736405
62.009497869018190385759 1050.69521654266304722 62.009497869018190385759 79.87581725274053213
64.009497869018218807469 1052.24820597361076580 64.009497869018218807469 79.65215171443428233
66.009497869018190385759 1053.73115856412505309 66.009497869018190385759 79.44399638407215036
68.009497869018190385759 1055.14901113732526028 68.009497869018190385759 79.24934399360890325
70.009497869018190385759 1056.50619242200991721 70.009497869018190385759 79.06128691046633605
72.009497869018190385759 1057.80673599818101138 72.009497869018190385759 78.88497759054742176
74.009497869018218807469 1059.05431423307845762 74.009497869018218807469 78.71667002652966971
76.009497869018190385759 1060.25225568642508733 76.009497869018190385759 78.55657339708226061
78.009497869018190385759 1061.40361990290739413 78.009497869018190385759 78.40476708122916705
80.009497869018218807469 1062.51120604462812480 80.009497869018218807469 78.25933411281654628
82.009497869018190385759 1063.57757441302555890 82.009497869018190385759 78.12009424802343460
84.009497869018218807469 1064.60509413671570655 84.009497869018218807469 77.98566029698254454
86.009497869018190385759 1065.59594789580637553 86.009497869018190385759 77.85848046399371469
88.009497869018190385759 1066.55214225212466772 88.009497869018190385759 77.73504329469987795
91.009497869018218807469 1067.92549043464623537 91.009497869018218807469 77.55972022314965386
94.009497869018218807469 1069.23075203434791547 94.009497869018218807469 77.39397334020118535
97.009497869018218807469 1070.47304805649309856 97.009497869018218807469 77.23832342235824910
99.504748934509137825444 1071.46170258363326866 99.504748934509137825444 77.09282310195966659
nan nan nan nan

