Time Pressure difference Time.1 Pressure.1 difference.1
(hr) (psi) (hr) (psi)
0.000200000000020850166 0.70612952601773715 0.000200000000020850166 0.56282188492716445
0.000399999999999067768 1.41200791945512449 0.000399999999999067768 1.47391850752447873
0.000600000000019917934 2.11767455110893499 0.000600000000019917934 2.15682122839838497
0.000799999999998135536 2.82314623007901799 0.000799999999998135536 2.85225927470199814
0.001007140329434719206 3.55361177244729376 0.001007140329434719206 3.58253410471345290
0.001267914553977789183 4.47294695209118576 0.001267914553977789183 4.50869800062282966
0.001596209851982166583 5.62991667760842684 0.001596209851982166583 5.67391854549352104
0.002009509145224797066 7.08583982402883983 0.002009509145224797066 7.13969951369414613
0.002529822128153114136 8.91780140796631748 0.002529822128153114136 8.98326098177626164
0.003184857364431081805 11.22267603974469985 0.003184857364431081805 11.30149757554052670
0.004009497869034817086 14.12216177727131416 0.004009497869034817086 14.21590219642142294
0.005047658755856332391 17.76906920192849526 0.005047658755856332391 17.87867340140915573
0.006354625877790454069 22.35516492826238988 0.006354625877790454069 22.48026412345722491
0.008000000000009777068 28.12093242512051816 0.008000000000009777068 28.25867016574854418
0.010071403294361402914 35.36768583545804745 0.010071403294361402914 35.51079453672315367
0.012679145539692626699 44.47255294237498191 0.012679145539692626699 44.60625042610913482
0.015962098519750611558 55.90692770568171710 0.015962098519750611558 56.00396818692924938
0.020095091452091651263 70.25907314332511078 0.020095091452091651263 70.27192854279952883
0.025298221281360611101 88.26161775490214723 0.025298221281360611101 88.11022137148769673
0.031848573644296607199 110.82470943278758568 0.031848573644296607199 110.37737473024377266
0.040094978690191851456 139.07553139991259172 0.040094978690191851456 138.11943482420130636
0.050476587558435426217 174.40468506306834229 0.050476587558435426217 172.60049290377270381
0.063546258777947173257 218.51951407671225525 0.063546258777947173257 215.33209542975498607
0.080000000000012505552 273.50365024310013951 0.080000000000012505552 268.09703688207702044
0.100714032943542974863 341.88072018532682250 0.100714032943542974863 332.96017327695881249
0.126791455396883634421 426.67801558196543965 0.126791455396883634421 412.25484065550125479
0.159620985197506115583 531.48269169422917457 0.159620985197506115583 508.52798607951024223
0.200950914520774404082 660.47837103491042399 0.200950914520774404082 624.42014608483987104
0.252982212813464002465 818.44356246035749791 0.252982212813464002465 762.44824947373717805
0.318485736442809752589 1010.68488204009713627 0.318485736442809752589 924.65101161317738843
0.400949786901833249431 1242.86792469966349017 0.400949786901833249431 1112.05129822122967198
0.504765875584169521062 1520.69801680333921468 0.504765875584169521062 1323.89377112986403517
0.635462587779443310865 1849.39535259130866507 0.635462587779443310865 1556.64288002630223673
0.800000000000011368684 2232.91178980975109880 0.800000000000011368684 1802.80010491917892068
1.007140329435344483500 2672.86448847004930940 1.007140329435344483500 2049.75327707464612104
1.267914553968907398485 3167.23714242954019937 1.267914553968907398485 2279.12337805964352810
1.596209851975117999245 3709.04477629892244295 1.596209851975117999245 2467.36845437051761110
2.009509145207687197399 4285.36661416521656065 2.009509145207687197399 2588.52568118188855806
2.529822128134725289783 4877.34301952210262243 2.529822128134725289783 2619.55054393983618866
3.184857364427983839050 5461.72861343956810742 3.184857364427983839050 2547.47190531447904505
4.009497869018204596614 6014.19449642590006988 4.009497869018204596614 2376.25453919022720584
5.009497869018190385759 6498.31198205324290029 5.009497869018190385759 2137.62603677807328495
6.009497869018190385759 6848.37386079242605774 6.009497869018190385759 1910.07471249578998140
7.009497869018204596614 7110.04585428984591999 7.009497869018204596614 1710.57895578198622388
8.009497869018190385759 7311.62851896217398462 8.009497869018190385759 1542.99557944744969973
9.009497869018204596614 7471.18352172052254900 9.009497869018204596614 1406.55455558746302813
10.009497869018190385759 7600.55344675696323975 10.009497869018190385759 1296.69882259174300998
11.009497869018190385759 7707.71367520861895173 11.009497869018190385759 1203.87426191687336541
12.009497869018204596614 7798.15812302343420015 12.009497869018204596614 1127.75321626246886808
13.009497869018190385759 7875.75861736549450143 13.009497869018190385759 1065.13606789580717304
14.009497869018204596614 7943.30017126238817582 14.009497869018204596614 1013.39098467691758287
15.009497869018190385759 8002.82453857578002498 15.009497869018190385759 970.39197637063705315
16.009497869018190385759 8055.85533828851748694 16.009497869018190385759 934.44134359107636101
17.009497869018204596614 8103.54854352707570797 17.009497869018204596614 904.99117332533944591
18.009497869018190385759 8146.79499867415506742 18.009497869018190385759 879.23700087251552304
19.009497869018204596614 8186.29307757999049500 19.009497869018204596614 858.33011322720608405
20.009497869018190385759 8222.59332328161144687 20.009497869018190385759 839.33277994369063890
21.009497869018190385759 8256.13824281595589127 21.009497869018190385759 822.95058725195451643
22.009497869018204596614 8287.28987792589578021 22.009497869018204596614 808.72773622440274721
23.009497869018190385759 8316.34137522089804406 23.009497869018190385759 796.68724520726107130
24.009497869018204596614 8343.53866374909557635 24.009497869018204596614 785.72525309972627383
25.009497869018204596614 8369.08679235047202383 25.009497869018204596614 776.04106212930332731
26.009497869018190385759 8393.15846183030589600 26.009497869018190385759 767.85431031457710560
27.009497869018204596614 8415.90189121832918318 27.009497869018204596614 760.11943933065890633
28.009497869018190385759 8437.44292215267705615 28.009497869018190385759 753.18796193476657663
29.009497869018190385759 8457.89139367224379384 29.009497869018190385759 747.12528050553532921
30.009497869018190385759 8477.34229362559563015 30.009497869018190385759 741.44759170237887247
31.009497869018218807469 8495.87853887290475541 31.009497869018218807469 736.28500192183844320
32.009497869018190385759 8513.57420617208845215 32.009497869018190385759 731.57674234226942644
33.009497869018190385759 8530.49298456249925948 33.009497869018190385759 727.43858089063894568
34.009497869018218807469 8546.69369729561185522 34.009497869018218807469 723.44308154162786195
35.009497869018190385759 8562.22699267462667194 35.009497869018190385759 719.85373646670211656
36.009497869018190385759 8577.13908128465300251 36.009497869018190385759 716.42922490741466390
37.009497869018190385759 8591.47218741138021869 37.009497869018190385759 713.24737571791683877
38.009497869018218807469 8605.26311234019703988 38.009497869018218807469 710.28496358540326128
39.009497869018190385759 8618.54623024196007464 39.009497869018190385759 707.56890289182979359
40.009497869018190385759 8631.35281195115203445 40.009497869018190385759 705.12418558650949763
41.009497869018218807469 8643.71066068526488380 41.009497869018218807469 702.61130191025927161
42.009497869018190385759 8655.64584072080833721 42.009497869018190385759 700.34757680122061174
43.009497869018190385759 8667.18239105809334433 43.009497869018190385759 698.12032117498927164
44.009497869018218807469 8678.34174978721421212 44.009497869018218807469 696.09593635426108449
46.009497869018190385759 8699.60839984865742736 46.009497869018190385759 692.33962346677708410
48.009497869018218807469 8719.58961933947466605 48.009497869018218807469 688.87768871924561154
50.009497869018190385759 8738.40904671169482754 50.009497869018190385759 685.77339373233428432
52.009497869018190385759 8756.17366044349000731 52.009497869018190385759 682.92142191248728977
54.009497869018218807469 8772.97708676518959692 54.009497869018218807469 680.25413606358438301
56.009497869018190385759 8788.90115116489687352 56.009497869018190385759 677.78836539778626502
58.009497869018218807469 8804.01835093978479563 58.009497869018218807469 675.58204483041583899
60.009497869018190385759 8818.39278339184420474 60.009497869018190385759 673.43611656620350914
62.009497869018190385759 8832.08157272000789817 62.009497869018190385759 671.43137472848229663
64.009497869018218807469 8845.13590961975751270 64.009497869018218807469 669.55125550054174255
66.009497869018190385759 8857.60152099942752102 66.009497869018190385759 667.80151415918066959
68.009497869018190385759 8869.51990550088339660 68.009497869018190385759 666.16527772845506661
70.009497869018190385759 8880.92829075530971750 70.009497869018190385759 664.58448105926663629
72.009497869018190385759 8891.86058279659118853 72.009497869018190385759 663.10243538984900624
74.009497869018218807469 8902.34765132558095502 74.009497869018218807469 661.68765200518510028
76.009497869018190385759 8912.41747601757379016 76.009497869018190385759 660.34188924874104032
78.009497869018190385759 8922.09577522344989120 78.009497869018190385759 659.06581437587692562
80.009497869018218807469 8931.40607853355686530 80.009497869018218807469 657.84331348298258035
82.009497869018190385759 8940.36990768969008059 82.009497869018190385759 656.67287145120690184
84.009497869018218807469 8949.00717744625399064 84.009497869018218807469 655.54282764493245850
86.009497869018190385759 8957.33623528256975987 86.009497869018190385759 654.47376152406604888
88.009497869018190385759 8965.37394823815520795 88.009497869018190385759 653.43615601188321307
91.009497869018218807469 8976.91823147539253114 91.009497869018218807469 651.96240068766394415
94.009497869018218807469 8987.89018294219386007 94.009497869018218807469 650.56914223594856139
97.009497869018218807469 8998.33284950457891682 97.009497869018218807469 649.26075827309057331
99.504748934509137825444 9006.64342072776889836 99.504748934509137825444 648.03769122340349895
nan nan nan nan

