Time Pressure difference Time.1 Pressure.1 difference.1
(hr) (psi) (hr) (psi)
0.000200000000020850166 0.43582081464463401 0.000200000000020850166 0.34737181119179522
0.000399999999999067768 0.87148663108891067 0.000399999999999067768 0.90969764186434254
0.000600000000019917934 1.30702174885875388 0.000600000000019917934 1.33118294897615286
0.000799999999998135536 1.74243654247515378 0.000799999999998135536 1.76040501760170431
0.001007140329434719206 2.19327746615121555 0.001007140329434719206 2.21112823424010552
0.001267914553977789183 2.76068810706216894 0.001267914553977789183 2.78275353630902522
0.001596209851982166583 3.47476600596798102 0.001596209851982166583 3.50192381370860417
0.002009509145224797066 4.37335697030755277 0.002009509145224797066 4.40659899313984926
0.002529822128153114136 5.50403761810877512 0.002529822128153114136 5.54443905117875158
0.003184857364431081805 6.92659863937128684 0.003184857364431081805 6.97524703131123136
0.004009497869034817086 8.71615167407558111 0.004009497869034817086 8.77400795161934610
0.005047658755856332391 10.96701090908189791 0.005047658755856332391 11.03465825952696910
0.006354625877790454069 13.79753406644227454 0.006354625877790454069 13.87474487713967797
0.008000000000009777068 17.35614675001549045 0.008000000000009777068 17.44115802927236558
0.010071403294361402914 21.82881905510014064 0.010071403294361402914 21.91714527354880104
0.012679145539692626699 27.44831300565899923 0.012679145539692626699 27.53083065168573285
0.015962098519750611558 34.50557139903088455 0.015962098519750611558 34.56546446401758033
0.020095091452091651263 43.36366822980254909 0.020095091452091651263 43.37160253996108139
0.025298221281360611101 54.47477939171816530 0.025298221281360611101 54.38133804317968156
0.031848573644296607199 68.40064516228586911 0.031848573644296607199 68.12455165918461830
0.040094978690191851456 85.83695930925112805 0.040094978690191851456 85.24685965592637160
0.050476587558435426217 107.64199643468528222 0.050476587558435426217 106.52845498418949433
0.063546258777947173257 134.86952341130412947 0.063546258777947173257 132.90225913450129269
0.080000000000012505552 168.80555091564721693 0.080000000000012505552 165.46860698022186398
0.100714032943542974863 211.00765297657392239 0.100714032943542974863 205.50192084467187215
0.126791455396883634421 263.34426403409878503 0.126791455396883634421 254.44232803708206347
0.159620985197506115583 328.02936448501310451 0.159620985197506115583 313.86179588417360264
0.200950914520774404082 407.64507234663489044 0.200950914520774404082 385.39005482739230501
0.252982212813464002465 505.14066752559165252 0.252982212813464002465 470.58054502265997598
0.318485736442809752589 623.79137595878796674 0.318485736442809752589 570.69155487079490285
0.400949786901833249431 767.09398414914448949 0.400949786901833249431 686.35439371958113952
0.504765875584169521062 938.56980071254383802 0.504765875584169521062 817.10286934281373306
0.635462587779443310865 1141.44071231783937037 0.635462587779443310865 960.75485174768232355
0.800000000000011368684 1378.14579253275564952 0.800000000000011368684 1112.68227912561837911
1.007140329435344483500 1649.68314718292776888 1.007140329435344483500 1265.10096252899256797
1.267914553968907398485 1954.80831876687739168 1.267914553968907398485 1406.66743239488005202
1.596209851975117999245 2289.21020351076003863 1.596209851975117999245 1522.85167266213329640
2.009509145207687197399 2644.91414113377322792 2.009509145207687197399 1597.62951347386297130
2.529822128134725289783 3010.28002618325308504 2.529822128134725289783 1616.77795644814409570
3.184857364427983839050 3370.96088744680082527 3.184857364427983839050 1572.29125840375377265
4.009497869018204596614 3711.94100839478414855 4.009497869018204596614 1466.61646470633559147
5.009497869018190385759 4010.73672390565343449 5.009497869018190385759 1319.33574001379338370
6.009497869018190385759 4226.79376096022588172 6.009497869018190385759 1178.89181313049925848
7.009497869018204596614 4388.29685235321539949 7.009497869018204596614 1055.76369002327533053
8.009497869018190385759 4512.71300816982238757 8.009497869018190385759 952.33178283917970930
9.009497869018204596614 4611.18982966025214409 9.009497869018204596614 868.12083289497127225
10.009497869018190385759 4691.03652073103512521 10.009497869018190385759 800.31823679396165971
11.009497869018190385759 4757.17546031721576583 11.009497869018190385759 743.02722408061435999
12.009497869018204596614 4812.99747522294364899 12.009497869018204596614 696.04556574974526484
13.009497869018190385759 4860.89224440461657650 13.009497869018190385759 657.39846828904944687
14.009497869018204596614 4902.57866871789337893 14.009497869018204596614 625.46157358151333483
15.009497869018190385759 4939.31691191249592521 15.009497869018190385759 598.92272746550509055
16.009497869018190385759 4972.04734659974383248 16.009497869018190385759 576.73411547906243868
17.009497869018204596614 5001.48343558090437000 17.009497869018204596614 558.55756751764181445
18.009497869018190385759 5028.17500507097338414 18.009497869018190385759 542.66217721695898035
19.009497869018204596614 5052.55308910708481562 19.009497869018204596614 529.75851511314021991
20.009497869018190385759 5074.95748103599999013 20.009497869018190385759 518.03342366371487060
21.009497869018190385759 5095.66129474153149204 21.009497869018190385759 507.92238836280819214
22.009497869018204596614 5114.88798119336843229 22.009497869018204596614 499.14409161553248850
23.009497869018190385759 5132.81846951207353413 23.009497869018190385759 491.71274026926352008
24.009497869018204596614 5149.60454629508330981 24.009497869018204596614 484.94703489311723388
25.009497869018204596614 5165.37276701018527092 25.009497869018204596614 478.96998416461127590
26.009497869018190385759 5180.22972202483015280 26.009497869018190385759 473.91714794445039161
27.009497869018204596614 5194.26689163534138061 27.009497869018204596614 469.14321108276237737
28.009497869018190385759 5207.56194488575147261 28.009497869018190385759 464.86512609401376039
29.009497869018190385759 5220.18267406861650670 29.009497869018190385759 461.12325911060128192
30.009497869018190385759 5232.18770537080399663 30.009497869018190385759 457.61900830629747361
31.009497869018218807469 5243.62821480494949355 31.009497869018218807469 454.43267491995680984
32.009497869018190385759 5254.54992230173775170 32.009497869018190385759 451.52675263527584093
33.009497869018190385759 5264.99213652620710491 33.009497869018190385759 448.97269303497625970
34.009497869018218807469 5274.99116299517208972 34.009497869018218807469 446.50668401391402540
35.009497869018190385759 5284.57826167432813236 35.009497869018190385759 444.29135207132151208
36.009497869018190385759 5293.78195358440279961 36.009497869018190385759 442.17775483096033895
37.009497869018190385759 5302.62829941526888433 37.009497869018190385759 440.21392800493333652
38.009497869018218807469 5311.14001279889635043 38.009497869018218807469 438.38553700677420011
39.009497869018190385759 5319.33830936017329805 39.009497869018190385759 436.70919330426249871
40.009497869018190385759 5327.24248935501054802 40.009497869018190385759 435.20032184609067372
41.009497869018218807469 5334.86971283754792239 41.009497869018218807469 433.64937832859345690
42.009497869018190385759 5342.23606659329016111 42.009497869018190385759 432.25221465705493529
43.009497869018190385759 5349.35638741394632234 43.009497869018190385759 430.87755983002870153
44.009497869018218807469 5356.24390681802196923 44.009497869018218807469 429.62811619509164984
46.009497869018190385759 5369.36961309858270397 46.009497869018190385759 427.30973226924754726
48.009497869018218807469 5381.70195587030048046 48.009497869018218807469 425.17303756052388053
50.009497869018190385759 5393.31724437800767191 50.009497869018190385759 423.25707693255964159
52.009497869018190385759 5404.28150538561749272 52.009497869018190385759 421.49684933114650676
54.009497869018218807469 5414.65252469370989274 54.009497869018218807469 419.85060930190604722
56.009497869018190385759 5424.48080472368201299 56.009497869018190385759 418.32874377908126462
58.009497869018218807469 5433.81109056825425796 58.009497869018218807469 416.96701000134027026
60.009497869018190385759 5442.68294287081971561 60.009497869018190385759 415.64255015393479198
62.009497869018190385759 5451.13161849856805929 62.009497869018190385759 414.40523010332714193
64.009497869018218807469 5459.18871217992182210 64.009497869018218807469 413.24482671647092502
66.009497869018190385759 5466.88244641189703543 66.009497869018190385759 412.16489213122576984
68.009497869018190385759 5474.23843401939029718 68.009497869018190385759 411.15501240248579506
70.009497869018190385759 5481.27965177359601512 70.009497869018190385759 410.17934991172637638
72.009497869018190385759 5488.02702636680078285 72.009497869018190385759 409.26463621234506718
74.009497869018218807469 5494.49961047656597657 74.009497869018218807469 408.39143657328264680
76.009497869018190385759 5500.71467306620434101 76.009497869018190385759 407.56083623832773810
78.009497869018190385759 5506.68808741706470755 78.009497869018190385759 406.77324703528802274
80.009497869018218807469 5512.43437591470410553 80.009497869018218807469 406.01872351599871536
82.009497869018190385759 5517.96682170718122507 82.009497869018190385759 405.29633055410181441
84.009497869018218807469 5523.29771611523847241 84.009497869018218807469 404.59887124375103440
86.009497869018190385759 5528.43838314259937761 86.009497869018190385759 403.93904715972979602
88.009497869018190385759 5533.39923307042772649 88.009497869018190385759 403.29864045963103081
91.009497869018218807469 5540.52432661143302539 91.009497869018218807469 402.38904353396452507
94.009497869018218807469 5547.29617887127187714 94.009497869018218807469 401.52912901252886968
97.009497869018218807469 5553.74135823368669662 97.009497869018218807469 400.72159874570019156
99.504748934509137825444 5558.87061538439411379 99.504748934509137825444 399.96672579630563860
nan nan nan nan

