Time Pressure difference Time.1 Pressure.1 difference.1
(hr) (psi) (hr) (psi)
0.000200000000020850166 0.80094550477630266 0.000200000000020850166 0.63839514156049393
0.000399999999999067768 1.60160615598973477 0.000399999999999067768 1.67182982655603407
0.000600000000019917934 2.40202661097515247 0.000600000000019917934 2.44642973256495244
0.000799999999998135536 3.20222593588468118 0.000799999999998135536 3.23524815257717790
0.001007140329434719206 4.03077519065576428 0.001007140329434719206 4.06358108697179699
0.001267914553977789183 5.07355467003982508 0.001267914553977789183 5.11410621272059451
0.001596209851982166583 6.38587722089153775 0.001596209851982166583 6.43578746679653779
0.002009509145224797066 8.03729534810338464 0.002009509145224797066 8.09838708090395976
0.002529822128153114136 10.11524470656250152 0.002529822128153114136 10.18949390512431030
0.003184857364431081805 12.72960780479875709 0.003184857364431081805 12.81901315105480244
0.004009497869034817086 16.01842378269997269 0.004009497869034817086 16.12475125459815217
0.005047658755856332391 20.15502195695776422 0.005047658755856332391 20.27934332810013984
0.006354625877790454069 25.35691852287005688 0.006354625877790454069 25.49881548985784363
0.008000000000009777068 31.89688801577274191 0.008000000000009777068 32.05312057669711123
0.010071403294361402914 40.11670372149129093 0.010071403294361402914 40.27902843211354167
0.012679145539692626699 50.44413248940766437 0.012679145539692626699 50.59578228544533829
0.015962098519750611558 63.41386499478386440 0.015962098519750611558 63.52393564665825920
0.020095091452091651263 79.69315363606841629 0.020095091452091651263 79.70773520225671405
0.025298221281360611101 100.11300105768052049 0.025298221281360611101 99.94127583126343950
0.031848573644296607199 125.70576582305587010 0.031848573644296607199 125.19836497670762299
0.040094978690191851456 157.74998437940618601 0.040094978690191851456 156.66550734476544449
0.050476587558435426217 197.82298199733193655 0.050476587558435426217 195.77653082018031228
0.063546258777947173257 247.86135695627075393 0.063546258777947173257 244.24594569947475975
0.080000000000012505552 310.22852200719131588 0.080000000000012505552 304.09593229380470802
0.100714032943542974863 387.78696529855096742 0.100714032943542974863 377.66860643782251827
0.126791455396883634421 483.97046997106320987 0.126791455396883634421 467.61061431242370645
0.159620985197506115583 602.84785877684657862 0.159620985197506115583 576.81089587110523098
0.200950914520774404082 749.16451272864389921 0.200950914520774404082 708.26454732591378161
0.252982212813464002465 928.34057791439852281 0.252982212813464002465 864.82645965042286207
0.318485736442809752589 1146.39521955784880447 0.318485736442809752589 1048.80909797819754203
0.400949786901833249431 1409.75478384661460041 0.400949786901833249431 1261.37267395411572579
0.504765875584169521062 1724.89068337057210556 0.504765875584169521062 1501.66042591055270350
0.635462587779443310865 2097.72405717954052307 0.635462587779443310865 1765.66206533018726077
0.800000000000011368684 2532.73740116229691921 0.800000000000011368684 2044.87220381292058846
1.007140329435344483500 3031.76502049076225376 1.007140329435344483500 2324.98516586912182902
1.267914553968907398485 3592.51986826813572407 1.267914553968907398485 2585.15407900051422985
1.596209851975117999245 4207.07905721538554644 1.596209851975117999245 2798.67587933899676500
2.009509145207687197399 4860.78686624393776583 2.009509145207687197399 2936.10156770101139045
2.529822128134725289783 5532.25126949326840986 2.529822128134725289783 2971.29231309076840262
3.184857364427983839050 6195.10560040318523534 3.184857364427983839050 2889.53527069239453340
4.009497869018204596614 6821.75418145835283212 4.009497869018204596614 2695.32758685534599863
5.009497869018190385759 7370.87684183424426010 5.009497869018190385759 2424.65709472000571623
6.009497869018190385759 7767.94349581049027620 6.009497869018190385759 2166.55117565776890842
7.009497869018204596614 8064.75165804607968312 7.009497869018204596614 1940.26800284811861275
8.009497869018190385759 8293.40195967087493045 8.009497869018190385759 1750.18226502696575153
9.009497869018204596614 8474.38130908935636398 9.009497869018204596614 1595.42053831652151530
10.009497869018190385759 8621.12246080913428159 10.009497869018190385759 1470.81385884081123550
11.009497869018190385759 8742.67169520129573357 11.009497869018190385759 1365.52522288097634373
12.009497869018204596614 8845.26062717499189603 12.009497869018204596614 1279.18297675000894742
13.009497869018190385759 8933.28097588100354187 13.009497869018190385759 1208.15787206556251476
14.009497869018204596614 9009.89171369337964279 14.009497869018204596614 1149.46468579961310752
15.009497869018190385759 9077.40875223613329581 15.009497869018190385759 1100.69195906351410486
16.009497869018190385759 9137.56029537319409428 16.009497869018190385759 1059.91403283652130085
17.009497869018204596614 9191.65753523742569087 17.009497869018204596614 1026.50942274711655955
18.009497869018190385759 9240.71093489188569947 18.009497869018190385759 997.29709286246475131
19.009497869018204596614 9285.51264276740948844 19.009497869018204596614 973.58291995029389909
20.009497869018190385759 9326.68712640776357148 20.009497869018190385759 952.03470799266688118
21.009497869018190385759 9364.73631075590674300 21.009497869018190385759 933.45278624691661662
22.009497869018204596614 9400.07085093361456529 22.009497869018204596614 917.32015310259112084
23.009497869018190385759 9433.02325599260802846 23.009497869018190385759 903.66291770858936161
24.009497869018204596614 9463.87247725603992876 24.009497869018204596614 891.22899733219833251
25.009497869018204596614 9492.85109662368085992 25.009497869018204596614 880.24445563076460530
26.009497869018190385759 9520.15500440822688688 26.009497869018190385759 870.95842265363683055
27.009497869018204596614 9545.95232184128690278 27.009497869018204596614 862.18494708530568005
28.009497869018190385759 9570.38578802476877172 28.009497869018190385759 854.32274127583070822
29.009497869018190385759 9593.57999070243931783 29.009497869018190385759 847.44598954868126839
30.009497869018190385759 9615.64267227497111890 30.009497869018190385759 841.00592557054289955
31.009497869018218807469 9636.66788331520547217 31.009497869018218807469 835.15012585480610596
32.009497869018190385759 9656.73964728353530518 32.009497869018190385759 829.80966180872258064
33.009497869018190385759 9675.93020510445967375 33.009497869018190385759 825.11584616924062630
34.009497869018218807469 9694.30627855792226910 34.009497869018218807469 820.58384867442589439
35.009497869018190385759 9711.92531677934857726 35.009497869018190385759 816.51254207000499719
36.009497869018190385759 9728.83973530874027347 36.009497869018190385759 812.62820210346330896
37.009497869018190385759 9745.09742812386139121 37.009497869018190385759 809.01910814647101233
38.009497869018218807469 9760.74013802545232465 38.009497869018218807469 805.65891629298380394
39.009497869018190385759 9775.80685479741805466 39.009497869018190385759 802.57815487023810874
40.009497869018190385759 9790.33304818487704324 40.009497869018190385759 799.80517163699482808
41.009497869018218807469 9804.35025469953870925 41.009497869018218807469 796.95486895121268844
42.009497869018190385759 9817.88803841476874368 42.009497869018190385759 794.38718075332792523
43.009497869018190385759 9830.97366618250271131 43.009497869018190385759 791.86085900060618314
44.009497869018218807469 9843.63145470563904382 44.009497869018218807469 789.56464865624661797
46.009497869018190385759 9867.75369735483582190 46.009497869018190385759 785.30395453298740449
48.009497869018218807469 9890.41790744866193563 48.009497869018218807469 781.37716635645892893
50.009497869018190385759 9911.76432506874334649 50.009497869018190385759 777.85604024056294747
52.009497869018190385759 9931.91429329455968400 52.009497869018190385759 774.62111814101922391
54.009497869018218807469 9950.97401007641747128 54.009497869018218807469 771.59568083537305938
56.009497869018190385759 9969.03628807043241977 56.009497869018190385759 768.79881728865518653
58.009497869018218807469 9986.18335919318451488 58.009497869018218807469 766.29624166276846609
60.009497869018190385759 10002.48792745152604766 60.009497869018190385759 763.86216755389170885
62.009497869018190385759 10018.01478743152802053 62.009497869018190385759 761.58823776622909918
64.009497869018218807469 10032.82200349096274294 64.009497869018218807469 759.45566436633873764
66.009497869018190385759 10046.96144254705541243 66.009497869018190385759 757.47097542437109041
68.009497869018190385759 10060.48017549746691657 68.009497869018190385759 755.61503233510268274
70.009497869018190385759 10073.42042873658829194 70.009497869018190385759 753.82197321563455716
72.009497869018190385759 10085.82066105196463468 72.009497869018190385759 752.14092494749672824
74.009497869018218807469 10097.71588719262035738 74.009497869018218807469 750.53617064899083289
76.009497869018190385759 10109.13784382205267320 76.009497869018190385759 749.00970476623979266
78.009497869018190385759 10120.11570263861358399 78.009497869018190385759 747.56228415072962434
80.009497869018218807469 10130.67615268294139241 80.009497869018218807469 746.17563119447845565
82.009497869018190385759 10140.84360554201521154 82.009497869018190385759 744.84802733511469341
84.009497869018218807469 10150.64065003620999050 84.009497869018218807469 743.56624619796230036
86.009497869018190385759 10160.08809726397521445 86.009497869018190385759 742.35363056263327053
88.009497869018190385759 10169.20507909698790172 88.009497869018190385759 741.17669992867308792
91.009497869018218807469 10182.29947810459816537 91.009497869018218807469 739.50505519696150714
94.009497869018218807469 10194.74469513937765441 94.009497869018218807469 737.92471610508653157
97.009497869018218807469 10206.58955721190795884 97.009497869018218807469 736.44064807654444849
99.504748934509137825444 10216.01603552513734030 99.504748934509137825444 735.05335294244719080
nan nan nan nan

