Time Pressure difference Time.1 Pressure.1 difference.1
(hr) (psi) (hr) (psi)
0.000200000000020850166 0.47241645556899259 0.000200000000020850166 0.37654043655904523
0.000399999999999067768 0.94466489782156726 0.000399999999999067768 0.98608446675371464
0.000600000000019917934 1.41677166670185528 0.000600000000019917934 1.44296166988254737
0.000799999999998135536 1.88874800787383079 0.000799999999998135536 1.90822528625528265
0.001007140329434719206 2.37744580300360786 0.001007140329434719206 2.39679549055034302
0.001267914553977789183 2.99250161223532807 0.001267914553977789183 3.01641986378535520
0.001596209851982166583 3.76654025074391852 0.001596209851982166583 3.79597848508871571
0.002009509145224797066 4.74058541819597323 0.002009509145224797066 4.77661875592258500
0.002529822128153114136 5.96620871581256562 0.002529822128153114136 6.01000263562887671
0.003184857364431081805 7.50822142588337904 0.003184857364431081805 7.56095479729919795
0.004009497869034817086 9.44804227266208052 0.004009497869034817086 9.51075671091562747
0.005047658755856332391 11.88790495488266785 0.005047658755856332391 11.96123261719717412
0.006354625877790454069 14.95610562927330633 0.006354625877790454069 15.03979979048728488
0.008000000000009777068 18.81353311833739994 0.008000000000009777068 18.90568274928759962
0.010071403294361402914 23.66177332690244484 0.010071403294361402914 23.75751625071702122
0.012679145539692626699 29.75313318170670129 0.012679145539692626699 29.84257979037689879
0.015962098519750611558 37.40298579131591339 0.015962098519750611558 37.46790804496562544
0.020095091452091651263 47.00489227963329597 0.020095091452091651263 47.01349282957612985
0.025298221281360611101 59.04899750858000118 0.025298221281360611101 58.94770993993522978
0.031848573644296607199 74.14421078659994180 0.031848573644296607199 73.84493385957416933
0.040094978690191851456 93.04464291537144049 0.040094978690191851456 92.40499290947744271
0.050476587558435426217 116.68063735668175696 0.050476587558435426217 115.47359242560999348
0.063546258777947173257 146.19444522446710266 0.063546258777947173257 144.06199081755104885
0.080000000000012505552 182.98006282459468252 0.080000000000012505552 179.36291749001148332
0.100714032943542974863 228.72585284483585610 0.100714032943542974863 222.75780732781225879
0.126791455396883634421 285.45714116673309491 0.126791455396883634421 275.80771436080652848
0.159620985197506115583 355.57381493795310234 0.159620985197506115583 340.21660317215764735
0.200950914520774404082 441.87481124597070448 0.200950914520774404082 417.75105179763136221
0.252982212813464002465 547.55705945522151978 0.252982212813464002465 510.09494193295961395
0.318485736442809752589 676.17080447441139768 0.318485736442809752589 618.61221978360981666
0.400949786901833249431 831.50645610059928003 0.400949786901833249431 743.98720540595809325
0.504765875584169521062 1017.38100535252851842 0.504765875584169521062 885.71456066167593235
0.635462587779443310865 1237.28687900101681407 0.635462587779443310865 1041.42892326848027551
0.800000000000011368684 1493.86795831794893274 0.800000000000011368684 1206.11361554074642299
1.007140329435344483500 1788.20615954179970686 1.007140329435344483500 1371.33081434440396151
1.267914553968907398485 2118.95252873966865081 1.267914553968907398485 1524.78454503872490022
1.596209851975117999245 2481.43396105746523972 1.596209851975117999245 1650.72471387803761900
2.009509145207687197399 2867.00616825187671566 2.009509145207687197399 1731.78161002510341859
2.529822128134725289783 3263.05163143528216096 2.529822128134725289783 1752.53793752394221883
3.184857364427983839050 3654.01867188889809768 3.184857364427983839050 1704.31571521628279697
4.009497869018204596614 4023.63071138976602015 4.009497869018204596614 1589.76746555953945972
5.009497869018190385759 4347.51614347024951712 5.009497869018190385759 1430.11965711418815772
6.009497869018190385759 4581.71537447596892889 6.009497869018190385759 1277.88272873687719766
7.009497869018204596614 4756.77979415386653272 7.009497869018204596614 1144.41560292599319837
8.009497869018190385759 4891.64310809247854195 8.009497869018190385759 1032.29857376460699925
9.009497869018204596614 4998.38897566225750779 9.009497869018204596614 941.01647535180086379
10.009497869018190385759 5084.94035071608414000 10.009497869018190385759 867.52053148658433201
11.009497869018190385759 5156.63294171789766551 11.009497869018190385759 805.41882304921557534
12.009497869018204596614 5217.14230138670245651 12.009497869018204596614 754.49213997300626033
13.009497869018190385759 5269.05876874393561593 13.009497869018190385759 712.59986638965676775
14.009497869018204596614 5314.24557983160957519 14.009497869018204596614 677.98124769904495679
15.009497869018190385759 5354.06871367613985058 15.009497869018190385759 649.21394885573829470
16.009497869018190385759 5389.54750547453204490 16.009497869018190385759 625.16217097730429941
17.009497869018204596614 5421.45532711823216232 17.009497869018204596614 605.45934799622239098
18.009497869018190385759 5450.38817343571190577 18.009497869018190385759 588.22923026571129412
19.009497869018204596614 5476.81327216187855811 19.009497869018204596614 574.24205455012145194
20.009497869018190385759 5501.09894890925170330 20.009497869018190385759 561.53241343700392463
21.009497869018190385759 5523.54125078853121522 21.009497869018190385759 550.57235990472338472
22.009497869018204596614 5544.38239182792585780 22.009497869018204596614 541.05695427027183086
23.009497869018190385759 5563.81849366957703751 23.009497869018190385759 533.00159632240786323
24.009497869018204596614 5582.01408835039455880 24.009497869018204596614 525.66777828108888571
25.009497869018204596614 5599.10635813317821885 25.009497869018204596614 519.18883779675422829
26.009497869018190385759 5615.21084372157110920 26.009497869018190385759 513.71171761917514687
27.009497869018204596614 5630.42670696349978243 27.009497869018204596614 508.53691583016984623
28.009497869018190385759 5644.83813873112012516 28.009497869018190385759 503.89960233091574082
29.009497869018190385759 5658.51862379956946825 29.009497869018190385759 499.84353277637694646
30.009497869018190385759 5671.53171116529938445 30.009497869018190385759 496.04503190453624484
31.009497869018218807469 5683.93287406338095025 31.009497869018218807469 492.59114380636538044
32.009497869018190385759 5695.77167150264631346 32.009497869018190385759 489.44121278022259958
33.009497869018190385759 5707.09071287573533482 33.009497869018190385759 486.67269016005059257
34.009497869018218807469 5717.92935225430846913 34.009497869018218807469 483.99961167920446314
35.009497869018190385759 5728.32147448667637946 35.009497869018190385759 481.59825949715764182
36.009497869018190385759 5738.29799548843584489 36.009497869018190385759 479.30718462592642481
37.009497869018190385759 5747.88716425166512636 37.009497869018190385759 477.17845631069110368
38.009497869018218807469 5757.11360165987207438 38.009497869018218807469 475.19653629741935674
39.009497869018190385759 5766.00030480263012578 39.009497869018190385759 473.37943090996390083
40.009497869018190385759 5774.56819456802713830 40.009497869018190385759 471.74386032171656780
41.009497869018218807469 5782.83587193077710253 41.009497869018218807469 470.06268490580356456
42.009497869018190385759 5790.82077447516985558 42.009497869018190385759 468.54820214734201045
43.009497869018190385759 5798.53898483038483391 43.009497869018190385759 467.05811828903875949
44.009497869018218807469 5806.00484555846560397 44.009497869018218807469 465.70375953971768013
46.009497869018190385759 5820.23271038166876679 46.009497869018190385759 463.19070215445151462
48.009497869018218807469 5833.60059338612609281 48.009497869018218807469 460.87459033278156539
50.009497869018190385759 5846.19121146318411775 50.009497869018190385759 458.79774751468301019
52.009497869018190385759 5858.07613560883783066 52.009497869018190385759 456.88971454215879930
54.009497869018218807469 5869.31800386646409606 54.009497869018218807469 455.10524061733332246
56.009497869018190385759 5879.97155931880115531 56.009497869018190385759 453.45558485976749807
58.009497869018218807469 5890.08530428009180469 58.009497869018218807469 451.97950702435360881
60.009497869018190385759 5899.70212127982085804 60.009497869018190385759 450.54383299128812723
62.009497869018190385759 5908.86022768547081796 62.009497869018190385759 449.20261583719428700
64.009497869018218807469 5917.59387121793042752 64.009497869018218807469 447.94477399800666717
66.009497869018190385759 5925.93364420220859756 66.009497869018190385759 446.77415788270275243
68.009497869018190385759 5933.90731015842266061 68.009497869018190385759 445.67947909277086183
70.009497869018190385759 5941.53977520496664511 70.009497869018190385759 444.62189074400873778
72.009497869018190385759 5948.85372323729552591 72.009497869018190385759 443.63036902406867057
74.009497869018218807469 5955.86980677612427826 74.009497869018218807469 442.68384727790942179
76.009497869018190385759 5962.60674485039089632 76.009497869018190385759 441.78350187666063675
78.009497869018190385759 5969.08174361239071004 78.009497869018190385759 440.92977922909079780
80.009497869018218807469 5975.31054488464178576 80.009497869018218807469 440.11189877306730978
82.009497869018190385759 5981.30754719404376374 82.009497869018190385759 439.32884686017143849
84.009497869018218807469 5987.08607395697617903 84.009497869018218807469 438.57282226421864380
86.009497869018190385759 5992.65840004770325322 86.009497869018190385759 437.85759310443995673
88.009497869018190385759 5998.03580989313650207 88.009497869018190385759 437.16341179593598554
91.009497869018218807469 6005.75919373147644365 91.009497869018218807469 436.17743650246535481
94.009497869018218807469 6013.09967480702653120 94.009497869018218807469 435.24531541816111258
97.009497869018218807469 6020.08605243651527417 97.009497869018218807469 434.36997726633154571
99.504748934509137825444 6025.64601056934316148 99.504748934509137825444 433.55171803874344505
nan nan nan nan

