Time Pressure difference Time.1 Pressure.1 difference.1
(hr) (psi) (hr) (psi)
0.000200000000020850166 0.00499031467150344 0.000200000000020850166 0.00397753982280682
0.000399999999999067768 0.00997885455445318 0.000399999999999067768 0.01041638521218713
0.000600000000019917934 0.01496589788769566 0.000600000000019917934 0.01524255285087198
0.000799999999998135536 0.01995156346345596 0.000799999999998135536 0.02015730936185157
0.001007140329434719206 0.02511386411623529 0.001007140329434719206 0.02531826222412335
0.001267914553977789183 0.03161093252361263 0.001267914553977789183 0.03186359011040869
0.001596209851982166583 0.03978739701490055 0.001596209851982166583 0.04009836427910615
0.002009509145224797066 0.05007660653023915 0.002009509145224797066 0.05045724037946393
0.002529822128153114136 0.06302333150506231 0.002529822128153114136 0.06348594333410786
0.003184857364431081805 0.07931219816073992 0.003184857364431081805 0.07986924081654083
0.004009497869034817086 0.09980326344361354 0.004009497869034817086 0.10046573990403833
0.005047658755856332391 0.12557646079101412 0.005047658755856332391 0.12635104877320957
0.006354625877790454069 0.15798703129514052 0.006354625877790454069 0.15887112454740088
0.008000000000009777068 0.19873450477116975 0.008000000000009777068 0.19970791636571408
0.010071403294361402914 0.24994830979122301 0.010071403294361402914 0.25095967870475727
0.012679145539692626699 0.31429366037014123 0.012679145539692626699 0.31523851891243204
0.015962098519750611558 0.39510196258432312 0.015962098519750611558 0.39578776103836921
0.020095091452091651263 0.49653055224964754 0.020095091452091651263 0.49662140312932529
0.025298221281360611101 0.62375701593570410 0.025298221281360611101 0.62268707683030178
0.031848573644296607199 0.78321349422464714 0.031848573644296607199 0.78005211823493836
0.040094978690191851456 0.98286594628913504 0.040094978690191851456 0.97610908002969121
0.050476587558435426217 1.23254194390861005 0.050476587558435426217 1.21979146928461279
0.063546258777947173257 1.54430751997676485 0.063546258777947173257 1.52178159314314465
0.080000000000012505552 1.93288798758374636 0.080000000000012505552 1.89467870588040310
0.100714032943542974863 2.41611816385390021 0.100714032943542974863 2.35307542951914339
0.126791455396883634421 3.01539233626830683 0.126791455396883634421 2.91346177141697016
0.159620985197506115583 3.75606142540091303 0.159620985197506115583 3.59383735745236921
0.200950914520774404082 4.66769166809123970 0.200950914520774404082 4.41286322321441649
0.252982212813464002465 5.78405344494952267 0.252982212813464002465 5.38832685140450351
0.318485736442809752589 7.14264934303955634 0.318485736442809752589 6.53463612447475128
0.400949786901833249431 8.78351890247111911 0.400949786901833249431 7.85901977541505037
0.504765875584169521062 10.74698245090699089 0.504765875584169521062 9.35613972529939275
0.635462587779443310865 13.06993182043327550 0.635462587779443310865 11.00100975283605820
0.800000000000011368684 15.78029533434452780 0.800000000000011368684 12.74063678388112386
1.007140329435344483500 18.88950168530070073 1.007140329435344483500 14.48588888391976148
1.267914553968907398485 22.38330135992607950 1.267914553968907398485 16.10687899688793934
1.596209851975117999245 26.21233057455068405 1.596209851975117999245 17.43723289307786217
2.009509145207687197399 30.28527642519587815 2.009509145207687197399 18.29346771153278084
2.529822128134725289783 34.46885526164030722 2.529822128134725289783 18.51272469215431826
3.184857364427983839050 38.59878878755878873 3.184857364427983839050 18.00333501989030793
4.009497869018204596614 42.50314131749752988 4.009497869018204596614 16.79331829816414867
5.009497869018190385759 45.92446630426320553 5.009497869018190385759 15.10689778641748227
6.009497869018190385759 48.39840184305602122 6.009497869018190385759 13.49876121905151827
7.009497869018204596614 50.24767388190704054 7.009497869018204596614 12.08889721400696970
8.009497869018190385759 51.67228635308956086 8.009497869018190385759 10.90456239892190560
9.009497869018204596614 52.79988354572807197 9.009497869018204596614 9.94031488047676959
10.009497869018190385759 53.71415863432483206 10.009497869018190385759 9.16394927626673628
11.009497869018190385759 54.47147473645667048 11.009497869018190385759 8.50794531390016395
12.009497869018204596614 55.11065811323981478 12.009497869018204596614 7.96998739408105283
13.009497869018190385759 55.65907150081621779 13.009497869018190385759 7.52746337735552817
14.009497869018204596614 56.13639697005221052 14.009497869018204596614 7.16177374329977035
15.009497869018190385759 56.55706387686063152 15.009497869018190385759 6.85789382594089858
16.009497869018190385759 56.93183984656196372 16.009497869018190385759 6.60382574976025705
17.009497869018204596614 57.26889430054470864 17.009497869018204596614 6.39569733798826512
18.009497869018190385759 57.57452295882794857 18.009497869018190385759 6.21368905210258404
19.009497869018204596614 57.85366132565364694 19.009497869018204596614 6.06593719595198611
20.009497869018190385759 58.11020016453434778 20.009497869018190385759 5.93168042363032288
21.009497869018190385759 58.34726673368166416 21.009497869018190385759 5.81590521026116214
22.009497869018204596614 58.56741963198513190 22.009497869018204596614 5.71539036200991291
23.009497869018190385759 58.77273056693214670 23.009497869018190385759 5.63029855270149149
24.009497869018204596614 58.96493755299713513 24.009497869018204596614 5.55282864381431995
25.009497869018204596614 59.14548969858990546 25.009497869018204596614 5.48438913165585440
26.009497869018190385759 59.31560750410109506 26.009497869018190385759 5.42653222837156868
27.009497869018204596614 59.47633845383978723 27.009497869018204596614 5.37186882919193565
28.009497869018190385759 59.62857188800478525 28.009497869018190385759 5.32288312321389867
29.009497869018190385759 59.77308405422080284 29.009497869018190385759 5.28003731806031951
30.009497869018190385759 59.91054624470385903 30.009497869018190385759 5.23991230885073467
31.009497869018218807469 60.04154444433149251 31.009497869018218807469 5.20342757541935264
32.009497869018190385759 60.16660216376034498 32.009497869018190385759 5.17015365612911282
33.009497869018190385759 60.28616950220847315 33.009497869018190385759 5.14090869887377444
34.009497869018218807469 60.40066217170044638 34.009497869018218807469 5.11267195435779342
35.009497869018190385759 60.51043811077475709 35.009497869018190385759 5.08730555806856710
36.009497869018190385759 60.61582389600461340 36.009497869018190385759 5.06310406294992710
37.009497869018190385759 60.71711793223590803 37.009497869018190385759 5.04061749623969479
38.009497869018218807469 60.81458029922400499 38.009497869018218807469 5.01968172145161251
39.009497869018190385759 60.90845392397145730 39.009497869018190385759 5.00048694623201317
40.009497869018190385759 60.99895980177493016 40.009497869018190385759 4.98320979213080850
41.009497869018218807469 61.08629442180398428 41.009497869018218807469 4.96545089689229169
42.009497869018190385759 61.17064198389264362 42.009497869018190385759 4.94945283958459825
43.009497869018190385759 61.25217237496885758 43.009497869018190385759 4.93371251713773340
44.009497869018218807469 61.33103710096970929 44.009497869018218807469 4.91940591063081989
46.009497869018190385759 61.48133144769369096 46.009497869018190385759 4.89285952980054439
48.009497869018218807469 61.62254147943092164 48.009497869018218807469 4.86839355985332656
50.009497869018190385759 61.75554096616038890 50.009497869018190385759 4.84645507938045395
52.009497869018190385759 61.88108593952996728 52.009497869018190385759 4.82629980150167803
54.009497869018218807469 61.99983806901194328 54.009497869018218807469 4.80744972483098554
56.009497869018190385759 62.11237562660705436 56.009497869018190385759 4.79002378372993842
58.009497869018218807469 62.21921096070520463 58.009497869018218807469 4.77443141222908718
60.009497869018190385759 62.32079705577275064 60.009497869018190385759 4.75926584145726927
62.009497869018190385759 62.41753761639581910 62.009497869018190385759 4.74509805461824996
64.009497869018218807469 62.50979441427391237 64.009497869018218807469 4.73181099293668961
66.009497869018190385759 62.59789060776980563 66.009497869018190385759 4.71944532974686037
68.009497869018190385759 62.68211947350447133 68.009497869018190385759 4.70788182140250910
70.009497869018190385759 62.76274410427782158 70.009497869018190385759 4.69671011349305001
72.009497869018190385759 62.84000411870383118 72.009497869018190385759 4.68623629250776741
74.009497869018218807469 62.91411767721257320 74.009497869018218807469 4.67623782335819804
76.009497869018190385759 62.98528251602525785 76.009497869018190385759 4.66672713249993620
78.009497869018190385759 63.05368039027172955 78.009497869018190385759 4.65770893551856435
80.009497869018218807469 63.11947758680959453 80.009497869018218807469 4.64906935323662651
82.009497869018190385759 63.18282620275399353 82.009497869018190385759 4.64079767810040256
84.009497869018218807469 63.24386697841875105 84.009497869018218807469 4.63281150279104192
86.009497869018190385759 63.30272957796869093 86.009497869018190385759 4.62525626518774580
88.009497869018190385759 63.35953320309649683 88.009497869018190385759 4.61792336404157666
91.009497869018218807469 63.44111824364236440 91.009497869018218807469 4.60750813206829601
94.009497869018218807469 63.51865853669394824 94.009497869018218807469 4.59766178258620872
97.009497869018218807469 63.59245830038572933 97.009497869018218807469 4.58841525281336082
99.504748934509137825444 63.65119025249306617 99.504748934509137825444 4.57977166942334701
nan nan nan nan

