Time Pressure difference Time.1 Pressure.1 difference.1
(hr) (psi) (hr) (psi)
0.000200000000020850166 0.45744551155448226 0.000200000000020850166 0.36460781709062473
0.000399999999999067768 0.91472833415820776 0.000399999999999067768 0.95483531111715347
0.000600000000019917934 1.37187397303876835 0.000600000000019917934 1.39723401132993152
0.000799999999998135536 1.82889331748346273 0.000799999999998135536 1.84775335816972786
0.001007140329434719206 2.30210421065490189 0.001007140329434719206 2.32084070387797325
0.001267914553977789183 2.89766881466449000 0.001267914553977789183 2.92082909345412922
0.001596209851982166583 3.64717805969921693 0.001596209851982166583 3.67568339225139740
0.002009509145224797066 4.59035559860525577 0.002009509145224797066 4.62524703478419408
0.002529822128153114136 5.77713872129737815 0.002529822128153114136 5.81954480562655263
0.003184857364431081805 7.27028483140115966 0.003184857364431081805 7.32134707484957481
0.004009497869034817086 9.14863248233124082 0.004009497869034817086 9.20935949120351260
0.005047658755856332391 11.51117557250962520 0.005047658755856332391 11.58217947087754496
0.006354625877790454069 14.48214453538788327 0.006354625877790454069 14.56318641684508108
0.008000000000009777068 18.21732960402389168 0.008000000000009777068 18.30655900019045745
0.010071403294361402914 22.91192839752877575 0.010071403294361402914 23.00463721460274868
0.012679145539692626699 28.81025220059627756 0.012679145539692626699 28.89686423363960444
0.015962098519750611558 36.21767990356295286 0.015962098519750611558 36.28054476185051413
0.020095091452091651263 45.51530062288435374 0.020095091452091651263 45.52362862018815548
0.025298221281360611101 57.17772646077288101 0.025298221281360611101 57.07964870944432079
0.031848573644296607199 71.79457030392599393 0.031848573644296607199 71.50477750486933814
0.040094978690191851456 90.09604507650404059 0.040094978690191851456 89.47666566938836752
0.050476587558435426217 112.98301152495592703 0.050476587558435426217 111.81421801775614711
0.063546258777947173257 141.56152266453679545 0.063546258777947173257 139.49664603812161090
0.080000000000012505552 177.18139886184343368 0.080000000000012505552 173.67888137237028445
0.100714032943542974863 221.47749835327417145 0.100714032943542974863 215.69858103925480464
0.126791455396883634421 276.41096415792810603 0.126791455396883634421 267.06732904655564198
0.159620985197506115583 344.30563066175039921 0.159620985197506115583 329.43509109980050198
0.200950914520774404082 427.87173624169696495 0.200950914520774404082 404.51246212798810120
0.252982212813464002465 530.20489912037294289 0.252982212813464002465 493.92996137874615670
0.318485736442809752589 654.74285644529277306 0.318485736442809752589 599.00831141018556991
0.400949786901833249431 805.15589939318601864 0.400949786901833249431 720.41014607971305850
0.504765875584169521062 985.14005799980759548 0.504765875584169521062 857.64614148577777542
0.635462587779443310865 1198.07708353971702309 0.635462587779443310865 1008.42589400997189841
0.800000000000011368684 1446.52707231491513085 0.800000000000011368684 1167.89170518910304963
1.007140329435344483500 1731.53765448589751941 1.007140329435344483500 1327.87314769264480674
1.267914553968907398485 2051.80262465989062548 1.267914553968907398485 1476.46390804806128472
1.596209851975117999245 2402.79696933381273993 1.596209851975117999245 1598.41301519880403248
2.009509145207687197399 2776.15033897628882187 2.009509145207687197399 1676.90120689050490910
2.529822128134725289783 3159.64506565036117536 2.529822128134725289783 1696.99976344747938128
3.184857364427983839050 3538.22230552622204414 3.184857364427983839050 1650.30571015661189449
4.009497869018204596614 3896.12128743727316760 4.009497869018204596614 1539.38751066504687515
5.009497869018190385759 4209.74274455746035528 5.009497869018190385759 1384.79896375493581218
6.009497869018190385759 4436.52016894680127734 6.009497869018190385759 1237.38644507972253450
7.009497869018204596614 4606.03677250814598665 7.009497869018204596614 1108.14891128397243847
8.009497869018190385759 4736.62624903321011516 8.009497869018190385759 999.58488656784129489
9.009497869018204596614 4839.98932502507341269 9.009497869018204596614 911.19553071037069003
10.009497869018190385759 4923.79787481310904695 10.009497869018190385759 840.02868365778408588
11.009497869018190385759 4993.21851750852783880 11.009497869018190385759 779.89498710751513499
12.009497869018204596614 5051.81032704698372982 12.009497869018204596614 730.58217779076312581
13.009497869018190385759 5102.08155424148662860 13.009497869018190385759 690.01747625759014682
14.009497869018204596614 5145.83638892145336285 14.009497869018204596614 656.49592646914550187
15.009497869018190385759 5184.39752204555770732 15.009497869018190385759 628.64026737791573396
16.009497869018190385759 5218.75198593484583398 16.009497869018190385759 605.35069372802354337
17.009497869018204596614 5249.64864421659876825 17.009497869018204596614 586.27225598225754766
18.009497869018190385759 5277.66460455922879191 18.009497869018190385759 569.58816310940358107
19.009497869018204596614 5303.25228818491814309 19.009497869018204596614 556.04424296226545721
20.009497869018190385759 5326.76834841564868839 20.009497869018190385759 543.73737216611289114
21.009497869018190385759 5348.49945058748562587 21.009497869018190385759 533.12464427393990718
22.009497869018204596614 5368.68013293197145686 22.009497869018204596614 523.91078318424217741
23.009497869018190385759 5387.50030196878014976 23.009497869018190385759 516.11070066430329462
24.009497869018204596614 5405.11927569140334526 24.009497869018204596614 509.00929234964598891
25.009497869018204596614 5421.66988903740821115 25.009497869018204596614 502.73567040178664911
26.009497869018190385759 5437.26402120926741190 26.009497869018190385759 497.43212093406054919
27.009497869018204596614 5451.99769160198047757 27.009497869018204596614 492.42130934259404285
28.009497869018190385759 5465.95242306710588309 28.009497869018190385759 487.93095296127398797
29.009497869018190385759 5479.19937163690701709 29.009497869018190385759 484.00342082219600570
30.009497869018190385759 5491.80007243118780025 30.009497869018190385759 480.32529497798395823
31.009497869018218807469 5503.80824073038729694 31.009497869018218807469 476.98086108010733142
32.009497869018190385759 5515.27186501136566221 32.009497869018190385759 473.93075181183530731
33.009497869018190385759 5526.23220436911105935 33.009497869018190385759 471.24996406342927457
34.009497869018218807469 5536.72736573920701630 34.009497869018218807469 468.66159581613106866
35.009497869018190385759 5546.79016015435172449 35.009497869018190385759 466.33634282295196272
36.009497869018190385759 5556.45052380042307050 36.009497869018190385759 464.11787243707664175
37.009497869018190385759 5565.73581045495757280 37.009497869018190385759 462.05660382197203262
38.009497869018218807469 5574.66986076220018731 38.009497869018218807469 460.13749113306454319
39.009497869018190385759 5583.27494303071580362 39.009497869018190385759 458.37797007126783910
40.009497869018190385759 5591.57131516270237626 40.009497869018190385759 456.79423094532415917
41.009497869018218807469 5599.57698866536520654 41.009497869018218807469 455.16633221512671525
42.009497869018190385759 5607.30884852349208813 42.009497869018190385759 453.69984362858821214
43.009497869018190385759 5614.78246770547775668 43.009497869018190385759 452.25698073762555396
44.009497869018218807469 5622.01173425555680296 44.009497869018218807469 450.94554180782517960
46.009497869018190385759 5635.78871603858806338 46.009497869018190385759 448.51212356504987611
48.009497869018218807469 5648.73296894783379685 48.009497869018218807469 446.26940965322160082
50.009497869018190385759 5660.92458856470329920 50.009497869018190385759 444.25838227654168122
52.009497869018190385759 5672.43287779024740303 52.009497869018190385759 442.41081513765379896
54.009497869018218807469 5683.31848965942845098 54.009497869018218807469 440.68289144284028680
56.009497869018190385759 5693.63443243898018409 56.009497869018190385759 439.08551350857771922
58.009497869018218807469 5703.42767139797706477 58.009497869018218807469 437.65621278766627711
60.009497869018190385759 5712.73973011250200216 60.009497869018190385759 436.26603546691626434
62.009497869018190385759 5721.60761483628266433 62.009497869018190385759 434.96732167333954067
64.009497869018218807469 5730.06448797510893201 64.009497869018218807469 433.74934101919660634
66.009497869018190385759 5738.13997237889907410 66.009497869018190385759 432.61582189346216865
68.009497869018190385759 5745.86095173790999979 68.009497869018190385759 431.55583362856333451
70.009497869018190385759 5753.25154289213242009 70.009497869018190385759 430.53176040352957443
72.009497869018190385759 5760.33371088118383341 72.009497869018190385759 429.57166014654535502
74.009497869018218807469 5767.12745374448604707 74.009497869018218807469 428.65513380783482944
76.009497869018190385759 5773.65089730231466092 76.009497869018190385759 427.78332047916086367
78.009497869018190385759 5779.92070244157548586 78.009497869018190385759 426.95665242253511451
80.009497869018218807469 5785.95211212421236269 80.009497869018218807469 426.16469071335740182
82.009497869018190385759 5791.75906858578218817 82.009497869018190385759 425.40645382587024415
84.009497869018218807469 5797.35447302171996853 84.009497869018218807469 424.67438775584554378
86.009497869018190385759 5802.75021131379708095 86.009497869018190385759 423.98182430887669625
88.009497869018190385759 5807.95721028384650708 88.009497869018190385759 423.30964170381122358
91.009497869018218807469 5815.43583900054909464 91.009497869018218807469 422.35491210626048542
94.009497869018218807469 5822.54369919694545388 94.009497869018218807469 421.45233007040246775
97.009497869018218807469 5829.30867753535858355 97.009497869018218807469 420.60473150789141528
99.504748934509137825444 5834.69243981186355086 99.504748934509137825444 419.81240303047349016
nan nan nan nan

