Time Pressure difference Time.1 Pressure.1 difference.1
(hr) (psi) (hr) (psi)
0.000200000000020850166 0.18547336195754463 0.000200000000020850166 0.14783189674765332
0.000399999999999067768 0.37088076094050970 0.000399999999999067768 0.38714231705295488
0.000600000000019917934 0.55623253815935514 0.000600000000019917934 0.56651488095740854
0.000799999999998135536 0.74153310872511313 0.000799999999998135536 0.74917999794881684
0.001007140329434719206 0.93339861632007837 0.001007140329434719206 0.94099541266325093
0.001267914553977789183 1.17487299212760221 0.001267914553977789183 1.18426343243685617
0.001596209851982166583 1.47876492238713686 0.001596209851982166583 1.49032253904011203
0.002009509145224797066 1.86118054270722189 0.002009509145224797066 1.87532743410340941
0.002529822128153114136 2.34236715427148257 0.002529822128153114136 2.35956089391767510
0.003184857364431081805 2.94777003164083373 0.003184857364431081805 2.96847345034810051
0.004009497869034817086 3.70935462465430277 0.004009497869034817086 3.73397666643342463
0.005047658755856332391 4.66725845939935713 0.005047658755856332391 4.69604731273762344
0.006354625877790454069 5.87185132980272328 0.006354625877790454069 5.90471012901173342
0.008000000000009777068 7.38629909399514162 0.008000000000009777068 7.42247755825904054
0.010071403294361402914 9.28974551390712122 0.010071403294361402914 9.32733472519347728
0.012679145539692626699 11.68124771042358212 0.012679145539692626699 11.71636495291205904
0.015962098519750611558 14.68462294271734159 0.015962098519750611558 14.71011178525939123
0.020095091452091651263 18.45438552527856757 0.020095091452091651263 18.45776214963992246
0.025298221281360611101 23.18296909227700553 0.025298221281360611101 23.14320302219288195
0.031848573644296607199 29.10943486868272245 0.031848573644296607199 28.99193706106520807
0.040094978690191851456 36.52985100374618810 0.040094978690191851456 36.27872080777019193
0.050476587558435426217 45.80947558193667390 0.050476587558435426217 45.33558294174476799
0.063546258777947173257 57.39676282580310129 0.063546258777947173257 56.55954921182021167
0.080000000000012505552 71.83900353852925491 0.080000000000012505552 70.41889190188831549
0.100714032943542974863 89.79905842323660181 0.100714032943542974863 87.45597013046150892
0.126791455396883634421 112.07208183130541101 0.126791455396883634421 108.28366250433073503
0.159620985197506115583 139.60028297740061021 0.159620985197506115583 133.57095511864639548
0.200950914520774404082 173.48254033072441871 0.200950914520774404082 164.01141646280245823
0.252982212813464002465 214.97398637062391913 0.252982212813464002465 200.26614797720071692
0.318485736442809752589 265.46846724963683073 0.318485736442809752589 242.87064262631159295
0.400949786901833249431 326.45411920850995102 0.400949786901833249431 292.09356831959269130
0.504765875584169521062 399.42951442537651019 0.504765875584169521062 347.73652645696080299
0.635462587779443310865 485.76579932610337664 0.635462587779443310865 408.87086248040679948
0.800000000000011368684 586.50097659313837539 0.800000000000011368684 473.52700046758178587
1.007140329435344483500 702.05981263700948602 1.007140329435344483500 538.39220351901781214
1.267914553968907398485 831.91270054391918620 1.267914553968907398485 598.63900271766851802
1.596209851975117999245 974.22495302080062629 1.596209851975117999245 648.08382252606054408
2.009509145207687197399 1125.60277380311367779 2.009509145207687197399 679.90721661196835157
2.529822128134725289783 1281.09245389096440704 2.529822128134725289783 688.05626772506889210
3.184857364427983839050 1434.58831660426835697 3.184857364427983839050 669.12395157258993095
4.009497869018204596614 1579.70008563365809096 4.009497869018204596614 624.15166341510087022
5.009497869018190385759 1706.85933097511588130 5.009497869018190385759 561.47303439518304913
6.009497869018190385759 1798.80726850024848318 6.009497869018190385759 501.70395864141477205
7.009497869018204596614 1867.53854594421159163 7.009497869018204596614 449.30401312059240126
8.009497869018190385759 1920.48664278982892029 8.009497869018190385759 405.28623582659747626
9.009497869018204596614 1962.39567178289348703 9.009497869018204596614 369.44836972438662315
10.009497869018190385759 1996.37622924240622524 10.009497869018190385759 340.59344810124702008
11.009497869018190385759 2024.52314437163931871 11.009497869018190385759 316.21196749995613118
12.009497869018204596614 2048.27945987541352224 12.009497869018204596614 296.21786481334578411
13.009497869018190385759 2068.66215744700275536 13.009497869018190385759 279.77072219171378720
14.009497869018204596614 2086.40275405360716832 14.009497869018204596614 266.17925745930813264
15.009497869018190385759 2102.03754075665347045 15.009497869018190385759 254.88505386413669385
16.009497869018190385759 2115.96671429721936875 16.009497869018190385759 245.44219036608956230
17.009497869018204596614 2128.49390483691195186 17.009497869018204596614 237.70675106189716530
18.009497869018190385759 2139.85310330310539939 18.009497869018190385759 230.94210976981270278
19.009497869018204596614 2150.22774593679378086 19.009497869018204596614 225.45066578288216874
20.009497869018190385759 2159.76243944852649292 20.009497869018190385759 220.46078907826034765
21.009497869018190385759 2168.57341360183500001 21.009497869018190385759 216.15781031470655194
22.009497869018204596614 2176.75576298878058878 22.009497869018204596614 212.42200845470176773
23.009497869018190385759 2184.38648607097775312 23.009497869018190385759 209.25942954207206981
24.009497869018204596614 2191.53017905305978275 24.009497869018204596614 206.38013126176554124
25.009497869018204596614 2198.24070046425867986 25.009497869018204596614 203.83646272654257814
26.009497869018190385759 2204.56341223575736876 26.009497869018190385759 201.68611448780998785
27.009497869018204596614 2210.53724586771204486 27.009497869018204596614 199.65445815163363363
28.009497869018190385759 2216.19525517084457533 28.009497869018190385759 197.83382274611653884
29.009497869018190385759 2221.56629068187339726 29.009497869018190385759 196.24138698790855528
30.009497869018190385759 2226.67530209482674763 30.009497869018190385759 194.75007414561895303
31.009497869018218807469 2231.54406851432031544 31.009497869018218807469 193.39405821975259414
32.009497869018190385759 2236.19204708642610058 32.009497869018190385759 192.15737755279869248
33.009497869018190385759 2240.63596649874853028 33.009497869018190385759 191.07043997480860753
34.009497869018218807469 2244.89127738153320024 34.009497869018218807469 190.02097430363133412
35.009497869018190385759 2248.97128311712867799 35.009497869018190385759 189.07818990821505167
36.009497869018190385759 2252.88812146817144821 36.009497869018190385759 188.17870100630560160
37.009497869018190385759 2256.65288314810095471 37.009497869018190385759 187.34295027690865254
38.009497869018218807469 2260.27523445449196515 38.009497869018218807469 186.56483731395161385
39.009497869018190385759 2263.76420417427243592 39.009497869018190385759 185.85143150162315351
40.009497869018190385759 2267.12800596596798641 40.009497869018190385759 185.20929727419508026
41.009497869018218807469 2270.37394267704803497 41.009497869018218807469 184.54925833449684092
42.009497869018190385759 2273.50886040134309951 42.009497869018190385759 183.95466387122755236
43.009497869018190385759 2276.53907326967600966 43.009497869018190385759 183.36964855361907212
44.009497869018218807469 2279.47021225270736977 44.009497869018218807469 182.83791967844547344
46.009497869018190385759 2285.05615213928194862 46.009497869018190385759 181.85127919092022353
48.009497869018218807469 2290.30445831884890140 48.009497869018218807469 180.94196064121530299
50.009497869018190385759 2295.24760590896130452 50.009497869018190385759 180.12658045030687504
52.009497869018190385759 2299.91369408586388090 52.009497869018190385759 179.37747595581234350
54.009497869018218807469 2304.32731489827710902 54.009497869018218807469 178.67688143955163582
56.009497869018190385759 2308.50996078889556884 56.009497869018190385759 178.02921729529603567
58.009497869018218807469 2312.48067403954337351 58.009497869018218807469 177.44970082118106802
60.009497869018190385759 2316.25629057288733748 60.009497869018190385759 176.88604710749515903
62.009497869018190385759 2319.85181474271166735 62.009497869018190385759 176.35947769664491602
64.009497869018218807469 2323.28069239718024619 64.009497869018218807469 175.86564190414696895
66.009497869018190385759 2326.55493425544455022 66.009497869018190385759 175.40605142225828672
68.009497869018190385759 2329.68544043191650417 68.009497869018190385759 174.97627436212658836
70.009497869018190385759 2332.68198920899203586 70.009497869018190385759 174.56105921815836268
72.009497869018190385759 2335.55348641182536085 72.009497869018190385759 174.17178220487201656
74.009497869018218807469 2338.30804033640106354 74.009497869018218807469 173.80017243481302103
76.009497869018190385759 2340.95300017893850963 76.009497869018190385759 173.44669175791432281
78.009497869018190385759 2343.49512117176618631 78.009497869018190385759 173.11151543677334530
80.009497869018218807469 2345.94058364309012177 80.009497869018218807469 172.79041096196127114
82.009497869018190385759 2348.29504053569007738 82.009497869018190385759 172.48298036939829103
84.009497869018218807469 2350.56372269789744678 84.009497869018218807469 172.18616085373372471
86.009497869018190385759 2352.75144931450313379 86.009497869018190385759 171.90535785614457609
88.009497869018190385759 2354.86265071508660185 88.009497869018190385759 171.63281836354531151
91.009497869018218807469 2357.89489472204104459 91.009497869018218807469 171.24571890853835043
94.009497869018218807469 2360.77680894712511872 94.009497869018218807469 170.87976291945409457
97.009497869018218807469 2363.51970016433642741 97.009497869018218807469 170.53610022956323178
99.504748934509137825444 2365.70257105099199180 99.504748934509137825444 170.21484704690104195
nan nan nan nan

