Time Pressure difference Time.1 Pressure.1 difference.1
(hr) (psi) (hr) (psi)
0.000200000000020850166 0.59218400768507529 0.000200000000020850166 0.47200139230640875
0.000399999999999067768 1.18415740712844353 0.000399999999999067768 1.23607771184620585
0.000600000000019917934 1.77595321600655121 0.000600000000019917934 1.80878293830347481
0.000799999999998135536 2.36758553099677371 0.000799999999998135536 2.39200071093972033
0.001007140329434719206 2.98017854179325470 0.001007140329434719206 3.00443378392930383
0.001267914553977789183 3.75116399280203083 0.001267914553977789183 3.78114602643516395
0.001596209851982166583 4.72143777910153162 0.001596209851982166583 4.75833922778726404
0.002009509145224797066 5.94242397492171293 0.002009509145224797066 5.98759252502971950
0.002529822128153114136 7.47876867193406092 0.002529822128153114136 7.53366527564746402
0.003184857364431081805 9.41171418174113583 0.003184857364431081805 9.47781657689617774
0.004009497869034817086 11.84332059530880521 0.004009497869034817086 11.92193446861254813
0.005047658755856332391 14.90174001386700553 0.005047658755856332391 14.99365778775420388
0.006354625877790454069 18.74779438035668022 0.006354625877790454069 18.85270677962490637
0.008000000000009777068 23.58316123284547672 0.008000000000009777068 23.69867274206473695
0.010071403294361402914 29.66053276189179755 0.010071403294361402914 29.78054853963119797
0.012679145539692626699 37.29618103059009115 0.012679145539692626699 37.40830424427526424
0.015962098519750611558 46.88543289333967579 0.015962098519750611558 46.96681430988648032
0.020095091452091651263 58.92162553362484090 0.020095091452091651263 58.93240650467993902
0.025298221281360611101 74.01916589103690569 0.025298221281360611101 73.89219978386248044
0.031848573644296607199 92.94133464799146793 0.031848573644296607199 92.56618469721267672
0.040094978690191851456 116.63342562631068233 0.040094978690191851456 115.83161083019003001
0.050476587558435426217 146.26164401048842478 0.050476587558435426217 144.74858768844072188
0.063546258777947173257 183.25782570390944670 0.063546258777947173257 180.58474905298649560
0.080000000000012505552 229.36937452660458803 0.080000000000012505552 224.83520643114115956
0.100714032943542974863 286.71268877732944702 0.100714032943542974863 279.23161763627166465
0.126791455396883634421 357.82655723717238061 0.126791455396883634421 345.73079687481384781
0.159620985197506115583 445.71928914757501161 0.159620985197506115583 426.46869975101446926
0.200950914520774404082 553.89941128016039329 0.200950914520774404082 523.65976915477733655
0.252982212813464002465 686.37434213401002125 0.252982212813464002465 639.41478636666784041
0.318485736442809752589 847.59438870736073568 0.318485736442809752589 775.44348677100379064
0.400949786901833249431 1042.31090975990628067 0.400949786901833249431 932.60368001591928078
0.504765875584169521062 1275.30858417429635665 0.504765875584169521062 1110.26191406886118784
0.635462587779443310865 1550.96524269141536934 0.635462587779443310865 1305.45315733654547330
0.800000000000011368684 1872.59504634221752895 0.800000000000011368684 1511.88889835389340988
1.007140329435344483500 2241.55419998901652434 1.007140329435344483500 1718.99214755847833658
1.267914553968907398485 2656.15176137789467248 1.267914553968907398485 1911.34964096403564326
1.596209851975117999245 3110.52989484668160003 1.596209851975117999245 2069.21830331190631114
2.009509145207687197399 3593.85280245657759224 2.009509145207687197399 2170.82483510189013032
2.529822128134725289783 4090.30415771464913632 2.529822128134725289783 2196.84333013564582870
3.184857364427983839050 4580.38960279030925449 3.184857364427983839050 2136.39575569365024421
4.009497869018204596614 5043.70610300970656681 4.009497869018204596614 1992.80710471547899942
5.009497869018190385759 5449.70333477256735932 5.009497869018190385759 1792.68520398820783157
6.009497869018190385759 5743.27701870931377925 6.009497869018190385759 1601.85299799411359345
7.009497869018204596614 5962.72396731963544880 7.009497869018204596614 1434.54913606216041444
8.009497869018190385759 6131.77798056662868476 8.009497869018190385759 1294.00807133873263410
9.009497869018204596614 6265.58618075973117811 9.009497869018204596614 1179.58403248324339074
10.009497869018190385759 6374.08015793987942743 10.009497869018190385759 1087.45531411698607371
11.009497869018190385759 6463.94833539285809820 11.009497869018190385759 1009.60951058281955284
12.009497869018204596614 6539.79809610445863655 12.009497869018204596614 945.77183743095156387
13.009497869018190385759 6604.87648476352478610 13.009497869018190385759 893.25898744618950786
14.009497869018204596614 6661.51910711286291189 14.009497869018204596614 849.86381753823945928
15.009497869018190385759 6711.43824672079517768 15.009497869018190385759 813.80340067831991746
16.009497869018190385759 6755.91166179201900377 16.009497869018190385759 783.65398897155057512
17.009497869018204596614 6795.90879033130568132 17.009497869018204596614 758.95608410794079646
18.009497869018190385759 6832.17672444758318306 18.009497869018190385759 737.35776751617322589
19.009497869018204596614 6865.30114397756642575 19.009497869018204596614 719.82454725296906872
20.009497869018190385759 6895.74375285807673208 20.009497869018190385759 703.89274360413173781
21.009497869018190385759 6923.87565239689047303 21.009497869018190385759 690.15408495099131869
22.009497869018204596614 6950.00046299556925078 22.009497869018204596614 678.22632295850974060
23.009497869018190385759 6974.36402727594759199 23.009497869018190385759 668.12876158724361630
24.009497869018204596614 6997.17258962232699560 24.009497869018204596614 658.93566573263262853
25.009497869018204596614 7018.59811089933646144 25.009497869018204596614 650.81417695649463440
26.009497869018190385759 7038.78542381999795907 26.009497869018190385759 643.94849110009283777
27.009497869018204596614 7057.85882985565513081 27.009497869018204596614 637.46176773077638700
28.009497869018190385759 7075.92386404323497118 28.009497869018190385759 631.64879728804930892
29.009497869018190385759 7093.07264110086907749 29.009497869018190385759 626.56442840982458620
30.009497869018190385759 7109.38482103819114855 30.009497869018190385759 621.80292731695374187
31.009497869018218807469 7124.92994072733654320 31.009497869018218807469 617.47340561642977264
32.009497869018190385759 7139.77012343289516139 32.009497869018190385759 613.52490052732139247
33.009497869018190385759 7153.95878092873954301 33.009497869018190385759 610.05449893302125020
34.009497869018218807469 7167.54524437511918222 34.009497869018218807469 606.70373858379150533
35.009497869018190385759 7180.57198914527089073 35.009497869018190385759 603.69359289080318831
36.009497869018190385759 7193.07776899254713499 36.009497869018190385759 600.82168213672468937
37.009497869018190385759 7205.09799462532737380 37.009497869018190385759 598.15327622044378586
38.009497869018218807469 7216.66352884124808043 38.009497869018218807469 595.66889761225809252
39.009497869018190385759 7227.80319897794561257 39.009497869018190385759 593.39111761953222413
40.009497869018190385759 7238.54322981062523468 40.009497869018190385759 591.34089533285600737
41.009497869018218807469 7248.90693805407317996 41.009497869018218807469 589.23350643121852954
42.009497869018190385759 7258.91618208859290462 42.009497869018190385759 587.33507029737234006
43.009497869018190385759 7268.59112182963781379 43.009497869018190385759 585.46721870034434687
44.009497869018218807469 7277.94973598173874052 44.009497869018218807469 583.76950139485722957
46.009497869018190385759 7295.78466512631803198 46.009497869018190385759 580.61933086966450901
48.009497869018218807469 7312.54158889246900799 48.009497869018218807469 577.71603576926145251
50.009497869018190385759 7328.32419465103339462 50.009497869018190385759 575.11266941981398304
52.009497869018190385759 7343.22219815755670425 52.009497869018190385759 572.72090977819902946
54.009497869018218807469 7357.31411752275107574 54.009497869018218807469 570.48403401327686879
56.009497869018190385759 7370.66857435736983462 56.009497869018190385759 568.41615566928601311
58.009497869018218807469 7383.34636733701699995 58.009497869018218807469 566.56586091785163717
60.009497869018190385759 7395.40125061836624809 60.009497869018190385759 564.76621318626257562
62.009497869018190385759 7406.88113047897059005 62.009497869018190385759 563.08496914803231448
64.009497869018218807469 7417.82893716050421062 64.009497869018218807469 561.50823782848715382
66.009497869018190385759 7428.28301878868387575 66.009497869018190385759 560.04084579662730903
68.009497869018190385759 7438.27817752253031358 68.009497869018190385759 558.66864280643108032
70.009497869018190385759 7447.84563370763316925 70.009497869018190385759 557.34293346784193091
72.009497869018190385759 7457.01382208618724690 72.009497869018190385759 556.10004004425502444
74.009497869018218807469 7465.80863102922648977 74.009497869018218807469 554.91355503850616060
76.009497869018190385759 7474.25352523499623203 76.009497869018190385759 553.78495305665910564
78.009497869018190385759 7482.37007297891159396 78.009497869018190385759 552.71479368153632095
80.009497869018218807469 7490.17800696807171335 80.009497869018218807469 551.68956325074634606
82.009497869018190385759 7497.69537606014000630 82.009497869018190385759 550.70799113458110696
84.009497869018218807469 7504.93888143902586307 84.009497869018218807469 549.76029833120367130
86.009497869018190385759 7511.92390991895172192 86.009497869018190385759 548.86374346894581322
88.009497869018190385759 7518.66460676745100500 88.009497869018190385759 547.99357253293385384
91.009497869018218807469 7528.34603157889341674 91.009497869018218807469 546.75763167210448046
94.009497869018218807469 7537.54747968768151622 94.009497869018218807469 545.58919820023015745
97.009497869018218807469 7546.30505164577243704 97.009497869018218807469 544.49194333385207756
99.504748934509137825444 7553.27457662917640846 99.504748934509137825444 543.46623810490382311
nan nan nan nan

