Time Pressure difference Time.1 Pressure.1 difference.1
(hr) (psi) (hr) (psi)
0.000200000000020850166 0.31854841986430316 0.000200000000020850166 0.25389962535583505
0.000399999999999067768 0.63698354905926113 0.000399999999999067768 0.66491258937794506
0.000600000000019917934 0.95532314849790589 0.000600000000019917934 0.97298295698066128
0.000799999999998135536 1.27357480108393872 0.000799999999998135536 1.28670824759819236
0.001007140329434719206 1.60310165941968608 0.001007140329434719206 1.61614907197320679
0.001267914553977789183 2.01783119275727252 0.001267914553977789183 2.03395916871442095
0.001596209851982166583 2.53976217611781863 0.001596209851982166583 2.55961225314960972
0.002009509145224797066 3.19655671684693266 0.002009509145224797066 3.22085384422244747
0.002529822128153114136 4.02298932773981033 0.002529822128153114136 4.05251938282721813
0.003184857364431081805 5.06276198259389787 0.003184857364431081805 5.09831987212252269
0.004009497869034817086 6.37077498315066304 0.004009497869034817086 6.41306306387444636
0.005047658755856332391 8.01596408049306675 0.005047658755856332391 8.06540861335654569
0.006354625877790454069 10.08483883100647205 0.006354625877790454069 10.14127345027575799
0.008000000000009777068 12.68588588789300076 0.008000000000009777068 12.74802199467808350
0.010071403294361402914 15.95503377500639886 0.010071403294361402914 16.01959282398700424
0.012679145539692626699 20.06241198696067940 0.012679145539692626699 20.12272545724357897
0.015962098519750611558 25.22067527829928935 0.015962098519750611558 25.26445207961590356
0.020095091452091651263 31.69520025193583024 0.020095091452091651263 31.70099956642193462
0.025298221281360611101 39.81648951722912244 0.025298221281360611101 39.74819173766759661
0.031848573644296607199 49.99512804800664867 0.031848573644296607199 49.79332688066356383
0.040094978690191851456 62.73960957145645523 0.040094978690191851456 62.30829627522862069
0.050476587558435426217 78.67726075283293596 0.050476587558435426217 77.86335545600110208
0.063546258777947173257 98.57829669185015575 0.063546258777947173257 97.14039169563740472
0.080000000000012505552 123.38268320742915307 0.080000000000012505552 120.94365739203240651
0.100714032943542974863 154.22887612600729312 0.100714032943542974863 150.20464825097198514
0.126791455396883634421 192.48254413179358835 0.126791455396883634421 185.97597640878328207
0.159620985197506115583 239.76192098809161735 0.159620985197506115583 229.40661798404289584
0.200950914520774404082 297.95431814649077751 0.200950914520774404082 281.68776908185355978
0.252982212813464002465 369.21541156927787597 0.252982212813464002465 343.95486401465410609
0.318485736442809752589 455.93911639735836161 0.318485736442809752589 417.12760594563832228
0.400949786901833249431 560.68128994107314611 0.400949786901833249431 501.66742899732736305
0.504765875584169521062 686.01571311622956273 0.504765875584169521062 597.23358579827799986
0.635462587779443310865 834.29731453765748483 0.635462587779443310865 702.23112255603507492
0.800000000000011368684 1007.30885217565912626 0.800000000000011368684 813.27731470441176498
1.007140329435344483500 1205.77985757836131597 1.007140329435344483500 924.68257375687801414
1.267914553968907398485 1428.80073680861482899 1.267914553968907398485 1028.15577596801335858
1.596209851975117999245 1673.22043500881886757 1.596209851975117999245 1113.07669967480364903
2.009509145207687197399 1933.21014514167018206 2.009509145207687197399 1167.73302225284260203
2.529822128134725289783 2200.26192753470604657 2.529822128134725289783 1181.72892618251739805
3.184857364427983839050 2463.88935093916916230 3.184857364427983839050 1149.21288543633158952
4.009497869018204596614 2713.11718743359188011 4.009497869018204596614 1071.97348469947814920
5.009497869018190385759 2931.51176575546787717 5.009497869018190385759 964.32364203298254779
6.009497869018190385759 3089.43131764840882170 6.009497869018190385759 861.67092448278867778
7.009497869018204596614 3207.47651612839945301 7.009497869018204596614 771.67460549411157444
8.009497869018190385759 3298.41427887221698256 8.009497869018190385759 696.07456646451487359
9.009497869018204596614 3370.39256633564173171 9.009497869018204596614 634.52343320376712654
10.009497869018190385759 3428.75379282440189854 10.009497869018190385759 584.96542880169329237
11.009497869018190385759 3477.09580401048424392 11.009497869018190385759 543.09050920396043693
12.009497869018204596614 3517.89700956180831781 12.009497869018204596614 508.75086198884054056
13.009497869018190385759 3552.90406413543541930 13.009497869018190385759 480.50307892119457165
14.009497869018204596614 3583.37333992166622920 14.009497869018204596614 457.15989061396868465
15.009497869018190385759 3610.22591080627034898 15.009497869018190385759 437.76222255589397037
16.009497869018190385759 3634.14911020553836352 16.009497869018190385759 421.54421035969642162
17.009497869018204596614 3655.66441951810384126 17.009497869018204596614 408.25868007491754952
18.009497869018190385759 3675.17371553851717181 18.009497869018190385759 396.64048449254823936
19.009497869018204596614 3692.99204795422429015 19.009497869018204596614 387.20899100826852646
20.009497869018190385759 3709.36777716944288841 20.009497869018190385759 378.63893370840224861
21.009497869018190385759 3724.50052650001271104 21.009497869018190385759 371.24861592167093249
22.009497869018204596614 3738.55361984171759104 22.009497869018204596614 364.83241810829946417
23.009497869018190385759 3751.65930118916867286 23.009497869018190385759 359.40072428077854738
24.009497869018204596614 3763.92851379965031811 24.009497869018204596614 354.45556176348071631
25.009497869018204596614 3775.45375909332278752 25.009497869018204596614 350.08683957069871440
26.009497869018190385759 3786.31294567845361598 26.009497869018190385759 346.39364057771848593
27.009497869018204596614 3796.57293797010652270 27.009497869018204596614 342.90429359675192700
28.009497869018190385759 3806.29050551763884869 28.009497869018190385759 339.77737269848717006
29.009497869018190385759 3815.51519879442821548 29.009497869018190385759 337.04238213618373265
30.009497869018190385759 3824.28986862026295057 30.009497869018190385759 334.48106904830518715
31.009497869018218807469 3832.65192036316011581 31.009497869018218807469 332.15212689760198828
32.009497869018190385759 3840.63477145336901231 32.009497869018190385759 330.02814171624169148
33.009497869018190385759 3848.26715322430754895 33.009497869018190385759 328.16133861144254524
34.009497869018218807469 3855.57560196021177035 34.009497869018218807469 326.35889308650581597
35.009497869018190385759 3862.58296607112197307 35.009497869018190385759 324.73967145671019807
36.009497869018190385759 3869.31009202829409332 36.009497869018190385759 323.19480935163699087
37.009497869018190385759 3875.77602800772501723 37.009497869018190385759 321.75941684330047110
38.009497869018218807469 3881.99737576713232556 38.009497869018218807469 320.42301655266123817
39.009497869018190385759 3887.98964214684474427 39.009497869018190385759 319.19775006781014781
40.009497869018190385759 3893.76693401329930566 40.009497869018190385759 318.09489173101661663
41.009497869018218807469 3899.34179392515488871 41.009497869018218807469 316.96128225162459557
42.009497869018190385759 3904.72597997181310348 42.009497869018190385759 315.94007292681686749
43.009497869018190385759 3909.93033660217861325 43.009497869018190385759 314.93531567729195331
44.009497869018218807469 3914.96453494523302652 44.009497869018218807469 314.02207729526736557
46.009497869018190385759 3924.55832407778052584 46.009497869018190385759 312.32753331893474069
48.009497869018218807469 3933.57223110367385743 48.009497869018218807469 310.76578890397070154
50.009497869018190385759 3942.06203167323837988 50.009497869018190385759 309.36538256711901340
52.009497869018190385759 3950.07598580666308408 52.009497869018190385759 308.07880399585707210
54.009497869018218807469 3957.65633007192855075 54.009497869018218807469 306.87554076837790262
56.009497869018190385759 3964.83997749841637415 56.009497869018190385759 305.76318486142776010
58.009497869018218807469 3971.65963299168197409 58.009497869018218807469 304.76787181395673088
60.009497869018190385759 3978.14421206016049837 60.009497869018190385759 303.79980287968902530
62.009497869018190385759 3984.31948451326661598 62.009497869018190385759 302.89542581979827673
64.009497869018218807469 3990.20854344448434858 64.009497869018218807469 302.04726838245869658
66.009497869018190385759 3995.83201712930622307 66.009497869018190385759 301.25792688217455861
68.009497869018190385759 4001.20862639203551225 68.009497869018190385759 300.51978959952685955
70.009497869018190385759 4006.35516532306655790 70.009497869018190385759 299.80666224463965364
72.009497869018190385759 4011.28692957726116219 72.009497869018190385759 299.13808333841251397
74.009497869018218807469 4016.01784506206968217 74.009497869018218807469 298.49984772436494040
76.009497869018190385759 4020.56053393961155962 76.009497869018190385759 297.89274862457926929
78.009497869018190385759 4024.92659824567908800 78.009497869018190385759 297.31708705060168541
80.009497869018218807469 4029.12665262467862703 80.009497869018218807469 296.76559371493794970
82.009497869018190385759 4033.17040594246282126 82.009497869018190385759 296.23758511874240185
84.009497869018218807469 4037.06684212239770204 84.009497869018218807469 295.72780092816157094
86.009497869018190385759 4040.82423806033466462 86.009497869018190385759 295.24552492781776891
88.009497869018190385759 4044.45020279766004023 88.009497869018190385759 294.77744140465404143
91.009497869018218807469 4049.65804788583773188 91.009497869018218807469 294.11260243035957274
94.009497869018218807469 4054.60770325896373834 94.009497869018218807469 293.48407712175298911
97.009497869018218807469 4059.31858817462170919 97.009497869018218807469 292.89384030458620600
99.504748934509137825444 4063.06764445080762016 99.504748934509137825444 292.34209156485695758
nan nan nan nan

