Time Pressure difference Time.1 Pressure.1 difference.1
(hr) (psi) (hr) (psi)
0.000200000000006639311 0.88049815766740458 0.000200000000006639311 0.70315931307290358
0.000399999999999067768 1.75789054411379708 0.000399999999999067768 1.82846728144509219
0.000600000000005707079 2.63271697149738237 0.000600000000005707079 2.66962785287143101
0.000799999999998135536 3.50522704664563634 0.000799999999998135536 3.52268909353529924
0.001007140329434719206 4.40661129768082027 0.001007140329434719206 4.41478620852762216
0.001267914553963578328 5.53829003549801779 0.001267914553963578328 5.54111969247440417
0.001596209851982166583 6.95835773190632434 0.001596209851982166583 6.95079388006608134
0.002009509145210586212 8.73919603234663356 0.002009509145210586212 8.71311014554692065
0.002529822128138903281 10.97080979885099339 0.002529822128138903281 10.91333668442161020
0.003184857364445292660 13.76484174823539064 0.003184857364445292660 13.65590587110430576
0.004009497869020606231 17.25937964048323892 0.004009497869020606231 17.06799691757973747
0.005047658755842121536 21.62461879821690047 0.005047658755842121536 21.30341179293503728
0.006354625877804664924 27.06945115568387195 0.006354625877804664924 26.54655761845048900
0.008000000000009777068 33.84895705738204441 0.008000000000009777068 33.01618796727882454
0.010071403294347192059 42.27271014401225813 0.010071403294347192059 40.96836686938402039
0.012679145539692626699 52.71362346777141283 0.012679145539692626699 50.69770946155969682
0.015962098519750611558 65.61680989170403677 0.015962098519750611558 62.53569545825292408
0.020095091452091651263 81.50762834733282602 0.020095091452091651263 76.84436974738062531
0.025298221281346400247 100.99760986217708592 0.025298221281346400247 94.00301213204515705
0.031848573644282396344 124.78631795107085622 0.031848573644282396344 114.38484070346827082
0.040094978690191851456 153.65648164607569015 0.040094978690191851456 138.32023910904197805
0.050476587558421215363 188.45883622018760661 0.050476587558421215363 166.04588613460583701
0.063546258777947173257 230.08372178095279992 0.063546258777947173257 197.63279603087957526
0.079999999999998294697 279.41265981946389729 0.079999999999998294697 232.89918204960608250
0.100714032943542974863 337.24969158967667227 0.100714032943542974863 271.31953609193885768
0.126791455396897845276 404.23096927730864536 0.126791455396897845276 311.92623251452619115
0.159620985197506115583 480.71073493275798683 0.159620985197506115583 353.26691115760598905
0.200950914520774404082 566.65134373487455832 0.200950914520774404082 393.41557230038768012
0.252982212813464002465 661.51460207986804107 0.252982212813464002465 430.11374007668081276
0.318485736442795541734 764.21720846019184137 0.318485736442795541734 461.03702993422535883
0.400949786901819038576 873.14541046733575058 0.400949786901819038576 484.17584359591683096
0.504765875584169521062 986.28621286414761471 0.504765875584169521062 498.26708023711961459
0.635462587779443310865 1101.44091112558658097 0.635462587779443310865 503.10261011330993597
0.799999999999997157829 1216.49772001771043506 0.799999999999997157829 499.62548002568786387
1.007140329435330272645 1329.68811710884642707 1.007140329435330272645 489.74723749350607704
1.267914553968893187630 1439.77307333241765264 1.267914553968893187630 475.92397344773399936
1.596209851975103788391 1546.10166736902715456 1.596209851975103788391 460.62484596547756155
2.009509145207687197399 1648.55046212397473937 2.009509145207687197399 445.92227677149344345
2.529822128134711078928 1747.39174488714752442 2.529822128134711078928 433.23718434324831605
3.184857364427983839050 1843.11498120180203841 3.184857364427983839050 423.28807972905127599
4.009497869018190385759 1936.27152436542564828 4.009497869018190385759 416.20180509161440341
5.009497869018190385759 2024.38053657215050407 5.009497869018190385759 411.77149655402814687
6.009497869018190385759 2095.18648985950858332 6.009497869018190385759 409.64431548808505568
7.009497869018204596614 2154.30289173982282591 7.009497869018204596614 408.67073879030851913
8.009497869018190385759 2204.96682162976276231 8.009497869018190385759 408.42562446286109434
9.009497869018204596614 2249.25885036276304163 9.009497869018204596614 408.50097908992222528
10.009497869018190385759 2288.50611150196209564 10.009497869018190385759 408.60343451780602209
11.009497869018190385759 2323.73901997209213732 11.009497869018190385759 408.63372650990055490
12.009497869018190385759 2355.60533375982504367 12.009497869018190385759 408.94853073256143716
13.009497869018190385759 2384.66083109063629308 13.009497869018190385759 409.08934576424371699
14.009497869018204596614 2411.38068326963411891 14.009497869018204596614 409.15814596251493640
15.009497869018190385759 2436.02737729873570061 15.009497869018190385759 409.41661777742439199
16.009497869018190385759 2458.87268021006957497 16.009497869018190385759 409.41818875833422453
17.009497869018190385759 2480.18161890986721119 17.009497869018190385759 409.11660298879280617
18.009497869018190385759 2500.08772943628400753 18.009497869018190385759 409.22421419216340155
19.009497869018204596614 2518.71502242721544462 19.009497869018204596614 409.20888883775535305
20.009497869018190385759 2536.22817628528764544 20.009497869018190385759 409.21550034646941185
21.009497869018204596614 2552.80477048278135044 21.009497869018204596614 408.98621395880314822
22.009497869018190385759 2568.48719154974742196 22.009497869018190385759 408.88069031813876109
23.009497869018190385759 2583.33738577474332487 23.009497869018190385759 409.45791919964955241
24.009497869018190385759 2597.40021531354796025 24.009497869018190385759 409.52916077147619944
25.009497869018190385759 2610.77648939944447193 25.009497869018190385759 409.51823223380546324
26.009497869018204596614 2623.58560250726213781 26.009497869018204596614 409.72172702427059221
27.009497869018190385759 2635.84108882778446059 27.009497869018190385759 409.59693270084642336
28.009497869018190385759 2647.55236784422368146 28.009497869018190385759 409.74255530969577421
29.009497869018190385759 2658.75482085582052605 29.009497869018190385759 410.21490106886653848
30.009497869018190385759 2669.46428546399465631 30.009497869018190385759 410.24080622656765627
31.009497869018190385759 2679.73549276973835731 31.009497869018190385759 410.09075855571609281
32.009497869018190385759 2689.62613526473614911 32.009497869018190385759 409.90416454021504933
33.009497869018190385759 2699.16370651763327260 33.009497869018190385759 409.73900114506000136
34.009497869018190385759 2708.34893980218384968 34.009497869018190385759 409.41617421045560832
35.009497869018190385759 2717.18907271281204885 35.009497869018190385759 409.33879489897952908
36.009497869018190385759 2725.70717891071763006 36.009497869018190385759 409.32746752796089140
37.009497869018190385759 2733.91637104934534364 37.009497869018190385759 409.17444483539424027
38.009497869018190385759 2741.82616437973683787 38.009497869018190385759 408.81202637012904688
39.009497869018190385759 2749.46897729358261131 39.009497869018190385759 408.24153578405559983
40.009497869018190385759 2756.87083138210846300 40.009497869018190385759 407.44759425045918988
41.009497869018190385759 2764.05279607256625241 41.009497869018190385759 406.99134010425621000
42.009497869018190385759 2771.00873154955070277 42.009497869018190385759 406.13177399199128104
43.009497869018190385759 2777.74353103608154925 43.009497869018190385759 405.55759095730030594
44.009497869018218807469 2784.25872659300102896 44.009497869018218807469 405.04644936479718353
46.009497869018190385759 2796.68591599160436090 46.009497869018190385759 403.65871141210857331
48.009497869018190385759 2808.31043726481266276 48.009497869018190385759 402.24046909622165913
50.009497869018190385759 2819.26370560187524461 50.009497869018190385759 400.98967705819308094
52.009497869018190385759 2829.65472233908894850 52.009497869018190385759 400.10737309226220759
54.009497869018190385759 2839.50097253901003569 54.009497869018190385759 399.27088164209334309
56.009497869018190385759 2848.82394540969335139 56.009497869018190385759 398.90541003059348668
58.009497869018218807469 2857.68879601006301527 58.009497869018218807469 398.57409445146276994
60.009497869018190385759 2866.19947133312689402 60.009497869018190385759 398.10593882266255150
62.009497869018190385759 2874.32831640177710142 62.009497869018190385759 397.57089002475856887
64.009497869018190385759 2882.10233447785503813 64.009497869018190385759 397.13524158166393363
66.009497869018190385759 2889.53961257187074807 66.009497869018190385759 396.65501525629633761
68.009497869018190385759 2896.65058139588654740 68.009497869018190385759 395.66572089718613370
70.009497869018190385759 2903.43507502067404857 70.009497869018190385759 394.89621734428226318
72.009497869018218807469 2909.93319936202078679 72.009497869018218807469 392.83983223097732207
74.009497869018190385759 2916.17623146831692793 74.009497869018190385759 391.02962325862006310
76.009497869018190385759 2922.18736790882894638 76.009497869018190385759 389.51925211132930826
78.009497869018190385759 2927.95692975814972669 78.009497869018190385759 387.53724453229006031
80.009497869018190385759 2933.48487809665220993 80.009497869018190385759 386.23134491097448517
82.009497869018218807469 2938.77662964728597217 82.009497869018218807469 385.02804952793786697
84.009497869018190385759 2943.85012293725822019 84.009497869018190385759 383.33908678609611798
86.009497869018190385759 2948.66384479737689617 86.009497869018190385759 381.48664338115167993
88.009497869018190385759 2953.26847016604688179 88.009497869018190385759 380.29590281338010982
91.009497869018218807469 2959.86903540197590701 91.009497869018218807469 379.25287313759906738
94.009497869018190385759 2966.19241414674615953 94.009497869018190385759 378.57741304808592986
97.009497869018190385759 2972.26015827827495741 97.009497869018190385759 378.55160699176639127
99.504748934509109403734 2977.10949282414912886 99.504748934509109403734 369.62172217916975114
nan nan nan nan

