Time Pressure difference Time.1 Pressure.1 difference.1
(hr) (psi) (hr) (psi)
0.000200000000006639311 0.88880474406049315 0.000200000000006639311 0.70979289149811975
0.000399999999999067768 1.77447441717147436 0.000399999999999067768 1.84571697277947977
0.000600000000005707079 2.65755392405867896 0.000600000000005707079 2.69481302129474587
0.000799999999998135536 3.53829522633097282 0.000799999999998135536 3.55592200951204740
0.001007140329434719206 4.44818310237592129 0.001007140329434719206 4.45643513502316591
0.001267914553963578328 5.59053805470083010 0.001267914553963578328 5.59339440655435194
0.001596209851982166583 7.02400261616959121 0.001596209851982166583 7.01636740723651631
0.002009509145210586212 8.82164127793480723 0.002009509145210586212 8.79530929786339932
0.002529822128138903281 11.07430800450052999 0.002529822128138903281 11.01629269087841756
0.003184857364445292660 13.89469874586025178 0.003184857364445292660 13.78473517177509855
0.004009497869020606231 17.42220397671420784 0.004009497869020606231 17.22901575642482896
0.005047658755842121536 21.82862463593592750 0.005047658755842121536 21.50438737588725857
0.006354625877804664924 27.32482333639787342 0.006354625877804664924 26.79699684126605774
0.008000000000009777068 34.16828684094225110 0.008000000000009777068 33.32766143866824393
0.010071403294347192059 42.67150929631426237 0.010071403294347192059 41.35486089645367969
0.012679145539692626699 53.21092180237303637 0.012679145539692626699 51.17598973949894514
0.015962098519750611558 66.23583640011632667 0.015962098519750611558 63.12565484936851590
0.020095091452091651263 82.27656823740200309 0.020095091452091651263 77.56931663178988856
0.025298221281346400247 101.95041750238630129 0.025298221281346400247 94.88983300121539344
0.031848573644282396344 125.96354736570359023 0.031848573644282396344 115.46394297425571551
0.040094978690191851456 155.10607109556698902 0.040094978690191851456 139.62514702516503462
0.050476587558421215363 190.23674976943465253 0.050476587558421215363 167.61235675851719407
0.063546258777947173257 232.25432292982972626 0.063546258777947173257 199.49725637079353646
0.079999999999998294697 282.04862830832672671 0.079999999999998294697 235.09634414441367767
0.100714032943542974863 340.43129245373023650 0.100714032943542974863 273.87915435695714450
0.126791455396897845276 408.04446898747193018 0.126791455396897845276 314.86893282126698068
0.159620985197506115583 485.24574186608589343 0.159620985197506115583 356.59961786664001693
0.200950914520774404082 571.99711112859984041 0.200950914520774404082 397.12703996359891789
0.252982212813464002465 667.75530587307423502 0.252982212813464002465 434.17141686985706883
0.318485736442795541734 771.42680476641999121 0.318485736442795541734 465.38643587700113358
0.400949786901819038576 881.38263132080112428 0.400949786901819038576 488.74354023361411237
0.504765875584169521062 995.59079977796045569 0.504765875584169521062 502.96771306954531155
0.635462587779443310865 1111.83186311733743423 0.635462587779443310865 507.84886115211475044
0.799999999999997157829 1227.97411360278329084 0.799999999999997157829 504.33892795045846924
1.007140329435330272645 1342.23234462874120254 1.007140329435330272645 494.36749445099201239
1.267914553968893187630 1453.35583817517635907 1.267914553968893187630 480.41382225384467120
1.596209851975103788391 1560.68753215552715119 1.596209851975103788391 464.97036338024622637
2.009509145207687197399 1664.10282497420098480 2.009509145207687197399 450.12909070329999395
2.529822128134711078928 1763.87657266910173348 2.529822128134711078928 437.32432759176953141
3.184857364427983839050 1860.50285838295121721 3.184857364427983839050 427.28136350008003319
4.009497869018190385759 1954.53823685943916644 4.009497869018190385759 420.12823721512023667
5.009497869018190385759 2043.47846616245374207 5.009497869018190385759 415.65613331397179309
6.009497869018190385759 2114.95240014120190608 6.009497869018190385759 413.50888450212357839
7.009497869018204596614 2174.62650392604746230 7.009497869018204596614 412.52612311851902405
8.009497869018190385759 2225.76839541872277550 8.009497869018190385759 412.27869639175594330
9.009497869018204596614 2270.47827347939301035 9.009497869018204596614 412.35476191152525871
10.009497869018190385759 2310.09579179915044733 10.009497869018190385759 412.45818390004944831
11.009497869018190385759 2345.66108619824353809 11.009497869018190385759 412.48876166565435142
12.009497869018190385759 2377.82802558774756108 12.009497869018190385759 412.80653573947239465
13.009497869018190385759 2407.15763138394413545 13.009497869018190385759 412.94867921484978979
14.009497869018204596614 2434.12955764010257553 14.009497869018204596614 413.01812847159527564
15.009497869018190385759 2459.00876765061047990 15.009497869018190385759 413.27903869985289020
16.009497869018190385759 2482.06959228752293711 16.009497869018190385759 413.28062450133734274
17.009497869018190385759 2503.57955871090371147 17.009497869018190385759 412.97619358302671344
18.009497869018190385759 2523.67346273285284042 18.009497869018190385759 413.08481998642912458
19.009497869018204596614 2542.47648490294386647 19.009497869018204596614 413.06935005320588061
20.009497869018190385759 2560.15485719363960015 20.009497869018190385759 413.07602393464361512
21.009497869018204596614 2576.88783435526011090 21.009497869018204596614 412.84457446784847434
22.009497869018190385759 2592.71820279078292515 22.009497869018190385759 412.73805532114005246
23.009497869018190385759 2607.70849318771206526 23.009497869018190385759 413.32072975813679250
24.009497869018190385759 2621.90399092971347272 24.009497869018190385759 413.39264342026370969
25.009497869018190385759 2635.40645628057109207 25.009497869018190385759 413.38161178318102884
26.009497869018204596614 2648.33641007808500945 26.009497869018204596614 413.58702633582032604
27.009497869018190385759 2660.70751419408452421 27.009497869018190385759 413.46105470745817456
28.009497869018190385759 2672.52927697482891745 28.009497869018190385759 413.60805111450423510
29.009497869018190385759 2683.83741350540367421 29.009497869018190385759 414.08485296574264112
30.009497869018190385759 2694.64791079856058786 30.009497869018190385759 414.11100251172393882
31.009497869018190385759 2705.01601628643402364 31.009497869018190385759 413.95953929680769079
32.009497869018190385759 2714.99996672949782806 32.009497869018190385759 413.77118496040577611
33.009497869018190385759 2724.62751506968697868 33.009497869018190385759 413.60446342001347375
34.009497869018190385759 2733.89940149843050676 34.009497869018190385759 413.27859094829011610
35.009497869018190385759 2742.82293188934863792 35.009497869018190385759 413.20048164330950158
36.009497869018190385759 2751.42139757968698177 36.009497869018190385759 413.18904741030007699
37.009497869018190385759 2759.70803492716959227 37.009497869018190385759 413.03458110742622011
38.009497869018190385759 2767.69244894935718548 38.009497869018190385759 412.66874360003595257
39.009497869018190385759 2775.40736387182369072 39.009497869018190385759 412.09287102730144170
40.009497869018190385759 2782.87904677250571694 40.009497869018190385759 411.29143947923705582
41.009497869018190385759 2790.12876584683544934 41.009497869018190385759 410.83088104863600165
42.009497869018190385759 2797.15032335662181140 42.009497869018190385759 409.96320582210444172
43.009497869018190385759 2803.94865868736587800 43.009497869018190385759 409.38360596633145860
44.009497869018218807469 2810.52531835331228649 44.009497869018218807469 408.86764228333299798
46.009497869018190385759 2823.06974538775193651 46.009497869018190385759 407.46681246316620673
48.009497869018190385759 2834.80393195598981038 48.009497869018190385759 406.03519050278981695
50.009497869018190385759 2845.86053301321362596 50.009497869018190385759 404.77259853987413862
52.009497869018190385759 2856.34957821021271229 52.009497869018190385759 403.88197095162314554
54.009497869018190385759 2866.28871756296302920 54.009497869018190385759 403.03758807267917064
56.009497869018190385759 2875.69964300789797562 56.009497869018190385759 402.66866861578779435
58.009497869018218807469 2884.64812427430888420 58.009497869018218807469 402.33422741798597144
60.009497869018190385759 2893.23908898721310834 60.009497869018190385759 401.86165522664998662
62.009497869018190385759 2901.44462127349197544 62.009497869018190385759 401.32155879857708669
64.009497869018190385759 2909.29197914274072900 64.009497869018190385759 400.88180046450986538
66.009497869018190385759 2916.79942023764306214 66.009497869018190385759 400.39704370211046580
68.009497869018190385759 2923.97747367320653211 68.009497869018190385759 399.39841637734826918
70.009497869018190385759 2930.82597195483140240 70.009497869018190385759 398.62165335696414559
72.009497869018218807469 2937.38539935600238096 72.009497869018218807469 396.54586838409971961
74.009497869018190385759 2943.68732799160306968 74.009497869018190385759 394.71858196860705448
76.009497869018190385759 2949.75517326645967842 76.009497869018190385759 393.19396203690791936
78.009497869018190385759 2955.57916494454730127 78.009497869018190385759 391.19325627316072769
80.009497869018190385759 2961.15926373907404923 80.009497869018190385759 389.87503684409688276
82.009497869018218807469 2966.50093747414712197 82.009497869018218807469 388.66038961782408023
84.009497869018190385759 2971.62229390836455423 84.009497869018190385759 386.95549326521023659
86.009497869018190385759 2976.48142823886155384 86.009497869018190385759 385.08557397908708708
88.009497869018190385759 2981.12949346949972096 88.009497869018190385759 383.88360000973273145
91.009497869018218807469 2987.79232818878699618 91.009497869018218807469 382.83073043134999125
94.009497869018190385759 2994.17536145001713521 94.009497869018190385759 382.14889807684141942
97.009497869018190385759 3000.30034845071122618 97.009497869018190385759 382.12284856716047443
99.504748934509109403734 3005.19543143569762833 99.504748934509109403734 373.10871955821852453
nan nan nan nan

