Time Pressure difference Time.1 Pressure.1 difference.1
(hr) (psi) (hr) (psi)
0.000200000000006639311 0.25750417818575039 0.000200000000006639311 0.20564093118169824
0.000399999999999067768 0.51410006478799730 0.000399999999999067768 0.53474043136601757
0.000600000000005707079 0.76994552940017791 0.000600000000005707079 0.78074022112277686
0.000799999999998135536 1.02511357024542193 0.000799999999998135536 1.03022039527919129
0.001007140329434719206 1.28872594554816433 0.001007140329434719206 1.29111672136185174
0.001267914553963578328 1.61968859528715625 0.001267914553963578328 1.62051613647836357
0.001596209851982166583 2.03499141216128354 0.001596209851982166583 2.03277934228347634
0.002009509145210586212 2.55580261323344926 0.002009509145210586212 2.54817372181089130
0.002529822128138903281 3.20844437513566794 0.002529822128138903281 3.19163620016103700
0.003184857364445292660 4.02556692637072722 0.003184857364445292660 3.99370832079465510
0.004009497869020606231 5.04755442316019209 0.004009497869020606231 4.99158400419784787
0.005047658755842121536 6.32418096928984852 0.005047658755842121536 6.23024307151873735
0.006354625877804664924 7.91653760213396307 0.006354625877804664924 7.76361590728268958
0.008000000000009777068 9.89922329036644655 0.008000000000009777068 9.65567761307210937
0.010071403294347192059 12.36277372136207653 0.010071403294347192059 11.98131483915947726
0.012679145539692626699 15.41624837265013426 0.012679145539692626699 14.82668861611651678
0.015962098519750611558 19.18982176078136703 0.015962098519750611558 18.28874112458339951
0.020095091452091651263 23.83713659214450686 0.020095091452091651263 22.47335341668678765
0.025298221281346400247 29.53703684648575134 0.025298221281346400247 27.49144694427735658
0.031848573644282396344 36.49411185361505972 0.031848573644282396344 33.45217039441052975
0.040094978690191851456 44.93727293422968216 0.040094978690191851456 40.45214539981416380
0.050476587558421215363 55.11532002665864383 0.050476587558421215363 48.56058934125265125
0.063546258777947173257 67.28863561518430458 0.063546258777947173257 57.79827053733271214
0.079999999999998294697 81.71502315474887723 0.079999999999998294697 68.11202493903574862
0.100714032943542974863 98.62962678566015029 0.100714032943542974863 79.34816621556703353
0.126791455396897845276 118.21849101506195723 0.126791455396897845276 91.22370950896520014
0.159620985197506115583 140.58521493316507645 0.159620985197506115583 103.31390798005458009
0.200950914520774404082 165.71878920548218161 0.200950914520774404082 115.05549755954734792
0.252982212813464002465 193.46181758939536621 0.252982212813464002465 125.78798058846325603
0.318485736442795541734 223.49748549307497569 0.318485736442795541734 134.83158422604705606
0.400949786901819038576 255.35384645742840348 0.400949786901819038576 141.59859576861720143
0.504765875584169521062 288.44219432819409121 0.504765875584169521062 145.71961780519538365
0.635462587779443310865 322.11951174427531441 0.635462587779443310865 147.13378220294916332
0.799999999999997157829 355.76820113725494821 0.799999999999997157829 146.11688566788984645
1.007140329435330272645 388.87105311673809638 1.007140329435330272645 143.22796568206308621
1.267914553968893187630 421.06571012551842159 1.267914553968893187630 139.18531298943162255
1.596209851975103788391 452.16180838150791033 1.596209851975103788391 134.71103985782835366
2.009509145207687197399 482.12324835701150505 2.009509145207687197399 130.41123188600278127
2.529822128134711078928 511.02966124058087871 2.529822128134711078928 126.70144070415753390
3.184857364427983839050 539.02419261562124575 3.184857364427983839050 123.79179690189234009
4.009497869018190385759 566.26808731441690270 4.009497869018190385759 121.71939582867969420
5.009497869018190385759 592.03581729940253808 5.009497869018190385759 120.42373955825351572
6.009497869018190385759 612.74321873249778037 6.009497869018190385759 119.80163943519467296
7.009497869018204596614 630.03197777296702498 7.009497869018204596614 119.51691417452418875
8.009497869018190385759 644.84878745776074993 8.009497869018190385759 119.44522979574239230
9.009497869018204596614 657.80211661552516489 9.009497869018204596614 119.46726746969423516
10.009497869018190385759 669.28008921283799282 10.009497869018190385759 119.49723084954703722
11.009497869018190385759 679.58405301070604310 11.009497869018190385759 119.50608982836713778
12.009497869018190385759 688.90344666560906717 12.009497869018190385759 119.59815521423966800
13.009497869018190385759 697.40080909254447761 13.009497869018190385759 119.63933696878825685
14.009497869018204596614 705.21510548451556133 14.009497869018204596614 119.65945778149021805
15.009497869018190385759 712.42310090812077306 15.009497869018190385759 119.73504859528448208
16.009497869018190385759 719.10427440105797814 16.009497869018190385759 119.73550803309773016
17.009497869018190385759 725.33613383213105408 17.009497869018190385759 119.64730842125072741
18.009497869018190385759 731.15773219363029511 18.009497869018190385759 119.67877962223647614
19.009497869018204596614 736.60533674758187317 19.009497869018204596614 119.67429767896618387
20.009497869018190385759 741.72710815890479807 20.009497869018190385759 119.67623123340142399
21.009497869018204596614 746.57498004685112392 21.009497869018204596614 119.60917578040469778
22.009497869018190385759 751.16134847209605141 22.009497869018190385759 119.57831509304057249
23.009497869018190385759 755.50432980204743671 23.009497869018190385759 119.74712731310506797
24.009497869018190385759 759.61704410113190988 24.009497869018190385759 119.76796211241284595
25.009497869018190385759 763.52897331493193178 25.009497869018190385759 119.76476603064124049
26.009497869018204596614 767.27503469551993476 26.009497869018204596614 119.82427865804140765
27.009497869018190385759 770.85918635529549192 27.009497869018190385759 119.78778220496451468
28.009497869018190385759 774.28418304878232448 28.009497869018190385759 119.83036994906197492
29.009497869018190385759 777.56037213707952560 29.009497869018190385759 119.96850880315908228
30.009497869018190385759 780.69238537154558344 30.009497869018190385759 119.97608483984527084
31.009497869018190385759 783.69622901756508782 31.009497869018190385759 119.93220297384149831
32.009497869018190385759 786.58877540761147884 32.009497869018190385759 119.87763302591194758
33.009497869018190385759 789.37806511364749440 33.009497869018190385759 119.82933052355529924
34.009497869018190385759 792.06431258365751091 34.009497869018190385759 119.73491887286908764
35.009497869018190385759 794.64963447261493457 35.009497869018190385759 119.71228907422987220
36.009497869018190385759 797.14077873804012597 36.009497869018190385759 119.70897635251685642
37.009497869018190385759 799.54158021254443156 37.009497869018190385759 119.66422443299265410
38.009497869018190385759 801.85482165822497791 38.009497869018190385759 119.55823412711320941
39.009497869018190385759 804.08998392548176071 39.009497869018190385759 119.39139254062003204
40.009497869018190385759 806.25467710231475849 40.009497869018190385759 119.15920209211540737
41.009497869018190385759 808.35506300235419985 41.009497869018190385759 119.02576927577305810
42.009497869018190385759 810.38934601920811929 42.009497869018190385759 118.77438673350688703
43.009497869018190385759 812.35895718979747926 43.009497869018190385759 118.60646527996519239
44.009497869018218807469 814.26434456965125719 44.009497869018218807469 118.45698047461048930
46.009497869018190385759 817.89871128056358884 46.009497869018190385759 118.05113258278646526
48.009497869018190385759 821.29833542650180789 48.009497869018190385759 117.63636360361199706
50.009497869018190385759 824.50164975149175461 50.009497869018190385759 117.27056593211307245
52.009497869018190385759 827.54053200482792363 52.009497869018190385759 117.01253364018988634
54.009497869018190385759 830.42009574254075233 54.009497869018190385759 116.76789934815937499
56.009497869018190385759 833.14662554434426056 56.009497869018190385759 116.66101614102262829
58.009497869018218807469 835.73917619162216397 58.009497869018218807469 116.56412196222024136
60.009497869018190385759 838.22814727666923318 60.009497869018190385759 116.42720852360888273
62.009497869018190385759 840.60545102316132215 62.009497869018190385759 116.27073198837278767
64.009497869018190385759 842.87898461144823159 64.009497869018190385759 116.14332536822247732
66.009497869018190385759 845.05403763894321401 66.009497869018190385759 116.00288182023761863
68.009497869018190385759 847.13366059691031751 68.009497869018190385759 115.71355988502612888
70.009497869018190385759 849.11780495887637699 70.009497869018190385759 115.48851639313915030
72.009497869018218807469 851.01819981342123356 72.009497869018218807469 114.88712074679526154
74.009497869018190385759 852.84399222186641509 74.009497869018190385759 114.35772000959642014
76.009497869018190385759 854.60196608654439387 76.009497869018190385759 113.91600769293592066
78.009497869018190385759 856.28929077832674466 78.009497869018190385759 113.33636396699048987
80.009497869018190385759 857.90595491505871450 80.009497869018190385759 112.95444992679442464
82.009497869018218807469 859.45354263269678086 82.009497869018218807469 112.60254278647239801
84.009497869018190385759 860.93730010429260346 84.009497869018190385759 112.10860085253754903
86.009497869018190385759 862.34508668602529724 86.009497869018190385759 111.56684853599719531
88.009497869018190385759 863.69172240705131571 88.009497869018190385759 111.21861308693192427
91.009497869018218807469 865.62207639114387803 91.009497869018218807469 110.91357610627898111
94.009497869018190385759 867.47136640140695363 94.009497869018190385759 110.71603589142134183
97.009497869018190385759 869.24589534553319936 97.009497869018190385759 110.70848883721470202
99.504748934509109403734 870.66409695800587087 99.504748934509109403734 108.09691875051190380
nan nan nan nan

