Time Pressure difference Time.1 Pressure.1 difference.1
(hr) (psi) (hr) (psi)
0.000200000000006639311 0.35718321490281502 0.000200000000006639311 0.28524387228429110
0.000399999999999067768 0.71310654148012520 0.000399999999999067768 0.74173672737866947
0.000600000000005707079 1.06798896013573064 0.000600000000005707079 1.08296224220256154
0.000799999999998135536 1.42193172646945643 0.000799999999998135536 1.42901538700016872
0.001007140329434719206 1.78758760188938925 0.001007140329434719206 1.79090383930837516
0.001267914553963578328 2.24666482572089432 0.001267914553963578328 2.24781270543773015
0.001596209851982166583 2.82273002332049039 0.001596209851982166583 2.81966166832869325
0.002009509145210586212 3.54514556029155870 0.002009509145210586212 3.53456354960865582
0.002529822128138903281 4.45042284293012003 0.002529822128138903281 4.42710827764272885
0.003184857364445292660 5.58385089786907329 0.003184857364445292660 5.53965992884419922
0.004009497869020606231 7.00144645793187870 0.004009497869020606231 6.92381007033895024
0.005047658755842121536 8.77225102191817641 0.005047658755842121536 8.64195006694534484
0.006354625877804664924 10.98100377070194966 0.006354625877804664924 10.76888658106953756
0.008000000000009777068 13.73118069308894107 0.008000000000009777068 13.39335926974518287
0.010071403294347192059 17.14836354898610438 0.010071403294347192059 16.61924316399540658
0.012679145539692626699 21.38382838786953855 0.012679145539692626699 20.56605195138742559
0.015962098519750611558 26.61813986172899149 0.015962098519750611558 25.36825381797052259
0.020095091452091651263 33.06441527297463523 0.020095091452091651263 31.17271602959780452
0.025298221281346400247 40.97072852899636075 0.025298221281346400247 38.13329737432020039
0.031848573644282396344 50.62086482920798858 0.031848573644282396344 46.40139764385977372
0.040094978690191851456 62.33234632812504827 0.040094978690191851456 56.11104039329061521
0.050476587558421215363 76.45028261762327304 0.050476587558421215363 67.35823682818916325
0.063546258777947173257 93.33584940170726441 0.063546258777947173257 80.17179461630020398
0.079999999999998294697 113.34664502110327078 0.079999999999998294697 94.47797007672699010
0.100714032943542974863 136.80883715430277903 0.100714032943542974863 110.06358539578651801
0.126791455396897845276 163.98048753702141767 0.126791455396897845276 126.53611318985497292
0.159620985197506115583 195.00529813309992733 0.159620985197506115583 143.30638848846280098
0.200950914520774404082 229.86799793018494142 0.200950914520774404082 159.59310951808180334
0.252982212813464002465 268.35026310787100101 0.252982212813464002465 174.48010210657807306
0.318485736442795541734 310.01264116781362645 0.318485736442795541734 187.02445553935555722
0.400949786901819038576 354.20049669901356992 0.400949786901819038576 196.41095542098511828
0.504765875584169521062 400.09723729394670499 0.504765875584169521062 202.12721179430323559
0.635462587779443310865 446.81093564528515572 0.635462587779443310865 204.08879466860688012
0.799999999999997157829 493.48492415812785339 0.799999999999997157829 202.67826076513750877
1.007140329435330272645 539.40178335547534516 1.007140329435330272645 198.67104917189396929
1.267914553968893187630 584.05888823862233039 1.267914553968893187630 193.06349866275999716
1.596209851975103788391 627.19218581951099623 1.596209851975103788391 186.85724883505224625
2.009509145207687197399 668.75160255972571122 2.009509145207687197399 180.89299906768133042
2.529822128134711078928 708.84759462403155794 2.529822128134711078928 175.74715968641206132
3.184857364427983839050 747.67871878941025443 3.184857364427983839050 171.71120215423778177
4.009497869018190385759 785.46863724257832473 4.009497869018190385759 168.83658131074923858
5.009497869018190385759 821.21097238304207622 5.009497869018190385759 167.03938067757744079
6.009497869018190385759 849.93414211281958615 6.009497869018190385759 166.17646760365713021
7.009497869018204596614 873.91532400766391220 7.009497869018204596614 165.78152611304969355
8.009497869018190385759 894.46767292528113558 8.009497869018190385759 165.68209294248137553
9.009497869018204596614 912.43519401508319788 9.009497869018204596614 165.71266132893069312
10.009497869018190385759 928.35625277909787201 10.009497869018190385759 165.75422343646849299
11.009497869018190385759 942.64884772452785455 11.009497869018190385759 165.76651169741248282
12.009497869018190385759 955.57574860068370981 12.009497869018190385759 165.89421529717114367
13.009497869018190385759 967.36241261223926813 13.009497869018190385759 165.95133837606113048
14.009497869018204596614 978.20159793013465332 14.009497869018204596614 165.97924789045416105
15.009497869018190385759 988.19978513061914782 15.009497869018190385759 166.08409966442687278
16.009497869018190385759 997.46721933049980180 16.009497869018190385759 166.08473694913558916
17.009497869018190385759 1006.11141144456883012 17.009497869018190385759 165.96239555205747251
18.009497869018190385759 1014.18653175245492548 18.009497869018190385759 166.00604915342478307
19.009497869018204596614 1021.74288645632327643 19.009497869018204596614 165.99983226437248618
20.009497869018190385759 1028.84727905912609458 20.009497869018190385759 166.00251429149230376
21.009497869018204596614 1035.57174651659988740 21.009497869018204596614 165.90950188894845496
22.009497869018190385759 1041.93348336452027070 22.009497869018190385759 165.86669512905626789
23.009497869018190385759 1047.95761875767880156 23.009497869018190385759 166.10085401495217639
24.009497869018190385759 1053.66235149511862801 24.009497869018190385759 166.12975389786296887
25.009497869018190385759 1059.08857588845398823 25.009497869018190385759 166.12532062314750192
26.009497869018204596614 1064.28472554539871453 26.009497869018204596614 166.20787039663809992
27.009497869018190385759 1069.25629075089364051 27.009497869018190385759 166.15724628430561438
28.009497869018190385759 1074.00709261605288702 28.009497869018190385759 166.21631960676339190
29.009497869018190385759 1078.55148393207809931 29.009497869018190385759 166.40793156567227129
30.009497869018190385759 1082.89588938633733051 30.009497869018190385759 166.41844026172086046
31.009497869018190385759 1087.06251121791274272 31.009497869018190385759 166.35757186694144139
32.009497869018190385759 1091.07475298475151249 32.009497869018190385759 166.28187806820045580
33.009497869018190385759 1094.94376773828525984 33.009497869018190385759 166.21487782299604419
34.009497869018190385759 1098.66985293862148865 34.009497869018190385759 166.08391972688292526
35.009497869018190385759 1102.25594459104672751 35.009497869018190385759 166.05253000618981218
36.009497869018190385759 1105.71140276566848115 36.009497869018190385759 166.04793494058790770
37.009497869018190385759 1109.04154674643268663 37.009497869018190385759 165.98585969737689538
38.009497869018190385759 1112.25023649366698919 38.009497869018190385759 165.83884088599575080
39.009497869018190385759 1115.35062286437778312 39.009497869018190385759 165.60741545956972232
40.009497869018190385759 1118.35326178708169209 40.009497869018190385759 165.28534483745039552
41.009497869018190385759 1121.26670029358820102 41.009497869018190385759 165.10026060833038741
42.009497869018190385759 1124.08844770406290081 42.009497869018190385759 164.75156869486437472
43.009497869018190385759 1126.82048900520294410 43.009497869018190385759 164.51864538833882534
44.009497869018218807469 1129.46344569338702968 44.009497869018218807469 164.31129549704036208
46.009497869018190385759 1134.50466403433028972 46.009497869018190385759 163.74834519547800937
48.009497869018190385759 1139.22027172063144462 48.009497869018190385759 163.17302048242953560
50.009497869018190385759 1143.66357868755312666 50.009497869018190385759 162.66562371228587836
52.009497869018190385759 1147.87880245830956483 52.009497869018190385759 162.30770795252146854
54.009497869018190385759 1151.87303602997576490 54.009497869018190385759 161.96837651518882240
56.009497869018190385759 1155.65499672280020604 56.009497869018190385759 161.82011916335395085
58.009497869018218807469 1159.25111536257281841 58.009497869018218807469 161.68571756049905730
60.009497869018190385759 1162.70355912570244072 60.009497869018190385759 161.49580537145746462
62.009497869018190385759 1166.00110948373981046 62.009497869018190385759 161.27875727419453256
64.009497869018190385759 1169.15472059007333883 64.009497869018190385759 161.10203196237310408
66.009497869018190385759 1172.17172962821155124 66.009497869018190385759 160.90722317000702901
68.009497869018190385759 1175.05636792474660979 68.009497869018190385759 160.50590564697174045
70.009497869018190385759 1177.80856816876394078 70.009497869018190385759 160.19374854532205177
72.009497869018218807469 1180.44459974119718026 72.009497869018218807469 159.35955458426437303
74.009497869018190385759 1182.97715050129863812 74.009497869018190385759 158.62522452944020301
76.009497869018190385759 1185.41563037810988135 76.009497869018190385759 158.01252679987888428
78.009497869018190385759 1187.75611301509843543 78.009497869018190385759 157.20850485743844160
80.009497869018190385759 1189.99858262411362375 80.009497869018190385759 156.67875312426323831
82.009497869018218807469 1192.14523655503126065 82.009497869018218807469 156.19062386510688611
84.009497869018190385759 1194.20335175756713397 84.009497869018190385759 155.50547860190692973
86.009497869018190385759 1196.15608798384164402 86.009497869018190385759 154.75401571122191058
88.009497869018190385759 1198.02400204849050169 88.009497869018190385759 154.27097944316363964
91.009497869018218807469 1200.70158983287706178 91.009497869018218807469 153.84786363129020970
94.009497869018190385759 1203.26673404066104922 94.009497869018190385759 153.57385623648769979
97.009497869018190385759 1205.72817741477183517 97.009497869018190385759 153.56338774194298935
99.504748934509109403734 1207.69536029658866028 99.504748934509109403734 149.94088729909717017
nan nan nan nan

