Time Pressure difference Time.1 Pressure.1 difference.1
(hr) (psi) (hr) (psi)
0.000200000000006639311 0.41532931965443609 0.000200000000006639311 0.33167892126080362
0.000399999999999067768 0.82919365288386648 0.000399999999999067768 0.86248456671938312
0.000600000000005707079 1.24184762806480320 0.000600000000005707079 1.25925842116576914
0.000799999999998135536 1.65340898426680982 0.000799999999998135536 1.66164579883740537
0.001007140329434719206 2.07859023475510352 0.001007140329434719206 2.08244632477718028
0.001267914553963578328 2.61240096014057466 0.001267914553963578328 2.61373570399736055
0.001596209851982166583 3.28224421316336024 0.001596209851982166583 3.27867635852173622
0.002009509145210586212 4.12226227940878953 0.002009509145210586212 4.10995761582401808
0.002529822128138903281 5.17491028247688423 0.002529822128138903281 5.14780032284038125
0.003184857364445292660 6.49284988124310836 0.003184857364445292660 6.44146503353976563
0.004009497869020606231 8.14121681154869670 0.004009497869020606231 8.05094194225459248
0.005047658755842121536 10.20029188595136738 0.005047658755842121536 10.04877914761086721
0.006354625877804664924 12.76860903569994043 0.006354625877804664924 12.52196114077853295
0.008000000000009777068 15.96648917801039680 0.008000000000009777068 15.57367356947114345
0.010071403294347192059 19.93995761510012343 0.010071403294347192059 19.32470135348302520
0.012679145539692626699 24.86491673008085712 0.012679145539692626699 23.91401389696212476
0.015962098519750611558 30.95132542061510961 0.015962098519750611558 29.49796955577967950
0.020095091452091651263 38.44699450345888181 0.020095091452091651263 36.24734422046256554
0.025298221281346400247 47.64038201046088972 0.025298221281346400247 44.34104345851186935
0.031848573644282396344 58.86147073163719057 0.031848573644282396344 53.95511353937182975
0.040094978690191851456 72.47947247456400532 0.040094978690191851456 65.24539580615187617
0.050476587558421215363 88.89567746235265133 0.050476587558421215363 78.32353119556877630
0.063546258777947173257 108.53005744384566356 0.063546258777947173257 93.22301699569791822
0.079999999999998294697 131.79842444314334671 0.079999999999998294697 109.85810474038022733
0.100714032943542974863 159.08004320267764342 0.100714032943542974863 127.98091325091456838
0.126791455396897845276 190.67498550816446823 0.126791455396897845276 147.13501533704064173
0.159620985197506115583 226.75034666639527359 0.159620985197506115583 166.63533545170093930
0.200950914520774404082 267.28836968626154658 0.200950914520774404082 185.57338316056024041
0.252982212813464002465 312.03518966031509763 0.252982212813464002465 202.88383965881169502
0.318485736442795541734 360.47981531141124378 0.318485736442795541734 217.47029713878555413
0.400949786901819038576 411.86104267327158368 0.400949786901819038576 228.38483188486642916
0.504765875584169521062 465.22934569063568233 0.504765875584169521062 235.03164162128283010
0.635462587779443310865 519.54759958754084437 0.635462587779443310865 237.31255194024058142
0.799999999999997157829 573.81967925363699123 0.799999999999997157829 235.67239623853200214
1.007140329435330272645 627.21137599473888713 1.007140329435330272645 231.01284787429531775
1.267914553968893187630 679.13824213793293438 1.267914553968893187630 224.49244030553489893
1.596209851975103788391 729.29323932501279160 1.596209851975103788391 217.27587073843281473
2.009509145207687197399 777.61814251130886078 2.009509145207687197399 210.34069659032709865
2.529822128134711078928 824.24138909771113504 2.529822128134711078928 204.35716242606054038
3.184857364427983839050 869.39385905745371019 3.184857364427983839050 199.66418855143928113
4.009497869018190385759 913.33562470067249706 4.009497869018190385759 196.32160617528981561
5.009497869018190385759 954.89647951516531066 5.009497869018190385759 194.23183799718307796
6.009497869018190385759 988.29551408467386864 6.009497869018190385759 193.22845070192690287
7.009497869018204596614 1016.18060931123716273 7.009497869018204596614 192.76921641052288692
8.009497869018190385759 1040.07868944800111422 8.009497869018190385759 192.65359644474580136
9.009497869018204596614 1060.97115583149229678 9.009497869018204596614 192.68914108015198394
10.009497869018190385759 1079.48401485941622013 10.009497869018190385759 192.73746911217264710
11.009497869018190385759 1096.10331130759050211 11.009497869018190385759 192.75175778768894475
12.009497869018190385759 1111.13459139614360538 12.009497869018190385759 192.90025034554784611
13.009497869018190385759 1124.84001466539439207 13.009497869018190385759 192.96667253030364009
14.009497869018204596614 1137.44371852341237172 14.009497869018204596614 192.99912545401647890
15.009497869018190385759 1149.06951759374305766 15.009497869018190385759 193.12104612142658766
16.009497869018190385759 1159.84560387267424630 16.009497869018190385759 193.12178715015764396
17.009497869018190385759 1169.89699005182410474 17.009497869018190385759 192.97952971169473813
18.009497869018190385759 1179.28666482843595986 18.009497869018190385759 193.03028971328464536
19.009497869018204596614 1188.07312378642222939 19.009497869018204596614 193.02306077252612226
20.009497869018190385759 1196.33404541758841333 20.009497869018190385759 193.02617940871198243
21.009497869018204596614 1204.15319362395325697 21.009497869018204596614 192.91802545226565258
22.009497869018190385759 1211.55056205176765616 22.009497869018190385759 192.86825015006542117
23.009497869018190385759 1218.55537064846384965 23.009497869018190385759 193.14052792436299910
24.009497869018190385759 1225.18878080827744270 24.009497869018190385759 193.17413243937556899
25.009497869018190385759 1231.49834405634169343 25.009497869018190385759 193.16897746877617692
26.009497869018204596614 1237.54037854116131712 26.009497869018204596614 193.26496557748615146
27.009497869018190385759 1243.32126831499249420 27.009497869018190385759 193.20610033058792965
28.009497869018190385759 1248.84545653029408641 28.009497869018190385759 193.27479024042253286
29.009497869018190385759 1254.12963247916059117 29.009497869018190385759 193.49759484380496133
30.009497869018190385759 1259.18126672829930612 30.009497869018190385759 193.50981425781492362
31.009497869018190385759 1264.02617583478217966 31.009497869018190385759 193.43903705458305353
32.009497869018190385759 1268.69157323808303772 32.009497869018190385759 193.35102100953542958
33.009497869018190385759 1273.19042760265733705 33.009497869018190385759 193.27311374766981089
34.009497869018190385759 1277.52308481235058935 34.009497869018190385759 193.12083689172433765
35.009497869018190385759 1281.69295882679830356 35.009497869018190385759 193.08433721649976178
36.009497869018190385759 1285.71093344845189677 36.009497869018190385759 193.07899411696268999
37.009497869018190385759 1289.58319389120060805 37.009497869018190385759 193.00681360160103850
38.009497869018190385759 1293.31422848100805822 38.009497869018190385759 192.83586149534389165
39.009497869018190385759 1296.91932891206738532 39.009497869018190385759 192.56676216229038801
40.009497869018190385759 1300.41076951986246968 40.009497869018190385759 192.19226143889582659
41.009497869018190385759 1303.79848871347462591 41.009497869018190385759 191.97704721898878688
42.009497869018190385759 1307.07959035356157074 42.009497869018190385759 191.57159150565627215
43.009497869018190385759 1310.25638256418937999 43.009497869018190385759 191.30075045155675184
44.009497869018218807469 1313.32958801556628714 44.009497869018218807469 191.05964592679109160
46.009497869018190385759 1319.19146980736059049 46.009497869018190385759 190.40505255288138642
48.009497869018190385759 1324.67473455887375167 48.009497869018190385759 189.73607032840644138
50.009497869018190385759 1329.84137056692225087 50.009497869018190385759 189.14607408405333899
52.009497869018190385759 1334.74279355617409237 52.009497869018190385759 188.72989296804820469
54.009497869018190385759 1339.38725119764626470 54.009497869018190385759 188.33532152928933101
56.009497869018190385759 1343.78487991023280301 56.009497869018190385759 188.16292925971390559
58.009497869018218807469 1347.96641321229367350 58.009497869018218807469 188.00664832616169519
60.009497869018190385759 1351.98088270430525881 60.009497869018190385759 187.78582019936916936
62.009497869018190385759 1355.81524358574392863 62.009497869018190385759 187.53343869092384466
64.009497869018190385759 1359.48223324427112857 64.009497869018190385759 187.32794414229431368
66.009497869018190385759 1362.99038328861820446 66.009497869018190385759 187.10142229070581266
68.009497869018190385759 1366.34461386598445642 68.009497869018190385759 186.63477400810666040
70.009497869018190385759 1369.54484670786519018 70.009497869018190385759 186.27180063409542754
72.009497869018218807469 1372.60999969906652041 72.009497869018218807469 185.30180765612138316
74.009497869018190385759 1375.55482616430049347 74.009497869018190385759 184.44793549934905741
76.009497869018190385759 1378.39026788152318659 76.009497869018190385759 183.73549627892890612
78.009497869018190385759 1381.11175931988191223 78.009497869018190385759 182.80058704353305643
80.009497869018190385759 1383.71928212106263345 80.009497869018190385759 182.18459665612004983
82.009497869018218807469 1386.21539134305930929 82.009497869018218807469 181.61700449431032212
84.009497869018190385759 1388.60854855531056273 84.009497869018190385759 180.82032395570570316
86.009497869018190385759 1390.87917207423424770 86.009497869018190385759 179.94652989676967536
88.009497869018190385759 1393.05116517266333176 88.009497869018190385759 179.38485981763213317
91.009497869018218807469 1396.16463934055468599 91.009497869018218807469 178.89286468754676207
94.009497869018190385759 1399.14736516355947060 94.009497869018190385759 178.57425143777638255
97.009497869018190385759 1402.00950862182776291 97.009497869018190385759 178.56207876970111670
99.504748934509109403734 1404.29693057742883866 99.504748934509109403734 174.34986895243855543
nan nan nan nan

