Time Pressure difference Time.1 Pressure.1 difference.1
(hr) (psi) (hr) (psi)
0.000200000000006639311 0.53162152915767824 0.000200000000006639311 0.42454901921382865
0.000399999999999067768 1.06136787569134916 0.000399999999999067768 1.10398024540081052
0.000600000000005707079 1.58956496392294788 0.000600000000005707079 1.61185077909218477
0.000799999999998135536 2.11636349986151640 0.000799999999998135536 2.12690662251187890
0.001007140329434719206 2.66059550048653293 0.001007140329434719206 2.66553129571479097
0.001267914553963578328 3.34387322897993577 0.001267914553963578328 3.34558170111662134
0.001596209851982166583 4.20127259284910171 0.001596209851982166583 4.19670573890782173
0.002009509145210586212 5.27649571764325032 0.002009509145210586212 5.26074574825474350
0.002529822128138903281 6.62388516157041085 0.002529822128138903281 6.58918441323568871
0.003184857364445292660 8.31084784799117848 0.003184857364445292660 8.24507524293090022
0.004009497869020606231 10.42075751878233092 0.004009497869020606231 10.30520568608587872
0.005047658755842121536 13.05637361401775109 0.005047658755842121536 12.86243730894191017
0.006354625877804664924 16.34381956569592376 0.006354625877804664924 16.02811026019652374
0.008000000000009777068 20.43710614785331003 0.008000000000009777068 19.93430216892306461
0.010071403294347192059 25.52314574732815800 0.010071403294347192059 24.73561773245827666
0.012679145539692626699 31.82709341450349427 0.012679145539692626699 30.60993778811151600
0.015962098519750611558 39.61769653838733518 0.015962098519750611558 37.75740103139798975
0.020095091452091651263 49.21215296442736786 0.020095091452091651263 46.39660060219208049
0.025298221281346400247 60.97968897338993344 0.025298221281346400247 56.75653562689519305
0.031848573644282396344 75.34268253649561586 0.031848573644282396344 69.06254533039593468
0.040094978690191851456 92.77372476744193364 0.040094978690191851456 83.51410663187441230
0.050476587558421215363 113.78646715181139371 0.050476587558421215363 100.25411993032804503
0.063546258777947173257 138.91847352812246186 0.063546258777947173257 119.32546175449333248
0.079999999999998294697 168.70198328722347014 0.079999999999998294697 140.61837406768668757
0.100714032943542974863 203.62245529942740063 0.100714032943542974863 163.81556896117061228
0.126791455396897845276 244.06398145045051251 0.126791455396897845276 188.33281963141203619
0.159620985197506115583 290.24044373298596611 0.159620985197506115583 213.29322937817721595
0.200950914520774404082 342.12911319841481372 0.200950914520774404082 237.53393044551708613
0.252982212813464002465 399.40504276520329086 0.252982212813464002465 259.69131476327896735
0.318485736442795541734 461.41416359860636476 0.318485736442795541734 278.36198033764549109
0.400949786901819038576 527.18213462178766804 0.400949786901819038576 292.33258481262902251
0.504765875584169521062 595.49356248401363700 0.504765875584169521062 300.84050127524204754
0.635462587779443310865 665.02092747205233536 0.635462587779443310865 303.76006648350795558
0.799999999999997157829 734.48918944465538061 0.799999999999997157829 301.66066718532096047
1.007140329435330272645 802.83056127326574369 1.007140329435330272645 295.69644527909804310
1.267914553968893187630 869.29694993655414237 1.267914553968893187630 287.35032359108464561
1.596209851975103788391 933.49534633601638234 1.596209851975103788391 278.11311454519403696
2.009509145207687197399 995.35122241447550095 2.009509145207687197399 269.23609163561872037
2.529822128134711078928 1055.02897804507028923 2.529822128134711078928 261.57716790535744167
3.184857364427983839050 1112.82413959354084909 3.184857364427983839050 255.57016134584227984
4.009497869018190385759 1169.06959961686061433 4.009497869018190385759 251.29165590437096967
5.009497869018190385759 1222.26749377941132479 5.009497869018190385759 248.61675263639432387
6.009497869018190385759 1265.01825802838266100 6.009497869018190385759 247.33241689846644817
7.009497869018204596614 1300.71117991838332273 7.009497869018204596614 246.74459700546933050
8.009497869018190385759 1331.30072249344175361 8.009497869018190385759 246.59660344927462461
9.009497869018204596614 1358.04307946431003984 9.009497869018204596614 246.64210058259453717
10.009497869018190385759 1381.73953902005246164 10.009497869018190385759 246.70396046358101216
11.009497869018190385759 1403.01223847371579723 11.009497869018190385759 246.72224996824181176
12.009497869018190385759 1422.25227698706407864 12.009497869018190385759 246.91232044230122256
13.009497869018190385759 1439.79521877170486732 13.009497869018190385759 246.99734083878865931
14.009497869018204596614 1455.92795970996758115 14.009497869018204596614 247.03888058114108617
15.009497869018190385759 1470.80898251999133208 15.009497869018190385759 247.19493903542601743
16.009497869018190385759 1484.60237295702290794 16.009497869018190385759 247.19588755220181042
17.009497869018190385759 1497.46814726633488135 17.009497869018190385759 247.01379803096924093
18.009497869018190385759 1509.48693098039802862 18.009497869018190385759 247.07877083300431309
19.009497869018204596614 1520.73359844662059004 19.009497869018204596614 247.06951778883345128
20.009497869018190385759 1531.30757813451327820 20.009497869018190385759 247.07350964315133979
21.009497869018204596614 1541.31608783866022350 21.009497869018204596614 246.93507257890004780
22.009497869018190385759 1550.78471942626265445 22.009497869018190385759 246.87136019208378457
23.009497869018190385759 1559.75087443003371845 23.009497869018190385759 247.21987574318467296
24.009497869018190385759 1568.24163943459484472 24.009497869018190385759 247.26288952240074082
25.009497869018190385759 1576.31788039211755859 25.009497869018190385759 247.25629116003347008
26.009497869018204596614 1584.05168453268652229 26.009497869018204596614 247.37915593918225454
27.009497869018190385759 1591.45122344319065633 27.009497869018190385759 247.30380842315256018
28.009497869018190385759 1598.52218435877625780 28.009497869018190385759 247.39173150774084320
29.009497869018190385759 1605.28592957332557489 29.009497869018190385759 247.67692140007036983
30.009497869018190385759 1611.75202141222302998 30.009497869018190385759 247.69256225000313520
31.009497869018190385759 1617.95350506852128092 31.009497869018190385759 247.60196742986627783
32.009497869018190385759 1623.92521374474631557 32.009497869018190385759 247.48930689220534873
33.009497869018190385759 1629.68374733140149146 33.009497869018190385759 247.38958559701740114
34.009497869018190385759 1635.22954855980901812 34.009497869018190385759 247.19467122140719084
35.009497869018190385759 1640.56698729830191041 35.009497869018190385759 247.14795163711974624
36.009497869018190385759 1645.70999481401827325 36.009497869018190385759 247.14111246971222613
37.009497869018190385759 1650.66648818073690563 37.009497869018190385759 247.04872141004932473
38.009497869018190385759 1655.44221245569042367 38.009497869018190385759 246.82990271404014493
39.009497869018190385759 1660.05674100744613497 39.009497869018190385759 246.48545556773169096
40.009497869018190385759 1664.52578498542402485 40.009497869018190385759 246.00609464178668873
41.009497869018190385759 1668.86206555324724832 41.009497869018190385759 245.73062044030564266
42.009497869018190385759 1673.06187565255868321 42.009497869018190385759 245.21163712724001016
43.009497869018190385759 1677.12816968216247915 43.009497869018190385759 244.86496057799263326
44.009497869018218807469 1681.06187265992502944 44.009497869018218807469 244.55634678629263590
46.009497869018190385759 1688.56508135342187416 46.009497869018190385759 243.71846726768822577
48.009497869018190385759 1695.58366023535859313 48.009497869018190385759 242.86217002036025292
50.009497869018190385759 1702.19695432566049931 50.009497869018190385759 242.10697482758826027
52.009497869018190385759 1708.47077575190269272 52.009497869018190385759 241.57426299910170542
54.009497869018190385759 1714.41568153298726429 54.009497869018190385759 241.06921155749031982
56.009497869018190385759 1720.04464628509799695 56.009497869018190385759 240.84854945243381508
58.009497869018218807469 1725.39700891173629316 58.009497869018218807469 240.64850985748694256
60.009497869018190385759 1730.53552986151089499 60.009497869018190385759 240.36584985519249358
62.009497869018190385759 1735.44351178975216499 62.009497869018190385759 240.04280152438255413
64.009497869018190385759 1740.13725855266716280 64.009497869018190385759 239.77976850213676130
66.009497869018190385759 1744.62769060943128352 66.009497869018190385759 239.48982053210346521
68.009497869018190385759 1748.92110574845992232 68.009497869018190385759 238.89251073037652873
70.009497869018190385759 1753.01740378606746162 70.009497869018190385759 238.42790481164212224
72.009497869018218807469 1756.94079961480497332 72.009497869018218807469 237.18631379983534657
74.009497869018190385759 1760.71017749030465893 74.009497869018190385759 236.09335743916679462
76.009497869018190385759 1764.33954288834956969 76.009497869018190385759 235.18143523702903508
78.009497869018190385759 1767.82305192944886585 78.009497869018190385759 233.98475141572231450
80.009497869018190385759 1771.16068111495997073 80.009497869018190385759 233.19628371983364445
82.009497869018218807469 1774.35570091911586132 82.009497869018218807469 232.46976575271722254
84.009497869018190385759 1777.41894215079764763 84.009497869018190385759 231.45001466330333528
86.009497869018190385759 1780.32534025502013719 86.009497869018190385759 230.33155826786517650
88.009497869018190385759 1783.10549142100899189 88.009497869018190385759 229.61262056656912023
91.009497869018218807469 1787.09073835590993440 91.009497869018218807469 228.98286680005983840
94.009497869018190385759 1790.90862740935631336 94.009497869018190385759 228.57504184035374806
97.009497869018190385759 1794.57217103593961838 97.009497869018190385759 228.55946082521742824
99.504748934509109403734 1797.50007113910896805 99.504748934509109403734 223.16783225912135435
nan nan nan nan

