Time Pressure difference Time.1 Pressure.1 difference.1
(hr) (psi) (hr) (psi)
0.000200000000006639311 0.59807422030238799 0.000200000000006639311 0.47761764661555722
0.000399999999999067768 1.19403886015276761 0.000399999999999067768 1.24197777607591164
0.000600000000005707079 1.78826058441331637 0.000600000000005707079 1.81333212647870767
0.000799999999998135536 2.38090893734420606 0.000799999999998135536 2.39276995032586370
0.001007140329434719206 2.99316993804734910 0.001007140329434719206 2.99872270767914006
0.001267914553963578328 3.76185738260242752 0.001267914553963578328 3.76377941375619951
0.001596209851982166583 4.72643166695523931 0.001596209851982166583 4.72129395627130055
0.002009509145210586212 5.93605768234865661 0.002009509145210586212 5.91833896678658711
0.002529822128138903281 7.45187080676671254 0.002529822128138903281 7.41283246489015024
0.003184857364445292660 9.34970382899007646 0.003184857364445292660 9.27570964829726385
0.004009497869020606231 11.72335220863012140 0.004009497869020606231 11.59335639684661423
0.005047658755842121536 14.68842031576996909 0.005047658755842121536 14.47024197255964850
0.006354625877804664924 18.38679701140791423 0.006354625877804664924 18.03162404272108432
0.008000000000009777068 22.99174441633497068 0.008000000000009777068 22.42608994003844813
0.010071403294347192059 28.71353896574417774 0.010071403294347192059 27.82756994901556169
0.012679145539692626699 35.80548009131643994 0.012679145539692626699 34.43618001162545283
0.015962098519750611558 44.56990860568575386 0.015962098519750611558 42.47707616032273847
0.020095091452091651263 55.36367208498079151 0.020095091452091651263 52.19617567746608700
0.025298221281346400247 68.60215009506367778 0.025298221281346400247 63.85110258025709129
0.031848573644282396344 84.76051785355755896 0.031848573644282396344 77.69536349669542119
0.040094978690191851456 104.37044036337218245 0.040094978690191851456 93.95336996085870851
0.050476587558421215363 128.00977554578781792 0.050476587558421215363 112.78588492161905776
0.063546258777947173257 156.28328271913775893 0.063546258777947173257 134.24114447380500792
0.079999999999998294697 189.78973119812638970 0.079999999999998294697 158.19567082614750575
0.100714032943542974863 229.07526221185582926 0.100714032943542974863 184.29251508131693527
0.126791455396897845276 274.57197913175684789 0.126791455396897845276 211.87442208533855137
0.159620985197506115583 326.52049919960921898 0.159620985197506115583 239.95488305044935373
0.200950914520774404082 384.89525234821667254 0.200950914520774404082 267.22567175120673255
0.252982212813464002465 449.33067311085369511 0.252982212813464002465 292.15272910868884537
0.318485736442795541734 519.09093404843224562 0.318485736442795541734 313.15722787985117748
0.400949786901819038576 593.07990144951111233 0.400949786901819038576 328.87415791420767164
0.504765875584169521062 669.93025779451534163 0.504765875584169521062 338.44556393464728217
0.635462587779443310865 748.14854340605882044 0.635462587779443310865 341.73007479394641450
0.799999999999997157829 826.30033812523731740 0.799999999999997157829 339.36825058348608763
1.007140329435330272645 903.18438143242394744 1.007140329435330272645 332.65850093898529849
1.267914553968893187630 977.95906867862345280 1.267914553968893187630 323.26911403997024763
1.596209851975103788391 1050.18226462801840171 1.596209851975103788391 312.87725386334329869
2.009509145207687197399 1119.77012521628489594 2.009509145207687197399 302.89060309007101068
2.529822128134711078928 1186.90760030070396169 2.529822128134711078928 294.27431389352716451
3.184857364427983839050 1251.92715704273336996 3.184857364427983839050 287.51643151407256482
4.009497869018190385759 1315.20329956896830481 4.009497869018190385759 282.70311289241732311
5.009497869018190385759 1375.05093050183791092 5.009497869018190385759 279.69384671594360725
6.009497869018190385759 1423.14554028193037993 6.009497869018190385759 278.24896901077471512
7.009497869018204596614 1463.30007740818132334 7.009497869018204596614 277.58767163115300036
8.009497869018190385759 1497.71331280512185913 8.009497869018190385759 277.42117888043395624
9.009497869018204596614 1527.79846439734865271 9.009497869018204596614 277.47236315541886142
10.009497869018190385759 1554.45698139755927514 10.009497869018190385759 277.54195552152862092
11.009497869018190385759 1578.38876828293018661 11.009497869018190385759 277.56253121427209862
12.009497869018190385759 1600.03381161044717373 12.009497869018190385759 277.77636049758893932
13.009497869018190385759 1619.76962111816806100 13.009497869018190385759 277.87200844363724173
14.009497869018204596614 1637.91895467371364248 14.009497869018204596614 277.91874065378374326
15.009497869018190385759 1654.66010533499024859 15.009497869018190385759 278.09430641485431579
16.009497869018190385759 1670.17766957665071459 16.009497869018190385759 278.09537349622701186
17.009497869018190385759 1684.65166567462688363 17.009497869018190385759 277.89052278484041381
18.009497869018190385759 1698.17279735294778220 18.009497869018190385759 277.96361718712989841
19.009497869018204596614 1710.82529825244819222 19.009497869018204596614 277.95320751243758650
20.009497869018190385759 1722.72102540132732429 20.009497869018190385759 277.95769834854525016
21.009497869018204596614 1733.98059881849280828 21.009497869018204596614 277.80195665126251470
22.009497869018190385759 1744.63280935454554310 22.009497869018190385759 277.73028021609422922
23.009497869018190385759 1754.71973373378773431 23.009497869018190385759 278.12236021108270734
24.009497869018190385759 1764.27184436391917188 24.009497869018190385759 278.17075071270085118
25.009497869018190385759 1773.35761544113211130 25.009497869018190385759 278.16332755503765384
26.009497869018204596614 1782.05814509927222389 26.009497869018204596614 278.30155043158003991
27.009497869018190385759 1790.38262637358934626 27.009497869018190385759 278.21678447604659823
28.009497869018190385759 1798.33745740362337528 28.009497869018190385759 278.31569794620844505
29.009497869018190385759 1805.94667076999121491 29.009497869018190385759 278.63653657507916250
30.009497869018190385759 1813.22102408875093715 30.009497869018190385759 278.65413253125353776
31.009497869018190385759 1820.19769320208638419 31.009497869018190385759 278.55221335859960163
32.009497869018190385759 1826.91586546283974712 32.009497869018190385759 278.42547025373096403
33.009497869018190385759 1833.39421574782659263 33.009497869018190385759 278.31328379664455497
34.009497869018190385759 1839.63324212978500327 34.009497869018190385759 278.09400512408302575
35.009497869018190385759 1845.63786071058939342 35.009497869018190385759 278.04144559175972518
36.009497869018190385759 1851.42374416577058582 36.009497869018190385759 278.03375152842625084
37.009497869018190385759 1856.99979920332907568 37.009497869018190385759 277.92981158630550453
38.009497869018190385759 1862.37248901265161294 38.009497869018190385759 277.68364055329521989
39.009497869018190385759 1867.56383363337681658 39.009497869018190385759 277.29613751369817010
40.009497869018190385759 1872.59150810860182901 40.009497869018190385759 276.75685647200998574
41.009497869018190385759 1877.46982374740332489 41.009497869018190385759 276.44694799534386220
42.009497869018190385759 1882.19461010912868915 42.009497869018190385759 275.86309176814501143
43.009497869018190385759 1886.76919089243301642 43.009497869018190385759 275.47308065024174084
44.009497869018218807469 1891.19460674241577181 44.009497869018218807469 275.12589013457920828
46.009497869018190385759 1899.63571652259929579 46.009497869018190385759 274.18327567614920781
48.009497869018190385759 1907.53161776477827516 48.009497869018190385759 273.21994127290525967
50.009497869018190385759 1914.97157361636800488 50.009497869018190385759 272.37034668103677859
52.009497869018190385759 1922.02962272089075668 52.009497869018190385759 271.77104587398940794
54.009497869018190385759 1928.71764172461075759 54.009497869018190385759 271.20286300217662756
56.009497869018190385759 1935.05022707073499078 56.009497869018190385759 270.95461813398804907
58.009497869018218807469 1941.07163502570324454 58.009497869018218807469 270.72957358967283881
60.009497869018190385759 1946.85247109419947265 60.009497869018190385759 270.41158108709157659
62.009497869018190385759 1952.37395076347138456 62.009497869018190385759 270.04815171493038406
64.009497869018190385759 1957.65441587175041604 64.009497869018190385759 269.75223956490384580
66.009497869018190385759 1962.70615193561047818 66.009497869018190385759 269.42604809861637705
68.009497869018190385759 1967.53624396701729893 68.009497869018190385759 268.75407457167358416
70.009497869018190385759 1972.14457925932606486 70.009497869018190385759 268.23139291309735199
72.009497869018218807469 1976.55839956665568025 72.009497869018218807469 266.83460302481478266
74.009497869018190385759 1980.79894967659288341 74.009497869018190385759 265.60502711906264039
76.009497869018190385759 1984.88198574939315222 76.009497869018190385759 264.57911464165766802
78.009497869018190385759 1988.80093342063014461 78.009497869018190385759 263.23284534268759671
80.009497869018190385759 1992.55576625433013760 80.009497869018190385759 262.34581918481285356
82.009497869018218807469 1996.15016353400551452 82.009497869018218807469 261.52848647180684338
84.009497869018190385759 1999.59630991964718305 84.009497869018190385759 260.38126649621625575
86.009497869018190385759 2002.86600778689739855 86.009497869018190385759 259.12300305134834844
88.009497869018190385759 2005.99367784863534325 88.009497869018190385759 258.31419813739029223
91.009497869018218807469 2010.47708065039864778 91.009497869018218807469 257.60572515006731464
94.009497869018190385759 2014.77220583552571043 94.009497869018190385759 257.14692207039797722
97.009497869018190385759 2018.89369241543181488 97.009497869018190385759 257.12939342836961032
99.504748934509109403734 2022.18758003149764590 99.504748934509109403734 251.06381129151154141
nan nan nan nan

