Time Pressure difference Time.1 Pressure.1 difference.1
(hr) (psi) (hr) (psi)
0.000200000000006639311 0.68944667062636389 0.000200000000006639311 0.55058700929293403
0.000399999999999067768 1.37646146378721834 0.000399999999999067768 1.43172438075417596
0.000600000000005707079 2.06146706258757328 0.000600000000005707079 2.09036897913517672
0.000799999999998135536 2.74465891388290384 0.000799999999998135536 2.75833202607009298
0.001007140329434719206 3.45045978969347233 0.001007140329434719206 3.45686089913011951
0.001267914553963578328 4.33658559383335440 0.001267914553963578328 4.33880126863561877
0.001596209851982166583 5.44852539385117840 0.001596209851982166583 5.44260275514608249
0.002009509145210586212 6.84295538381858925 0.002009509145210586212 6.82252964226787029
0.002529822128138903281 8.59035106891162670 0.002529822128138903281 8.54534853591503385
0.003184857364445292660 10.77813080286356140 0.003184857364445292660 10.69283195567601119
0.004009497869020606231 13.51441990717083641 0.004009497869020606231 13.36456362414262422
0.005047658755842121536 16.93248453067927173 0.005047658755842121536 16.68097338503404004
0.006354625877804664924 21.19589099926189846 0.006354625877804664924 20.78645549369236534
0.008000000000009777068 26.50437203549725851 0.008000000000009777068 25.85229812532209692
0.010071403294347192059 33.10032964106620312 0.010071403294347192059 32.07900424678182816
0.012679145539692626699 41.27576177193422069 0.012679145539692626699 39.69726306895712753
0.015962098519750611558 51.37920019822107776 0.015962098519750611558 48.96662946259426974
0.020095091452091651263 63.82201087574173215 0.020095091452091651263 60.17059140596785483
0.025298221281346400247 79.08303413736507537 0.025298221281346400247 73.60613214112969160
0.031848573644282396344 97.71004141451773251 0.031848573644282396344 89.56548847535722757
0.040094978690191851456 120.31592430777625680 0.040094978690191851456 108.30735703821211757
0.050476587558421215363 147.56682458750540832 0.050476587558421215363 130.01706178464419850
0.063546258777947173257 180.15989535678377820 0.063546258777947173257 154.75020821285855277
0.079999999999998294697 218.78538457561793962 0.079999999999998294697 182.36445386903116628
0.100714032943542974863 264.07287171644492219 0.100714032943542974863 212.44831599651814713
0.126791455396897845276 316.52047594355298088 0.126791455396897845276 244.24412545948746356
0.159620985197506115583 376.40557546621613483 0.159620985197506115583 276.61465684982357516
0.200950914520774404082 443.69869367919420711 0.200950914520774404082 308.05181604653000704
0.252982212813464002465 517.97841483612296543 0.252982212813464002465 336.78717383362743476
0.318485736442795541734 598.39649341694268969 0.318485736442795541734 361.00069325038401757
0.400949786901819038576 683.68933083763079139 0.400949786901819038576 379.11882092887827866
0.504765875584169521062 772.28071384645522812 0.504765875584169521062 390.15252509132949399
0.635462587779443310865 862.44901531531786532 0.635462587779443310865 393.93883622079931683
0.799999999999997157829 952.54066756103748048 0.799999999999997157829 391.21617775596314459
1.007140329435330272645 1041.17088415126659129 1.007140329435330272645 383.48132747133018938
1.267914553968893187630 1127.36948194896854147 1.267914553968893187630 372.65745090718792198
1.596209851975103788391 1210.62677727952132045 1.596209851975103788391 360.67794542579849804
2.009509145207687197399 1290.84611656877268615 2.009509145207687197399 349.16555633994300933
2.529822128134711078928 1368.24070590220026133 2.529822128134711078928 339.23288962726047657
3.184857364427983839050 1443.19380603537319985 3.184857364427983839050 331.44255299538923509
4.009497869018190385759 1516.13713700311609500 4.009497869018190385759 325.89386625098114791
5.009497869018190385759 1585.12815599517443843 5.009497869018190385759 322.42485107532388611
6.009497869018190385759 1640.57055338055874927 6.009497869018190385759 320.75922816519863545
7.009497869018204596614 1686.85981145665346048 7.009497869018204596614 319.99689924146798603
8.009497869018190385759 1726.53062448368200421 8.009497869018190385759 319.80497009827803367
9.009497869018204596614 1761.21211868027694436 9.009497869018204596614 319.86397419305234280
10.009497869018190385759 1791.94346466663068895 10.009497869018190385759 319.94419872620659362
11.009497869018190385759 1819.53149677060014255 11.009497869018190385759 319.96791792756363293
12.009497869018190385759 1844.48342171759850316 12.009497869018190385759 320.21441557360941488
13.009497869018190385759 1867.23442434455478178 13.009497869018190385759 320.32467640030404255
14.009497869018204596614 1888.15657274886439154 14.009497869018204596614 320.37854825366736122
15.009497869018190385759 1907.45539920561373037 15.009497869018190385759 320.58093656156813722
16.009497869018190385759 1925.34370242863928979 16.009497869018190385759 320.58216666926171001
17.009497869018190385759 1942.02900348602815939 17.009497869018190385759 320.34601932141322322
18.009497869018190385759 1957.61586361520380706 18.009497869018190385759 320.43028092405251073
19.009497869018204596614 1972.20138548546105994 19.009497869018204596614 320.41828088239338967
20.009497869018190385759 1985.91451539319677977 20.009497869018190385759 320.42345781846188402
21.009497869018204596614 1998.89430141576258393 21.009497869018204596614 320.24392225076098839
22.009497869018190385759 2011.17393300593448657 22.009497869018190385759 320.16129524910866166
23.009497869018190385759 2022.80191527644979033 23.009497869018190385759 320.61327635444257567
24.009497869018190385759 2033.81337614174049122 24.009497869018190385759 320.66905984936340701
25.009497869018190385759 2044.28725113352743392 25.009497869018190385759 320.66050259816842072
26.009497869018204596614 2054.31702837832790465 26.009497869018204596614 320.81984285862699835
27.009497869018190385759 2063.91330540288754491 27.009497869018190385759 320.72212654877597515
28.009497869018190385759 2073.08345784028779235 28.009497869018190385759 320.83615179910140114
29.009497869018190385759 2081.85518991540675415 29.009497869018190385759 321.20600744071629151
30.009497869018190385759 2090.24090276897686635 30.009497869018190385759 321.22629166797281641
31.009497869018190385759 2098.28345188573848645 31.009497869018190385759 321.10880151060786147
32.009497869018190385759 2106.02801157521798814 32.009497869018190385759 320.96269487582878810
33.009497869018190385759 2113.49610982041122043 33.009497869018190385759 320.83336882113189859
34.009497869018190385759 2120.68832078850209655 34.009497869018190385759 320.58058924026244085
35.009497869018190385759 2127.61031165248505204 35.009497869018190385759 320.51999977938965003
36.009497869018190385759 2134.28014952442981667 36.009497869018190385759 320.51113023415803127
37.009497869018190385759 2140.70810185939308212 37.009497869018190385759 320.39131057865773755
38.009497869018190385759 2146.90161927847339030 38.009497869018190385759 320.10753008227089822
39.009497869018190385759 2152.88608599403141852 39.009497869018190385759 319.66082518940208956
40.009497869018190385759 2158.68187740297162236 40.009497869018190385759 319.03915398856707952
41.009497869018190385759 2164.30549126436790175 41.009497869018190385759 318.68189838352139986
42.009497869018190385759 2169.75211998691202098 42.009497869018190385759 318.00884189938943791
43.009497869018190385759 2175.02559505655426619 43.009497869018190385759 317.55924574958419271
44.009497869018218807469 2180.12711610584028676 44.009497869018218807469 317.15901223847328083
46.009497869018190385759 2189.85783988021876212 46.009497869018190385759 316.07238723778311851
48.009497869018190385759 2198.96005936773053691 48.009497869018190385759 314.96187674515471144
50.009497869018190385759 2207.53667514109065451 50.009497869018190385759 313.98248297952852681
52.009497869018190385759 2215.67303730324920252 52.009497869018190385759 313.29162232696006640
54.009497869018190385759 2223.38283698809254929 54.009497869018190385759 312.63663373862027584
56.009497869018190385759 2230.68290065098653940 56.009497869018190385759 312.35046257112509238
58.009497869018218807469 2237.62424593240757531 58.009497869018218807469 312.09103622142839640
60.009497869018190385759 2244.28826528914669325 60.009497869018190385759 311.72446153095279442
62.009497869018190385759 2250.65330435233499884 62.009497869018190385759 311.30550822693362534
64.009497869018190385759 2256.74050718549005978 64.009497869018190385759 310.96438727620858344
66.009497869018190385759 2262.56403625910661503 66.009497869018190385759 310.58836100257167345
68.009497869018190385759 2268.13205901753372018 68.009497869018190385759 309.81372485345707446
70.009497869018190385759 2273.44444553505627482 70.009497869018190385759 309.21118905259839948
72.009497869018218807469 2278.53259950045048754 72.009497869018218807469 307.60100070916143977
74.009497869018190385759 2283.42101143273885100 74.009497869018190385759 306.18357292891948873
76.009497869018190385759 2288.12784468332847609 76.009497869018190385759 305.00092382302204896
78.009497869018190385759 2292.64552047100414711 78.009497869018190385759 303.44897449226482422
80.009497869018190385759 2296.97400832096354861 80.009497869018190385759 302.42643044915928385
82.009497869018218807469 2301.11754962947861713 82.009497869018218807469 301.48422746055513244
84.009497869018190385759 2305.09019060181526584 84.009497869018190385759 300.16173776647150362
86.009497869018190385759 2308.85942564322931503 86.009497869018190385759 298.71123962863765655
88.009497869018190385759 2312.46493418662157637 88.009497869018190385759 297.77886729726935755
91.009497869018218807469 2317.63330130532085605 91.009497869018218807469 296.96215538132759093
94.009497869018190385759 2322.58462617150917140 94.009497869018190385759 296.43325738670876035
97.009497869018190385759 2327.33578431223395455 97.009497869018190385759 296.41305075770389976
99.504748934509109403734 2331.13290475853136741 99.504748934509109403734 289.42078246104802020
nan nan nan nan

