Time Pressure difference Time.1 Pressure.1 difference.1
(hr) (psi) (hr) (psi)
0.000200000000006639311 0.82816666339094558 0.000200000000006639311 0.66136776899404237
0.000399999999999067768 1.65341214385042967 0.000399999999999067768 1.71979422603845000
0.000600000000005707079 2.47624417036121702 0.000600000000005707079 2.51096129180454364
0.000799999999998135536 3.29689751462801839 0.000799999999998135536 3.31332172288178661
0.001007140329434719206 4.14470892810167690 0.001007140329434719206 4.15239797160569779
0.001267914553963578328 5.20912751452030598 0.001267914553963578328 5.21178899377073623
0.001596209851982166583 6.54479496104774050 0.001596209851982166583 6.53768065889234240
0.002009509145210586212 8.21979098514112572 0.002009509145210586212 8.19525548595309417
0.002529822128138903281 10.31877110325890534 0.002529822128138903281 10.26471384374372242
0.003184857364445292660 12.94674266319875855 0.003184857364445292660 12.84428127687829324
0.004009497869020606231 16.23358632222810272 0.004009497869020606231 16.05357823285565644
0.005047658755842121536 20.33938202058702771 0.005047658755842121536 20.03726562033606839
0.006354625877804664924 25.46060641718568007 0.006354625877804664924 24.96879051471239563
0.008000000000009777068 31.83717942095272946 0.008000000000009777068 31.05390509752546180
0.010071403294347192059 39.76027548450964133 0.010071403294347192059 38.53345449884515261
0.012679145539692626699 49.58064395978122718 0.012679145539692626699 47.68454371054247076
0.015962098519750611558 61.71694288870651945 0.015962098519750611558 58.81895129422468216
0.020095091452091651263 76.66330703989700623 0.020095091452091651263 72.27720437560235212
0.025298221281346400247 94.99492172885901198 0.025298221281346400247 88.41604065627265641
0.031848573644282396344 117.36977263888456946 0.031848573644282396344 107.58649639750741756
0.040094978690191851456 144.52406811428062383 0.040094978690191851456 130.09931923746685811
0.050476587558421215363 177.25798085993119457 0.050476587558421215363 156.17712120396416253
0.063546258777947173257 216.40893454302823784 0.063546258777947173257 185.88669588942164523
0.079999999999998294697 262.80605833962778206 0.079999999999998294697 219.05706085231813063
0.100714032943542974863 317.20560614613924599 0.100714032943542974863 255.19394102232359955
0.126791455396897845276 380.20592110327993396 0.126791455396897845276 293.38722058205905796
0.159620985197506115583 452.14019125279219224 0.159620985197506115583 332.27085889069167024
0.200950914520774404082 532.97300915440553126 0.200950914520774404082 370.03332602215709812
0.252982212813464002465 622.19816818266826886 0.252982212813464002465 404.55037627967055869
0.318485736442795541734 718.79675173095392893 0.318485736442795541734 433.63577249473837583
0.400949786901819038576 821.25091909050354388 0.400949786901819038576 455.39935477842368527
0.504765875584169521062 927.66731530712752374 0.504765875584169521062 468.65309339283800227
0.635462587779443310865 1035.97791357755659192 0.635462587779443310865 473.20122856883966733
0.799999999999997157829 1144.19644043175230763 0.799999999999997157829 469.93075809963278289
1.007140329435330272645 1250.65948373350943257 1.007140329435330272645 460.63961866134485490
1.267914553968893187630 1354.20165482303809767 1.267914553968893187630 447.63792596923661904
1.596209851975103788391 1454.21071921407542504 1.596209851975103788391 433.24808625243503002
2.009509145207687197399 1550.57057616754991614 2.009509145207687197399 419.41934900111220941
2.529822128134711078928 1643.53732986083605283 2.529822128134711078928 407.48818187756472753
3.184857364427983839050 1733.57135496056298507 3.184857364427983839050 398.13039197156990667
4.009497869018190385759 1821.19123565314089319 4.009497869018190385759 391.46528271352792672
5.009497869018190385759 1904.06358015323962718 5.009497869018190385759 387.29828496638305069
6.009497869018190385759 1970.66125508483969497 6.009497869018190385759 385.29753069964226597
7.009497869018204596614 2026.26413496660666169 7.009497869018204596614 384.38181752258270762
8.009497869018190385759 2073.91690675931431542 8.009497869018190385759 384.15127131082311962
9.009497869018204596614 2115.57648472799519368 9.009497869018204596614 384.22214731382308628
10.009497869018190385759 2152.49112562967593476 10.009497869018190385759 384.31851340967227770
11.009497869018190385759 2185.63000274733576589 11.009497869018190385759 384.34700502865172211
12.009497869018190385759 2215.60237524391095576 12.009497869018190385759 384.64309918902239360
13.009497869018190385759 2242.93098924279638595 13.009497869018190385759 384.77554502542545833
14.009497869018204596614 2268.06277473568388814 14.009497869018204596614 384.84025615530890718
15.009497869018190385759 2291.24461808192427270 15.009497869018190385759 385.08336596612463154
16.009497869018190385759 2312.73213412211271134 16.009497869018190385759 385.08484357741434678
17.009497869018190385759 2332.77459816333748677 17.009497869018190385759 384.80118224511926428
18.009497869018190385759 2351.49760966790108796 18.009497869018190385759 384.90239768828956812
19.009497869018204596614 2369.01780883012634149 19.009497869018204596614 384.88798318041705215
20.009497869018190385759 2385.49008656267142214 20.009497869018190385759 384.89420174097170957
21.009497869018204596614 2401.08146808616311318 21.009497869018204596614 384.67854275181770163
22.009497869018190385759 2415.83182073122497968 22.009497869018190385759 384.57929079923047766
23.009497869018190385759 2429.79940907303671338 23.009497869018190385759 385.12221268117980344
24.009497869018190385759 2443.02642893170468597 24.009497869018190385759 385.18922008411487923
25.009497869018190385759 2455.60769804834535535 25.009497869018190385759 385.17894107273968984
26.009497869018204596614 2467.65551481107559084 26.009497869018204596614 385.37034136150737140
27.009497869018190385759 2479.18260902009569691 27.009497869018190385759 385.25296405919232257
28.009497869018190385759 2490.19784032140614727 28.009497869018190385759 385.38993173940252746
29.009497869018190385759 2500.73448716344637432 29.009497869018190385759 385.83420411854712029
30.009497869018190385759 2510.80744585622915110 30.009497869018190385759 385.85856963008302500
31.009497869018190385759 2520.46819461455606870 31.009497869018190385759 385.71743988683863336
32.009497869018190385759 2529.77099703673775366 32.009497869018190385759 385.54193589301360134
33.009497869018190385759 2538.74171263969856227 33.009497869018190385759 385.38658881285363123
34.009497869018190385759 2547.38103111582722704 34.009497869018190385759 385.08294876209834001
35.009497869018190385759 2555.69575990063549398 35.009497869018190385759 385.01016840970055455
36.009497869018190385759 2563.70760129621248780 36.009497869018190385759 384.99951426922359587
37.009497869018190385759 2571.42888861905385056 37.009497869018190385759 384.85558632159251147
38.009497869018190385759 2578.86857159113014859 38.009497869018190385759 384.51470782171571727
39.009497869018190385759 2586.05714185066199207 39.009497869018190385759 383.97812375160702913
40.009497869018190385759 2593.01907442260562675 40.009497869018190385759 383.23136930915825360
41.009497869018190385759 2599.77418649466835632 41.009497869018190385759 382.80223215466367037
42.009497869018190385759 2606.31670316500185436 42.009497869018190385759 381.99375346227861883
43.009497869018190385759 2612.65122683299387063 43.009497869018190385759 381.45369640040416925
44.009497869018218807469 2618.77919850303942439 44.009497869018218807469 380.97293397802150139
46.009497869018190385759 2630.46779079587713568 46.009497869018190385759 379.66767479044551692
48.009497869018190385759 2641.40142071039463190 48.009497869018190385759 378.33372423484246383
50.009497869018190385759 2651.70369291044289639 50.009497869018190385759 377.15727172360232089
52.009497869018190385759 2661.47713035101105561 52.009497869018190385759 376.32740657828816211
54.009497869018190385759 2670.73817888810708610 54.009497869018190385759 375.54063112940286828
56.009497869018190385759 2679.50705054100399138 56.009497869018190385759 375.19688094386953026
58.009497869018218807469 2687.84502794531408654 58.009497869018218807469 374.88525676236633899
60.009497869018190385759 2695.84988011238465333 60.009497869018190385759 374.44492547754208545
62.009497869018190385759 2703.49559570997371338 62.009497869018190385759 373.94167674970219650
64.009497869018190385759 2710.80757308907686820 64.009497869018190385759 373.53192061973487625
66.009497869018190385759 2717.80282427750489660 66.009497869018190385759 373.08023604766742665
68.009497869018190385759 2724.49116004877259911 68.009497869018190385759 372.14973937216467448
70.009497869018190385759 2730.87242433548317422 70.009497869018190385759 371.42597046438623920
72.009497869018218807469 2736.98433939993856256 72.009497869018218807469 369.49180446630600727
74.009497869018190385759 2742.85632337161541727 74.009497869018190385759 367.78918338570201740
76.009497869018190385759 2748.51019415575728999 76.009497869018190385759 366.36857958018424597
78.009497869018190385759 2753.93684808384432472 78.009497869018190385759 364.50437056480490128
80.009497869018190385759 2759.13624854939871511 80.009497869018190385759 363.27608573230338607
82.009497869018218807469 2764.11349033806027364 82.009497869018218807469 362.14430696165476320
84.009497869018190385759 2768.88544581928954358 84.009497869018190385759 360.55572596767723326
86.009497869018190385759 2773.41306911602305263 86.009497869018190385759 358.81338061415868879
88.009497869018190385759 2777.74402335429067534 88.009497869018190385759 357.69341047635845143
91.009497869018218807469 2783.95229084506627260 91.009497869018218807469 356.71237218696825266
94.009497869018190385759 2789.89984613613751208 94.009497869018190385759 356.07705736692611254
97.009497869018190385759 2795.60696019192437234 97.009497869018190385759 356.05278506678405392
99.504748934509109403734 2800.16807957139326390 99.504748934509109403734 347.65363869116248452
nan nan nan nan

