Time Pressure difference Time.1 Pressure.1 difference.1
(hr) (psi) (hr) (psi)
0.000200000000006639311 0.47098344848813056 0.000200000000006639311 0.37612389670975127
0.000399999999999067768 0.94030560237030458 0.000399999999999067768 0.97805749865978053
0.000600000000005707079 1.40825521022548661 0.000600000000005707079 1.42799904960198232
0.000799999999998135536 1.87496578815856219 0.000799999999998135536 1.88430633588161767
0.001007140329434719206 2.35712132621228765 0.001007140329434719206 2.36149413229732241
0.001267914553963578328 2.96246268879941166 0.001267914553963578328 2.96397628833300697
0.001596209851982166583 3.72206493772725100 0.001596209851982166583 3.71801899056364915
0.002009509145210586212 4.67464542484956702 0.002009509145210586212 4.66069193634443657
0.002529822128138903281 5.86834826032878620 0.002529822128138903281 5.83760556610099268
0.003184857364445292660 7.36289176532968526 0.003184857364445292660 7.30462134803409491
0.004009497869020606231 9.23213986429622224 0.004009497869020606231 9.12976816251670797
0.005047658755842121536 11.56713099866885130 0.005047658755842121536 11.39531555339072177
0.006354625877804664924 14.47960264648373219 0.006354625877804664924 14.19990393364285630
0.008000000000009777068 18.10599872786378839 0.008000000000009777068 17.66054582778027537
0.010071403294347192059 22.61191193552354051 0.010071403294347192059 21.91421133484975314
0.012679145539692626699 28.19681557191169219 0.012679145539692626699 27.11849175915504517
0.015962098519750611558 35.09880302697752796 0.015962098519750611558 33.45069747625415602
0.020095091452091651263 43.59889176692237100 0.020095091452091651263 41.10448834600454404
0.025298221281346400247 54.02419319986264412 0.025298221281346400247 50.28274328195245602
0.031848573644282396344 66.74890780967658088 0.031848573644282396344 61.18509875364765804
0.040094978690191851456 82.19172178615558266 0.040094978690191851456 73.98827884417623579
0.050476587558421215363 100.80769824230790732 0.050476587558421215363 88.81888437577501350
0.063546258777947173257 123.07308514132097343 0.063546258777947173257 105.71490127312144125
0.079999999999998294697 149.45941331852452549 0.079999999999998294697 124.57909077559118316
0.100714032943542974863 180.39676899183646697 0.100714032943542974863 145.13035562653709576
0.126791455396897845276 216.22543356625848787 0.126791455396897845276 166.85110739220411347
0.159620985197506115583 257.13489311969220807 0.159620985197506115583 188.96447040222886926
0.200950914520774404082 303.10501122422061826 0.200950914520774404082 210.44021650407529478
0.252982212813464002465 353.84790507479726784 0.252982212813464002465 230.07027417309245720
0.318485736442795541734 408.78411056314035932 0.318485736442795541734 246.61131695538281861
0.400949786901819038576 467.05042239148997396 0.400949786901819038576 258.98839935743853857
0.504765875584169521062 527.57007801318093243 0.504765875584169521062 266.52588159853473826
0.635462587779443310865 589.16697793227137936 0.635462587779443310865 269.11243390023281563
0.799999999999997157829 650.71151627362439740 0.799999999999997157829 267.25249733449527412
1.007140329435330272645 711.25770037803386003 1.007140329435330272645 261.96856948945088561
1.267914553968893187630 770.14276658441588097 1.267914553968893187630 254.57442730647659346
1.596209851975103788391 827.01853339456454250 1.596209851975103788391 246.39083741738281219
2.009509145207687197399 881.81897360782431861 2.009509145207687197399 238.52634993343093583
2.529822128134711078928 934.68973523680438120 2.529822128134711078928 231.74102219115263779
3.184857364427983839050 985.89263617115250327 3.184857364427983839050 226.41918981733215332
4.009497869018190385759 1035.72259841056256846 4.009497869018190385759 222.62870140277865971
5.009497869018190385759 1082.85260777019720990 5.009497869018190385759 220.25890428880560989
6.009497869018190385759 1120.72711297202022251 6.009497869018190385759 219.12106309598510734
7.009497869018204596614 1152.34881095894297687 7.009497869018204596614 218.60029140953298565
8.009497869018190385759 1179.44923383403352091 8.009497869018190385759 218.46917836834174409
9.009497869018204596614 1203.14129071291222317 9.009497869018204596614 218.50948598489233632
10.009497869018190385759 1224.13487285057772169 10.009497869018190385759 218.56428997320378471
11.009497869018190385759 1242.98115502280757028 11.009497869018190385759 218.58049333123923930
12.009497869018190385759 1260.02662664322701858 12.009497869018190385759 218.74888389185124993
13.009497869018190385759 1275.56857663055734520 13.009497869018190385759 218.82420664936432786
14.009497869018204596614 1289.86117680554957587 14.009497869018204596614 218.86100826485471771
15.009497869018190385759 1303.04483295130467013 15.009497869018190385759 218.99926630169775876
16.009497869018190385759 1315.26491479161268217 16.009497869018190385759 219.00010662827875763
17.009497869018190385759 1326.66318671876865665 17.009497869018190385759 218.83878669306182019
18.009497869018190385759 1337.31107791544627617 18.009497869018190385759 218.89634853486475663
19.009497869018204596614 1347.27492237380283768 19.009497869018204596614 218.88815091604462282
20.009497869018190385759 1356.64280750354532756 20.009497869018190385759 218.89168744947937739
21.009497869018204596614 1365.50972156956322578 21.009497869018204596614 218.76904086286924667
22.009497869018190385759 1373.89833736670470898 22.009497869018190385759 218.71259567017420977
23.009497869018190385759 1381.84179031535791182 23.009497869018190385759 219.02135866622765548
24.009497869018190385759 1389.36407743658628533 24.009497869018190385759 219.05946618625188194
25.009497869018190385759 1396.51912215989159449 25.009497869018190385759 219.05362044959218792
26.009497869018204596614 1403.37078926567687631 26.009497869018204596614 219.16247096486927148
27.009497869018190385759 1409.92631826920160165 27.009497869018190385759 219.09571777488670818
28.009497869018190385759 1416.19074770535326024 28.009497869018190385759 219.17361213263916397
29.009497869018190385759 1422.18300323136804764 29.009497869018190385759 219.42627255287484900
30.009497869018190385759 1427.91155646989136585 30.009497869018190385759 219.44012936836213612
31.009497869018190385759 1433.40568339664309860 31.009497869018190385759 219.35986801989719197
32.009497869018190385759 1438.69624405198624117 32.009497869018190385759 219.26005782481317397
33.009497869018190385759 1443.79794490141330243 33.009497869018190385759 219.17171098985758704
34.009497869018190385759 1448.71117817720573839 34.009497869018190385759 218.99902903521538633
35.009497869018190385759 1453.43981530958922121 35.009497869018190385759 218.95763840351074236
36.009497869018190385759 1457.99619853054423402 36.009497869018190385759 218.95157932863565975
37.009497869018190385759 1462.38734187262139130 37.009497869018190385759 218.86972662421558766
38.009497869018190385759 1466.61833509746315940 38.009497869018190385759 218.67586693571996648
39.009497869018190385759 1470.70651898628420895 39.009497869018190385759 218.37070829203730682
40.009497869018190385759 1474.66581263552416203 40.009497869018190385759 217.94602447170785808
41.009497869018190385759 1478.50748620108015530 41.009497869018190385759 217.70197154633331138
42.009497869018190385759 1482.22825546093895355 42.009497869018190385759 217.24218476741421568
43.009497869018190385759 1485.83073782779092653 43.009497869018190385759 216.93505101206537233
44.009497869018218807469 1489.31575280965239472 44.009497869018218807469 216.66163848098111089
46.009497869018190385759 1495.96312676154707333 46.009497869018190385759 215.91932959496753597
48.009497869018190385759 1502.18114898976295990 48.009497869018190385759 215.16070375241289980
50.009497869018190385759 1508.04011422288976974 50.009497869018190385759 214.49164801131647096
52.009497869018190385759 1513.59832789270149078 52.009497869018190385759 214.01969862576666515
54.009497869018190385759 1518.86514285813086644 54.009497869018190385759 213.57225461421407431
56.009497869018190385759 1523.85205381820378534 56.009497869018190385759 213.37676178051557940
58.009497869018218807469 1528.59391258274126812 58.009497869018218807469 213.19953920186733853
60.009497869018190385759 1533.14632098668221261 60.009497869018190385759 212.94912010608462083
62.009497869018190385759 1537.49448622623344818 62.009497869018190385759 212.66291947550766395
64.009497869018190385759 1541.65285249900352937 64.009497869018190385759 212.42988865736177218
66.009497869018190385759 1545.63109464929311798 66.009497869018190385759 212.17301287766039763
68.009497869018190385759 1549.43479212402621670 68.009497869018190385759 211.64383372519296245
70.009497869018190385759 1553.06385616671900607 70.009497869018190385759 211.23222191906418743
72.009497869018218807469 1556.53973965874138230 72.009497869018218807469 210.13224988204166266
74.009497869018190385759 1559.87917287031700653 74.009497869018190385759 209.16395885626184281
76.009497869018190385759 1563.09456377764740864 76.009497869018190385759 208.35605278030539012
78.009497869018190385759 1566.18073506874611667 78.009497869018190385759 207.29586570736648810
80.009497869018190385759 1569.13766592528486399 80.009497869018190385759 206.59733260804011934
82.009497869018218807469 1571.96825378302924037 82.009497869018218807469 205.95368309654790551
84.009497869018190385759 1574.68209406172218223 84.009497869018190385759 205.05024736577027511
86.009497869018190385759 1577.25698113218163599 86.009497869018190385759 204.05936490293683505
88.009497869018190385759 1579.72002130580017365 88.009497869018190385759 203.42243103319484021
91.009497869018218807469 1583.25070101218898344 91.009497869018218807469 202.86450855567801455
94.009497869018190385759 1586.63311209547646286 94.009497869018190385759 202.50320113043841275
97.009497869018190385759 1589.87878277715253716 97.009497869018190385759 202.48939732484109300
99.504748934509109403734 1592.47271927480437625 99.504748934509109403734 197.71275139206534277
nan nan nan nan

