Time Pressure difference Time.1 Pressure.1 difference.1
(hr) (psi) (hr) (psi)
0.000200000000006639311 0.19271280431965834 0.000200000000006639311 0.15389901946501289
0.000399999999999067768 0.38474585493811403 0.000399999999999067768 0.40019283895779378
0.000600000000005707079 0.57621729942206856 0.000600000000005707079 0.58429590742091697
0.000799999999998135536 0.76718176869979970 0.000799999999998135536 0.77100365066055609
0.001007140329434719206 0.96446586892636810 0.001007140329434719206 0.96625509469661164
0.001267914553963578328 1.21215404550522665 0.001267914553963578328 1.21277336665477531
0.001596209851982166583 1.52296131490779940 0.001596209851982166583 1.52130583035408562
0.002009509145210586212 1.91272969764567802 0.002009509145210586212 1.90702033374234436
0.002529822128138903281 2.40115837106927366 0.002529822128138903281 2.38857934979793685
0.003184857364445292660 3.01268234489680253 0.003184857364445292660 2.98883977556245162
0.004009497869020606231 3.77752460055859496 0.004009497869020606231 3.73563706120613093
0.005047658755842121536 4.73293543508143433 0.005047658755842121536 4.66263352449144186
0.006354625877804664924 5.92463459256477254 0.006354625877804664924 5.81018996932123954
0.008000000000009777068 7.40845097859682422 0.008000000000009777068 7.22618453623461132
0.010071403294347192059 9.25214033340645692 0.010071403294347192059 8.96666142801612409
0.012679145539692626699 11.53732136275751863 0.012679145539692626699 11.09610244819042535
0.015962098519750611558 14.36141499516540954 0.015962098519750611558 13.68705787388177164
0.020095091452091651263 17.83940544960492147 0.020095091452091651263 16.81876771829463024
0.025298221281346400247 22.10513725285385433 0.025298221281346400247 20.57424416474950846
0.031848573644282396344 27.31172241947965773 0.031848573644282396344 25.03517268226853076
0.040094978690191851456 33.63047522819769597 0.040094978690191851456 30.27386365405447322
0.050476587558421215363 41.24759434253162738 0.050476587558421215363 36.34211847474391988
0.063546258777947173257 50.35794665394438141 0.063546258777947173257 43.25547988600383320
0.079999999999998294697 61.15446894161851077 0.079999999999998294697 50.97416059953641820
0.100714032943542974863 73.81314004604243451 0.100714032943542974863 59.38314374842435228
0.126791455396897845276 88.47319327578830439 0.126791455396897845276 68.27064711638686845
0.159620985197506115583 105.21216085320740774 0.159620985197506115583 77.31879564958924789
0.200950914520774404082 124.02180353442537353 0.200950914520774404082 86.10604978649995189
0.252982212813464002465 144.78432800238618938 0.252982212813464002465 94.13810160168863206
0.318485736442795541734 167.26263430449481007 0.318485736442795541734 100.90621787239649620
0.400949786901819038576 191.10352380039802256 0.400949786901819038576 105.97056199457803416
0.504765875584169521062 215.86641640045496615 0.504765875584169521062 109.05468171227524010
0.635462587779443310865 241.07008620861896020 0.635462587779443310865 110.11302410027163035
0.799999999999997157829 266.25233117368753710 0.799999999999997157829 109.35199185467885741
1.007140329435330272645 291.02607846155882498 1.007140329435330272645 107.18996141367303210
1.267914553968893187630 315.12014435200086382 1.267914553968893187630 104.16449230176820606
1.596209851975103788391 338.39206304680595849 1.596209851975103788391 100.81600402263282490
2.009509145207687197399 360.81481812524731367 2.009509145207687197399 97.59808321791177832
2.529822128134711078928 382.44800454133797984 2.529822128134711078928 94.82172336569207971
3.184857364427983839050 403.39875060265853790 3.184857364427983839050 92.64418348786782076
4.009497869018190385759 423.78772986111204091 4.009497869018190385759 91.09322526533448183
5.009497869018190385759 443.07196649503669050 5.009497869018190385759 90.12357283069295022
6.009497869018190385759 458.56911853528873735 6.009497869018190385759 89.65800112569408498
7.009497869018204596614 471.50780272041396302 7.009497869018204596614 89.44491641448263408
8.009497869018190385759 482.59651190387256747 8.009497869018190385759 89.39126875036204467
9.009497869018204596614 492.29061630581230702 9.009497869018204596614 89.40776146119051759
10.009497869018190385759 500.88058289476902019 10.009497869018190385759 89.43018566804811087
11.009497869018190385759 508.59193644672200207 11.009497869018190385759 89.43681561348766706
12.009497869018190385759 515.56645040781063472 12.009497869018190385759 89.50571616033420241
13.009497869018190385759 521.92576680474303430 13.009497869018190385759 89.53653605406088900
14.009497869018204596614 527.77388539486332775 14.009497869018204596614 89.55159421066365155
15.009497869018190385759 533.16825616349683514 15.009497869018190385759 89.60816540034193167
16.009497869018190385759 538.16836019692084392 16.009497869018190385759 89.60850923767314669
17.009497869018190385759 542.83220338404646554 17.009497869018190385759 89.54250178622635303
18.009497869018190385759 547.18901248039423990 18.009497869018190385759 89.56605442696405817
19.009497869018204596614 551.26592943690002357 19.009497869018204596614 89.56270019845212005
20.009497869018190385759 555.09899707376098377 20.009497869018190385759 89.56414724564235996
21.009497869018204596614 558.72708184151440491 21.009497869018204596614 89.51396380985126200
22.009497869018190385759 562.15946079202024066 22.009497869018190385759 89.49086806963036622
23.009497869018190385759 565.40969198088714620 23.009497869018190385759 89.61720495690443045
24.009497869018190385759 568.48759429504059426 24.009497869018190385759 89.63279745187026037
25.009497869018190385759 571.41523164214254393 25.009497869018190385759 89.63040554551214711
26.009497869018204596614 574.21873564309885296 26.009497869018204596614 89.67494402795357189
27.009497869018190385759 576.90106849815663281 27.009497869018190385759 89.64763055339280129
28.009497869018190385759 579.46429183005636787 28.009497869018190385759 89.67950267155605104
29.009497869018190385759 581.91614947033042426 29.009497869018190385759 89.78288400752549592
30.009497869018190385759 584.26010776193083984 30.009497869018190385759 89.78855381562613047
31.009497869018190385759 586.50814558733895865 31.009497869018190385759 89.75571319332654241
32.009497869018190385759 588.67288998247056497 32.009497869018190385759 89.71487374842442364
33.009497869018190385759 590.76035840763302076 33.009497869018190385759 89.67872477891880578
34.009497869018190385759 592.77071135293078896 34.009497869018190385759 89.60806831776008607
35.009497869018190385759 594.70553289563440558 35.009497869018190385759 89.59113246845589629
36.009497869018190385759 596.56987312008163826 36.009497869018190385759 89.58865327027068304
37.009497869018190385759 598.36660196551713398 37.009497869018190385759 89.55516151114288448
38.009497869018190385759 600.09780201518776721 38.009497869018190385759 89.47583973383956391
39.009497869018190385759 601.77056861519918129 39.009497869018190385759 89.35097764330272696
40.009497869018190385759 603.39059705721615501 40.009497869018190385759 89.17720930764765797
41.009497869018190385759 604.96249876305216731 41.009497869018190385759 89.07734990961080257
42.009497869018190385759 606.48492992405249424 42.009497869018190385759 88.88921845862451221
43.009497869018190385759 607.95896150978398964 43.009497869018190385759 88.76354820952234093
44.009497869018218807469 609.38492883922288001 44.009497869018218807469 88.65167571003108549
46.009497869018190385759 612.10484199061534127 46.009497869018190385759 88.34794438453697296
48.009497869018190385759 614.64907683531748717 48.009497869018190385759 88.03753663238059346
50.009497869018190385759 617.04639594305194805 50.009497869018190385759 87.76377837500075429
52.009497869018190385759 619.32065621006472611 52.009497869018190385759 87.57067033717437710
54.009497869018190385759 621.47568455570785773 54.009497869018190385759 87.38758918959024413
56.009497869018190385759 623.51618427834796421 56.009497869018190385759 87.30759917650725299
58.009497869018218807469 625.45641573050443185 58.009497869018218807469 87.23508482333902236
60.009497869018190385759 627.31912957479755732 60.009497869018190385759 87.13262057250729242
62.009497869018190385759 629.09827302378528202 62.009497869018190385759 87.01551555258868120
64.009497869018190385759 630.79975622534186641 64.009497869018190385759 86.92016608202456496
66.009497869018190385759 632.42753784591877775 66.009497869018190385759 86.81505994288751538
68.009497869018190385759 633.98390083381673321 68.009497869018190385759 86.59853513976149486
70.009497869018190385759 635.46880887244947189 70.009497869018190385759 86.43011549422027429
72.009497869018218807469 636.89103986036684546 72.009497869018218807469 85.98003875244032201
74.009497869018190385759 638.25743934023546444 74.009497869018190385759 85.58384207169795843
76.009497869018190385759 639.57308429702675312 76.009497869018190385759 85.25327027342302699
78.009497869018190385759 640.83585632442520819 78.009497869018190385759 84.81947238819932977
80.009497869018190385759 642.04574690417302918 80.009497869018190385759 84.53365284843970073
82.009497869018218807469 643.20394158317947131 82.009497869018218807469 84.27029008535998855
84.009497869018190385759 644.31436652966408474 84.009497869018190385759 83.90063031544745797
86.009497869018190385759 645.36793584244469457 86.009497869018190385759 83.49518987210113607
88.009497869018190385759 646.37574064011585051 88.009497869018190385759 83.23457495538130502
91.009497869018218807469 647.82039265401738248 91.009497869018218807469 83.00628921502168112
94.009497869018190385759 649.20437743589161528 94.009497869018190385759 82.85845266712823332
97.009497869018190385759 650.53241200052809745 97.009497869018190385759 82.85280454914132520
99.504748934509109403734 651.59377578792691565 99.504748934509109403734 80.89833919393149131
nan nan nan nan

