Time Pressure difference Time.1 Pressure.1 difference.1
(hr) (psi) (hr) (psi)
0.000200000000006639311 0.77500451047517771 0.000200000000006639311 0.61891286707265958
0.000399999999999067768 1.54727535628129487 0.000399999999999067768 1.60939620149836893
0.000600000000005707079 2.31728767396892277 0.000600000000005707079 2.34977621389532532
0.000799999999998135536 3.08526116464186684 0.000799999999998135536 3.10063106063059823
0.001007140329434719206 3.87864937805302379 0.001007140329434719206 3.88584484203421887
0.001267914553963578328 4.87474019162231276 0.001267914553963578328 4.87723082365907423
0.001596209851982166583 6.12466770176283148 0.001596209851982166583 6.11801008500155952
0.002009509145210586212 7.69214141337680068 0.002009509145210586212 7.66918091112761768
0.002529822128138903281 9.65638258710186470 0.002529822128138903281 9.60579540242015106
0.003184857364445292660 12.11565787839963981 0.003184857364445292660 12.01977375258520375
0.004009497869020606231 15.19151057034986785 0.004009497869020606231 15.02305766424707123
0.005047658755842121536 19.03374465918525260 0.005047658755842121536 18.75102188944187631
0.006354625877804664924 23.82622446061608912 0.006354625877804664924 23.36597948869274077
0.008000000000009777068 29.79346880616740378 0.008000000000009777068 29.06047488063315498
0.010071403294347192059 37.20796090977682979 0.010071403294347192059 36.05989272559932601
0.012679145539692626699 46.39793461833087918 0.012679145539692626699 44.62354993173131845
0.015962098519750611558 57.75517323486779020 0.015962098519750611558 55.04321119108488602
0.020095091452091651263 71.74209174345426732 0.020095091452091651263 67.63754431538313838
0.025298221281346400247 88.89695283152001082 0.025298221281346400247 82.74038709358313781
0.031848573644282396344 109.83550438523499793 0.031848573644282396344 100.68024186446783119
0.040094978690191851456 135.24669563753641910 0.040094978690191851456 121.74790857427940693
0.050476587558421215363 165.87933414475006089 0.050476587558421215363 146.15170921093132961
0.063546258777947173257 202.51708719021598881 0.063546258777947173257 173.95414971397232762
0.079999999999998294697 245.93586001090545778 0.079999999999998294697 204.99522344554947040
0.100714032943542974863 296.84336061619649172 0.100714032943542974863 238.81238412620655254
0.126791455396897845276 355.79952295823488839 0.126791455396897845276 274.55393861891786855
0.159620985197506115583 423.11614687949361269 0.159620985197506115583 310.94153595287394864
0.200950914520774404082 498.76009783456413516 0.200950914520774404082 346.27993297760536962
0.252982212813464002465 582.25766390614785450 0.252982212813464002465 378.58124480334265627
0.318485736442795541734 672.65533537109331519 0.318485736442795541734 405.79957446097387219
0.400949786901819038576 768.53270562832472024 0.400949786901819038576 426.16609629716077734
0.504765875584169521062 868.11795905872611456 0.504765875584169521062 438.56904326531378047
0.635462587779443310865 969.47582083035126743 0.635462587779443310865 442.82522192048890020
0.799999999999997157829 1070.74752148728680368 0.799999999999997157829 439.76469138110070389
1.007140329435330272645 1170.37642760618268767 1.007140329435330272645 431.06997413343503922
1.267914553968893187630 1267.27195982938292218 1.267914553968893187630 418.90289361012816016
1.596209851975103788391 1360.86118458047394597 1.596209851975103788391 405.43677479791563201
2.009509145207687197399 1451.03545392610249110 2.009509145207687197399 392.49573983755038853
2.529822128134711078928 1538.03443205632879653 2.529822128134711078928 381.33046508702892652
3.184857364427983839050 1622.28894100120874100 3.184857364427983839050 372.57337583698569006
4.009497869018190385759 1704.28427569145492271 4.009497869018190385759 366.33611712309084396
5.009497869018190385759 1781.83683077529826733 5.009497869018190385759 362.43660970274356714
6.009497869018190385759 1844.15942928200161077 6.009497869018190385759 360.56428900979562968
7.009497869018204596614 1896.19301697476839763 7.009497869018204596614 359.70735782203570352
8.009497869018190385759 1940.78683450997050386 8.009497869018190385759 359.49161096589568842
9.009497869018204596614 1979.77217678156443981 9.009497869018204596614 359.55793725556361551
10.009497869018190385759 2014.31717172767071133 10.009497869018190385759 359.64811736331415659
11.009497869018190385759 2045.32877889996370868 11.009497869018190385759 359.67478003182753810
12.009497869018190385759 2073.37714754520402494 12.009497869018190385759 359.95186714479228840
13.009497869018190385759 2098.95146736562628575 13.009497869018190385759 360.07581094154659240
14.009497869018204596614 2122.46997876468731192 14.009497869018204596614 360.13636809719474741
15.009497869018190385759 2144.16371982992450285 15.009497869018190385759 360.36387206258200422
16.009497869018190385759 2164.27189682640982937 16.009497869018190385759 360.36525482219417427
17.009497869018190385759 2183.02778343670388495 17.009497869018190385759 360.09980244202233735
18.009497869018190385759 2200.54891656986137605 18.009497869018190385759 360.19452060498912260
19.009497869018204596614 2216.94444898546407785 19.009497869018204596614 360.18103140153368713
20.009497869018190385759 2232.35932874921991242 20.009497869018190385759 360.18685077665651306
21.009497869018204596614 2246.94985930229677251 21.009497869018204596614 359.98503549392773948
22.009497869018190385759 2260.75334878859894161 22.009497869018190385759 359.89215478002211057
23.009497869018190385759 2273.82432163003340975 23.009497869018190385759 360.40022510686134183
24.009497869018190385759 2286.20226498824558803 24.009497869018190385759 360.46293113187482504
25.009497869018190385759 2297.97591000913371317 25.009497869018190385759 360.45331195673634284
26.009497869018204596614 2309.25034635780684766 26.009497869018204596614 360.63242576758915447
27.009497869018190385759 2320.03748667577610831 27.009497869018190385759 360.52258321687708076
28.009497869018190385759 2330.34562188552854423 28.009497869018190385759 360.65075858862849145
29.009497869018190385759 2340.20589420611395326 29.009497869018190385759 361.06651197854012025
30.009497869018190385759 2349.63224371500609777 30.009497869018190385759 361.08931340508269159
31.009497869018190385759 2358.67284410770389513 31.009497869018190385759 360.95724314385199705
32.009497869018190385759 2367.37847566226309937 32.009497869018190385759 360.79300520379308637
33.009497869018190385759 2375.77333790655848134 33.009497869018190385759 360.64763025315193090
34.009497869018190385759 2383.85807625984671176 34.009497869018190385759 360.36348163995762661
35.009497869018190385759 2391.63906117080568947 35.009497869018190385759 360.29537324598862824
36.009497869018190385759 2399.13660181481100153 36.009497869018190385759 360.28540302225235337
37.009497869018190385759 2406.36223980098020547 37.009497869018190385759 360.15071418058755626
38.009497869018190385759 2413.32435034556101527 38.009497869018190385759 359.83171755031168004
39.009497869018190385759 2420.05146774991771963 39.009497869018190385759 359.32957819483385720
40.009497869018190385759 2426.56649592406347438 40.009497869018190385759 358.63075984497959325
41.009497869018190385759 2432.88797993934349506 41.009497869018190385759 358.22917011063310611
42.009497869018190385759 2439.01051559974575866 42.009497869018190385759 357.47258974955457234
43.009497869018190385759 2444.93840986477744082 43.009497869018190385759 356.96720034260488319
44.009497869018218807469 2450.67301123704692145 44.009497869018218807469 356.51729929939222075
46.009497869018190385759 2461.61128266053492553 46.009497869018190385759 355.29582806367670855
48.009497869018190385759 2471.84305468685852247 48.009497869018190385759 354.04750723280642433
50.009497869018190385759 2481.48399747787698288 50.009497869018190385759 352.94657424084351760
52.009497869018190385759 2490.63005277582078634 52.009497869018190385759 352.16998027837797736
54.009497869018190385759 2499.29661073480792766 54.009497869018190385759 351.43370997365389030
56.009497869018190385759 2507.50258591249394158 56.009497869018190385759 351.11202599862616580
58.009497869018218807469 2515.30532705414043448 58.009497869018218807469 350.82040577661769021
60.009497869018190385759 2522.79632712623333646 60.009497869018190385759 350.40834049202283040
62.009497869018190385759 2529.95124453099788298 62.009497869018190385759 349.93739659726395530
64.009497869018190385759 2536.79384723381008371 64.009497869018190385759 349.55394376952125413
66.009497869018190385759 2543.34005521656172277 66.009497869018190385759 349.13125399445709718
68.009497869018190385759 2549.59904947392669783 68.009497869018190385759 348.26048829912701876
70.009497869018190385759 2555.57068395687610973 70.009497869018190385759 347.58317998322200992
72.009497869018218807469 2561.29025943845772417 72.009497869018218807469 345.77317308632251525
74.009497869018190385759 2566.78530562258492864 74.009497869018190385759 344.17984764178532942
76.009497869018190385759 2572.07623986692215112 76.009497869018190385759 342.85043605648132825
78.009497869018190385759 2577.15454289089939266 78.009497869018190385759 341.10589542323265277
80.009497869018190385759 2582.02018043790258162 80.009497869018190385759 339.95645736031997330
82.009497869018218807469 2586.67792024614891488 82.009497869018218807469 338.89733038638303242
84.009497869018190385759 2591.14355160420973334 84.009497869018190385759 337.41072450134686278
86.009497869018190385759 2595.38053509052087975 86.009497869018190385759 335.78022478737221945
88.009497869018190385759 2599.43347421219004900 88.009497869018190385759 334.73214841970155931
91.009497869018218807469 2605.24321700947484715 91.009497869018218807469 333.81408550696227167
94.009497869018190385759 2610.80898339520217633 94.009497869018190385759 333.21955318289070647
97.009497869018190385759 2616.14974308833052419 97.009497869018190385759 333.19683898426228552
99.504748934509109403734 2620.41807245748213973 99.504748934509109403734 325.33685546525038035
nan nan nan nan

