Time Pressure difference Time.1 Pressure.1 difference.1
(hr) (psi) (hr) (psi)
0.000200000000006639311 0.21929388077754225 0.000200000000006639311 0.17512647042570428
0.000399999999999067768 0.43781424872268154 0.000399999999999067768 0.45539185122783432
0.000600000000005707079 0.65569554761821602 0.000600000000005707079 0.66488844637552613
0.000799999999998135536 0.87299994369287548 0.000799999999998135536 0.87734898178615006
0.001007140329434719206 1.09749564395069465 0.001007140329434719206 1.09953165948235121
0.001267914553963578328 1.37934770695422348 0.001267914553963578328 1.38005245171060631
0.001596209851982166583 1.73302494455025435 0.001596209851982166583 1.73114111729947684
0.002009509145210586212 2.17655448352784076 0.002009509145210586212 2.17005762115508194
0.002529822128138903281 2.73235262914779486 0.002529822128138903281 2.71803857045972164
0.003184857364445292660 3.42822473729636146 0.003184857364445292660 3.40109353770899636
0.004009497869020606231 4.29856247649771106 0.004009497869020606231 4.25089734551042486
0.005047658755842121536 5.38575411578232277 0.005047658755842121536 5.30575538993853790
0.006354625877804664924 6.74182557084956890 0.006354625877804664924 6.61159548233106431
0.008000000000009777068 8.43030628598948972 0.008000000000009777068 8.22289964468076384
0.010071403294347192059 10.52829762077286446 0.010071403294347192059 10.20344231463903917
0.012679145539692626699 13.12867603348269263 0.012679145539692626699 12.62659933759600150
0.015962098519750611558 16.34229982208477594 0.015962098519750611558 15.57492792545166971
0.020095091452091651263 20.30001309782629093 0.020095091452091651263 19.13859774840423356
0.025298221281346400247 25.15412170152334781 0.025298221281346400247 23.41207094609426420
0.031848573644282396344 31.07885654630443639 0.031848573644282396344 28.48829994878832395
0.040094978690191851456 38.26916146656979834 0.040094978690191851456 34.44956898564819170
0.050476587558421215363 46.93691770012219422 0.050476587558421215363 41.35482447126032213
0.063546258777947173257 57.30387033035050592 0.063546258777947173257 49.22175297372849911
0.079999999999998294697 69.58956810597968001 0.079999999999998294697 58.00507930292075542
0.100714032943542974863 83.99426281101381164 0.100714032943542974863 67.57392219648288290
0.126791455396897845276 100.67639234831082717 0.126791455396897845276 77.68728809795746315
0.159620985197506115583 119.72418303985671173 0.159620985197506115583 87.98345711849809447
0.200950914520774404082 141.12825919434612842 0.200950914520774404082 97.98274630877580194
0.252982212813464002465 164.75458014064633971 0.252982212813464002465 107.12266733985256906
0.318485736442795541734 190.33334248442511694 0.318485736442795541734 114.82431688927876223
0.400949786901819038576 217.46263053148737754 0.400949786901819038576 120.58719123520948813
0.504765875584169521062 245.64109452465567074 0.504765875584169521062 124.09670677603733679
0.635462587779443310865 274.32113258222159402 0.635462587779443310865 125.30102742444702812
0.799999999999997157829 302.97679064592034592 0.799999999999997157829 124.43502521394488269
1.007140329435330272645 331.16760652522214059 1.007140329435330272645 121.97478367762792573
1.267914553968893187630 358.58499184882856525 1.267914553968893187630 118.53200848132243550
1.596209851975103788391 385.06683036360675487 1.596209851975103788391 114.72165974989252391
2.009509145207687197399 410.58237924597108304 2.009509145207687197399 111.05988779969271718
2.529822128134711078928 435.19945344359143746 2.529822128134711078928 107.90058176095995179
3.184857364427983839050 459.03995758233560309 3.184857364427983839050 105.42269155515994328
4.009497869018190385759 482.24120984195502615 4.009497869018190385759 103.65780806055302321
5.009497869018190385759 504.18534118400719990 5.009497869018190385759 102.55441046251266357
6.009497869018190385759 521.82003143670783629 6.009497869018190385759 102.02462197061740312
7.009497869018204596614 536.54336171633315189 7.009497869018204596614 101.78214626475609350
8.009497869018190385759 549.16154802854475747 8.009497869018190385759 101.72109892282577448
9.009497869018204596614 560.19277027902785449 9.009497869018204596614 101.73986649032025298
10.009497869018190385759 569.96755984577180243 10.009497869018190385759 101.76538369122717143
11.009497869018190385759 578.74254837040780330 11.009497869018190385759 101.77292811189974486
12.009497869018190385759 586.67906425716387275 12.009497869018190385759 101.85133218244926923
13.009497869018190385759 593.91552774332819808 13.009497869018190385759 101.88640309600032197
14.009497869018204596614 600.57028338036172954 14.009497869018204596614 101.90353823972070302
15.009497869018190385759 606.70870528949637901 15.009497869018190385759 101.96791235211324533
16.009497869018190385759 612.39847884477194384 16.009497869018190385759 101.96830361528323294
17.009497869018190385759 617.70561074736315277 17.009497869018190385759 101.89319168777481650
18.009497869018190385759 622.66335902941420954 18.009497869018190385759 101.91999296861429514
19.009497869018204596614 627.30260935923104171 19.009497869018204596614 101.91617608789378835
20.009497869018190385759 631.66437598048673863 20.009497869018190385759 101.91782272779992979
21.009497869018204596614 635.79288623344734788 21.009497869018204596614 101.86071743879627149
22.009497869018190385759 639.69869676333337338 22.009497869018190385759 101.83443607923454977
23.009497869018190385759 643.39723570238891170 23.009497869018190385759 101.97819874406366125
24.009497869018190385759 646.89967626677037060 24.009497869018190385759 101.99594192799030168
25.009497869018190385759 650.23112566174847871 25.009497869018190385759 101.99322010351382062
26.009497869018204596614 653.42131986973311086 26.009497869018204596614 102.04390182491268035
27.009497869018190385759 656.47362967031619974 27.009497869018190385759 102.01282097455042219
28.009497869018190385759 659.39040104799528308 28.009497869018190385759 102.04908924694311168
29.009497869018190385759 662.18044594899686217 29.009497869018190385759 102.16673007752902436
30.009497869018190385759 664.84770883254213913 30.009497869018190385759 102.17318192812629718
31.009497869018190385759 667.40582084076493175 31.009497869018190385759 102.13581156481984635
32.009497869018190385759 669.86915066970789212 32.009497869018190385759 102.08933909303470955
33.009497869018190385759 672.24454577420306123 33.009497869018190385759 102.04820405876967016
34.009497869018190385759 674.53218878092116029 34.009497869018190385759 101.96780187883045699
35.009497869018190385759 676.73388226054942152 35.009497869018190385759 101.94853005031188786
36.009497869018190385759 678.85537286078260877 36.009497869018190385759 101.94570889375629008
37.009497869018190385759 680.89992637455395652 37.009497869018190385759 101.90759758164534787
38.009497869018190385759 682.86991263797233387 38.009497869018190385759 101.81733486954156831
39.009497869018190385759 684.77340566557154489 39.009497869018190385759 101.67525042168932714
40.009497869018190385759 686.61688630648734488 40.009497869018190385759 101.47751403973698814
41.009497869018190385759 688.40560204071459793 41.009497869018190385759 101.36388093162608470
42.009497869018190385759 690.13802370668042840 42.009497869018190385759 101.14980031498650703
43.009497869018190385759 691.81536999389209086 43.009497869018190385759 101.00679623842196975
44.009497869018218807469 693.43802247221901780 44.009497869018218807469 100.87949304934571160
46.009497869018190385759 696.53309605828644635 46.009497869018190385759 100.53386774792137714
48.009497869018190385759 699.42825984708542819 48.009497869018190385759 100.18064513339859900
50.009497869018190385759 702.15624365933490481 50.009497869018190385759 99.86912711638015594
52.009497869018190385759 704.74419499765997443 52.009497869018190385759 99.64938348712945526
54.009497869018190385759 707.19646863235732326 54.009497869018190385759 99.44104976746476154
56.009497869018190385759 709.51841659260287543 56.009497869018190385759 99.35002664912893522
58.009497869018218807469 711.72626617609114419 58.009497869018218807469 99.26751031621337518
60.009497869018190385759 713.84590606787321576 60.009497869018190385759 99.15091306526690573
62.009497869018190385759 715.87044861327274248 62.009497869018190385759 99.01765562880778759
64.009497869018190385759 717.80661915297525866 64.009497869018190385759 98.90915450713140444
66.009497869018190385759 719.65892237639047835 66.009497869018190385759 98.78955096949266590
68.009497869018190385759 721.42995612123968385 68.009497869018190385759 98.54316067628032272
70.009497869018190385759 723.11967906175289045 70.009497869018190385759 98.35151073480237471
72.009497869018218807469 724.73807984110703728 72.009497869018218807469 97.83935444243209645
74.009497869018190385759 726.29294821475070876 74.009497869018190385759 97.38850994365631664
76.009497869018190385759 727.79006144144420887 76.009497869018190385759 97.01234203527447164
78.009497869018190385759 729.22700892089767422 78.009497869018190385759 96.51870995898545402
80.009497869018190385759 730.60378095992098224 80.009497869018190385759 96.19346703443137869
82.009497869018218807469 731.92172662913537806 82.009497869018218807469 95.89377837299583973
84.009497869018190385759 733.18531363720398986 84.009497869018190385759 95.47313104861261479
86.009497869018190385759 734.38420285519566733 86.009497869018190385759 95.01176778549438495
88.009497869018190385759 735.53101521116639105 88.009497869018190385759 94.71520598370976529
91.009497869018218807469 737.17492957181286783 91.009497869018218807469 94.45543255502468583
94.009497869018190385759 738.74980880635951053 94.009497869018190385759 94.28720475914593635
97.009497869018190385759 740.26102055232502153 97.009497869018190385759 94.28077759040219519
99.504748934509109403734 741.46877934488236406 99.504748934509109403734 92.05673080688755761
nan nan nan nan

