Time Pressure difference Time.1 Pressure.1 difference.1
(hr) (psi) (hr) (psi)
0.000200000000006639311 0.31648094157668027 0.000200000000006639311 0.25273933800073234
0.000399999999999067768 0.63184556349750620 0.000399999999999067768 0.65721323984016988
0.000600000000005707079 0.94628789258537993 0.000600000000005707079 0.95955491692831618
0.000799999999998135536 1.25989764601130894 0.000799999999998135536 1.26617409871410302
0.001007140329434719206 1.58388575888338923 0.001007140329434719206 1.58682409948021141
0.001267914553963578328 1.99064953162711777 0.001267914553963578328 1.99166660644598870
0.001596209851982166583 2.50107009043048079 0.001596209851982166583 2.49835138519356326
0.002009509145210586212 3.14116385690949729 0.002009509145210586212 3.13178770325790223
0.002529822128138903281 3.94328163524738473 0.002529822128138903281 3.92262384600437075
0.003184857364445292660 4.94755160950724893 0.003184857364445292660 4.90839635555730247
0.004009497869020606231 6.20360721040010699 0.004009497869020606231 6.13481775999799961
0.005047658755842121536 7.77262241709494184 0.005047658755842121536 7.65716971047948025
0.006354625877804664924 9.72968008520335381 0.006354625877804664924 9.54173438927324113
0.008000000000009777068 12.16646475364392188 0.008000000000009777068 11.86713925993701224
0.010071403294347192059 15.19424770270629210 0.010071403294347192059 14.72542243135406714
0.012679145539692626699 18.94706654832161519 0.012679145539692626699 18.22247858948513510
0.015962098519750611558 23.58490997050871130 0.015962098519750611558 22.47745280150411418
0.020095091452091651263 29.29660981163566547 0.020095091452091651263 27.62047629599247145
0.025298221281346400247 36.30197109197119687 0.025298221281346400247 33.78787511538604349
0.031848573644282396344 44.85244069750753937 0.031848573644282396344 41.11379651700132598
0.040094978690191851456 55.22935802561777763 0.040094978690191851456 49.71699160428773467
0.050476587558421215363 67.73850622631272245 0.050476587558421215363 59.68253077102341564
0.063546258777947173257 82.69990377221039068 0.063546258777947173257 71.03593895072181397
0.079999999999998294697 100.43039942567521905 0.079999999999998294697 83.71187581216972262
0.100714032943542974863 121.21899292044037111 0.100714032943542974863 97.52145589719688701
0.126791455396897845276 145.29433895722129932 0.126791455396897845276 112.11688168682498201
0.159620985197506115583 172.78376415979320768 0.159620985197506115583 126.97612561419613542
0.200950914520774404082 203.67373770093132634 0.200950914520774404082 141.40691796834687466
0.252982212813464002465 237.77081452116007654 0.252982212813464002465 154.59748582001452633
0.318485736442795541734 274.68561926729535116 0.318485736442795541734 165.71236641975460202
0.400949786901819038576 313.83811451703292050 0.400949786901819038576 174.02924189626821772
0.504765875584169521062 354.50476141626438675 0.504765875584169521062 179.09411091541753080
0.635462587779443310865 395.89527088570611113 0.635462587779443310865 180.83216457846330627
0.799999999999997157829 437.25059559127140574 0.799999999999997157829 179.58236593376136625
1.007140329435330272645 477.93506850799104768 1.007140329435330272645 176.03179008021302820
1.267914553968893187630 517.50334050910487349 1.267914553968893187630 171.06323951281760287
1.596209851975103788391 555.72144836565973947 1.596209851975103788391 165.56421350268578863
2.009509145207687197399 592.54502459361742694 2.009509145207687197399 160.27961080182925002
2.529822128134711078928 628.07193849245584261 2.529822128134711078928 155.72015776865814018
3.184857364427983839050 662.47812060177977855 3.184857364427983839050 152.14411167619672938
4.009497869018190385759 695.96174602191240410 4.009497869018190385759 149.59706390557084887
5.009497869018190385759 727.63111739055591443 5.009497869018190385759 148.00466055385351183
6.009497869018190385759 753.08118173252148608 6.009497869018190385759 147.24007943486830641
7.009497869018204596614 774.32962429516271641 7.009497869018204596614 146.89014290481844682
8.009497869018190385759 792.53996135937700274 8.009497869018190385759 146.80204049089630303
9.009497869018204596614 808.46002074359694234 9.009497869018204596614 146.82912550307580091
10.009497869018190385759 822.56681932287506243 10.009497869018190385759 146.86595146347556806
11.009497869018190385759 835.23072321638392168 11.009497869018190385759 146.87683943421896515
12.009497869018190385759 846.68455864386157828 12.009497869018190385759 146.98999076330744629
13.009497869018190385759 857.12809117503059042 13.009497869018190385759 147.04060446809137375
14.009497869018204596614 866.73211351484019360 14.009497869018204596614 147.06533359596056698
15.009497869018190385759 875.59097240643234272 15.009497869018190385759 147.15823714452704962
16.009497869018190385759 883.80235015097775886 16.009497869018190385759 147.15880180842012237
17.009497869018190385759 891.46150641948997873 17.009497869018190385759 147.05040164031140648
18.009497869018190385759 898.61643859926823552 18.009497869018190385759 147.08908076152286526
19.009497869018204596614 905.31172032525387294 19.009497869018204596614 147.08357230866491250
20.009497869018190385759 911.60654260820240324 20.009497869018190385759 147.08594870943852584
21.009497869018204596614 917.56473354145248322 21.009497869018204596614 147.00353539462642516
22.009497869018190385759 923.20152828344703266 22.009497869018190385759 146.96560661434986628
23.009497869018190385759 928.53919243412929063 23.009497869018190385759 147.17308227836460333
24.009497869018190385759 933.59385097590723035 24.009497869018190385759 147.19868891880418005
25.009497869018190385759 938.40173817093250364 25.009497869018190385759 147.19476083120744647
26.009497869018204596614 943.00576844836484725 26.009497869018204596614 147.26790377004442689
27.009497869018190385759 947.41080645602448840 27.009497869018190385759 147.22304845190799938
28.009497869018190385759 951.62023787608404746 28.009497869018190385759 147.27539016320199039
29.009497869018190385759 955.64677994912040049 29.009497869018190385759 147.44516727097939679
30.009497869018190385759 959.49612524696408400 30.009497869018190385759 147.45447846445497930
31.009497869018190385759 963.18794598610406865 31.009497869018190385759 147.40054623559228730
32.009497869018190385759 966.74297880741926292 32.009497869018190385759 147.33347800926600257
33.009497869018190385759 970.17110583322482853 33.009497869018190385759 147.27411267572441034
34.009497869018190385759 973.47259062701118637 34.009497869018190385759 147.15807771149394512
35.009497869018190385759 976.65003462602032869 35.009497869018190385759 147.13026495897284462
36.009497869018190385759 979.71173128772022665 36.009497869018190385759 147.12619351712555726
37.009497869018190385759 982.66239374509484605 37.009497869018190385759 147.07119196441999520
38.009497869018190385759 985.50544210252803623 38.009497869018190385759 146.94092645945204367
39.009497869018190385759 988.25252863099512979 39.009497869018190385759 146.73587276766528475
40.009497869018190385759 990.91300637413519325 40.009497869018190385759 146.45050321643861935
41.009497869018190385759 993.49444839966770360 41.009497869018190385759 146.28650998086945378
42.009497869018190385759 995.99464784941392281 42.009497869018190385759 145.97755272731006926
43.009497869018190385759 998.41536351391243898 43.009497869018190385759 145.77117184408626827
44.009497869018218807469 1000.75714606786175409 44.009497869018218807469 145.58745019621483152
46.009497869018190385759 1005.22389999320876086 46.009497869018190385759 145.08865004529565113
48.009497869018190385759 1009.40214773386185243 48.009497869018190385759 144.57888559024573283
50.009497869018190385759 1013.33912437199467149 50.009497869018190385759 144.12930845204863317
52.009497869018190385759 1017.07400868980460018 52.009497869018190385759 143.81217844165271913
54.009497869018190385759 1020.61308541260643779 54.009497869018190385759 143.51151500531844363
56.009497869018190385759 1023.96407849159720627 56.009497869018190385759 143.38015209590201948
58.009497869018218807469 1027.15040686776796974 58.009497869018218807469 143.26106602453521077
60.009497869018190385759 1030.20943262068067270 60.009497869018190385759 143.09279499191927698
62.009497869018190385759 1033.13121561233674583 62.009497869018190385759 142.90048028248398282
64.009497869018190385759 1035.92546173213486327 64.009497869018190385759 142.74389343642829431
66.009497869018190385759 1038.59867206592707589 66.009497869018190385759 142.57128378551786341
68.009497869018190385759 1041.15459576588000346 68.009497869018190385759 142.21569779417728796
70.009497869018190385759 1043.59317319139336178 70.009497869018190385759 141.93911208318070294
72.009497869018218807469 1045.92881977068873312 72.009497869018218807469 141.19997743396450574
74.009497869018190385759 1048.17277753719690736 74.009497869018190385759 140.54932685050397367
76.009497869018190385759 1050.33338412572061316 76.009497869018190385759 140.00644816454385477
78.009497869018190385759 1052.40716060175009261 78.009497869018190385759 139.29404732717219417
80.009497869018190385759 1054.39409297624956707 80.009497869018190385759 138.82466265196347877
82.009497869018218807469 1056.29612820341139923 82.009497869018218807469 138.39215742466447523
84.009497869018190385759 1058.11971399914659742 84.009497869018190385759 137.78508685424776559
86.009497869018190385759 1059.84992912056668501 86.009497869018190385759 137.11925578133849513
88.009497869018190385759 1061.50498786156958886 88.009497869018190385759 136.69126318103567996
91.009497869018218807469 1063.87745517750272484 91.009497869018218807469 136.31636289191061451
94.009497869018190385759 1066.15029225463240437 94.009497869018190385759 136.07357959558561333
97.009497869018190385759 1068.33124556983284492 97.009497869018190385759 136.06430402251226042
99.504748934509109403734 1070.07426110000074004 99.504748934509109403734 132.85460014175816923
nan nan nan nan

