Time Pressure difference Time.1 Pressure.1 difference.1
(hr) (psi) (hr) (psi)
0.000200000000006639311 0.23341507764579308 0.000200000000006639311 0.18640355374857162
0.000399999999999067768 0.46600683292073297 0.000399999999999067768 0.48471632649629337
0.000600000000005707079 0.69791836697241938 0.000600000000005707079 0.70770323269516233
0.000799999999998135536 0.92921584915794697 0.000799999999998135536 0.93384493894662179
0.001007140329434719206 1.16816771193236835 0.001007140329434719206 1.17033483452477549
0.001267914553963578328 1.46816933959900298 0.001267914553963578328 1.46891946564651676
0.001596209851982166583 1.84462124779780856 0.001596209851982166583 1.84261611348921583
0.002009509145210586212 2.31671140102773965 0.002009509145210586212 2.30979618009309862
0.002529822128138903281 2.90829957875200851 0.002529822128138903281 2.89306378143629450
0.003184857364445292660 3.64898163325862690 0.003184857364445292660 3.62010334884934837
0.004009497869020606231 4.57536384809036711 0.004009497869020606231 4.52462937154708111
0.005047658755842121536 5.73256403990466890 0.005047658755842121536 5.64741388095730734
0.006354625877804664924 7.17595827806336661 0.006354625877804664924 7.03734216111753508
0.008000000000009777068 8.97316691804184430 0.008000000000009777068 8.75240454604278284
0.010071403294347192059 11.20625617968626919 0.010071403294347192059 10.86048216065746175
0.012679145539692626699 13.97408320230544199 0.012679145539692626699 13.43967581009271228
0.015962098519750611558 17.39464488638568795 0.015962098519750611558 16.57785889034817828
0.020095091452091651263 21.60721091094388768 0.020095091452091651263 20.37100745189995976
0.025298221281346400247 26.77389468987901822 0.025298221281346400247 24.91966642368366891
0.031848573644282396344 33.08014655118009983 0.031848573644282396344 30.32277380912696785
0.040094978690191851456 40.73346353070497372 0.040094978690191851456 36.66791244305735376
0.050476587558421215363 49.95937073384219218 0.050476587558421215363 44.01782453190966038
0.063546258777947173257 60.99389228344125513 0.063546258777947173257 52.39133555158222322
0.079999999999998294697 74.07071453704655539 0.079999999999998294697 61.74025486409367858
0.100714032943542974863 89.40298427990484242 0.100714032943542974863 71.92527324701397617
0.126791455396897845276 107.15934185558842273 0.126791455396897845276 82.68987861941685935
0.159620985197506115583 127.43369482651415581 0.159620985197506115583 93.64905852385592766
0.200950914520774404082 150.21606376367898861 0.200950914520774404082 104.29224133623483795
0.252982212813464002465 175.36377658909705701 0.252982212813464002465 114.02071788825216458
0.318485736442795541734 202.58965620501311378 0.318485736442795541734 122.21830699199749404
0.400949786901819038576 231.46590598237864356 0.400949786901819038576 128.35227551929492051
0.504765875584169521062 261.45889227813722755 0.504765875584169521062 132.08778259116095910
0.635462587779443310865 291.98575096819797636 0.635462587779443310865 133.36965419041518999
0.799999999999997157829 322.48665974054398475 0.799999999999997157829 132.44788668605499993
1.007140329435330272645 352.49279330904329299 1.007140329435330272645 129.82922050535398739
1.267914553968893187630 381.67569208151832072 1.267914553968893187630 126.16475145171061456
1.596209851975103788391 409.86280050065715841 1.596209851975103788391 122.10903935499925410
2.009509145207687197399 437.02139609135559795 2.009509145207687197399 118.21147148376383029
2.529822128134711078928 463.22366067291358149 2.529822128134711078928 114.84872528344602927
3.184857364427983839050 488.59934879028901378 3.184857364427983839050 112.21127396590887315
4.009497869018190385759 513.29462108177790469 4.009497869018190385759 110.33274267051287154
5.009497869018190385759 536.65182148752285229 5.009497869018190385759 109.15829295441689339
6.009497869018190385759 555.42207891558678057 6.009497869018190385759 108.59438929448292299
7.009497869018204596614 571.09350243291532934 7.009497869018204596614 108.33629962271386660
8.009497869018190385759 584.52422346977675716 8.009497869018190385759 108.27132120194713139
9.009497869018204596614 596.26578957729850572 9.009497869018204596614 108.29129728704542401
10.009497869018190385759 606.67001635099188661 10.009497869018190385759 108.31845764104102159
11.009497869018190385759 616.01006095486582126 11.009497869018190385759 108.32648787668118473
12.009497869018190385759 624.45764036463276625 12.009497869018190385759 108.40994069419788559
13.009497869018190385759 632.16008824195159832 13.009497869018190385759 108.44726996203064573
14.009497869018204596614 639.24336981015767378 14.009497869018204596614 108.46550850515725983
15.009497869018190385759 645.77706888768364024 15.009497869018190385759 108.53402792024174062
16.009497869018190385759 651.83322937644288686 16.009497869018190385759 108.53444437838859926
17.009497869018190385759 657.48210840912520325 17.009497869018190385759 108.45449569797243328
18.009497869018190385759 662.75910563358104355 18.009497869018190385759 108.48302281886596177
19.009497869018204596614 667.69709556796931338 19.009497869018204596614 108.47896015415967952
20.009497869018190385759 672.33973352468467510 20.009497869018190385759 108.48071282769613788
21.009497869018204596614 676.73409481666180909 21.009497869018204596614 108.41993030417329180
22.009497869018190385759 680.89141587309347869 22.009497869018190385759 108.39195658433676783
23.009497869018190385759 684.82811830443654344 23.009497869018190385759 108.54497669349200351
24.009497869018190385759 688.55609481425187823 24.009497869018190385759 108.56386243092906341
25.009497869018190385759 692.10206935966414221 25.009497869018190385759 108.56096533745221677
26.009497869018204596614 695.49769274013260656 26.009497869018204596614 108.61491065454721650
27.009497869018190385759 698.74655279302589861 27.009497869018190385759 108.58182838579041629
28.009497869018190385759 701.85114657002532113 28.009497869018190385759 108.62043211511746676
29.009497869018190385759 704.82085345328823678 29.009497869018190385759 108.74564830221839884
30.009497869018190385759 707.65987190130420004 30.009497869018190385759 108.75251561289199742
31.009497869018190385759 710.38271081914763272 31.009497869018190385759 108.71273882467568228
32.009497869018190385759 713.00466415980270085 32.009497869018190385759 108.66327380735890529
33.009497869018190385759 715.53302031269333838 33.009497869018190385759 108.61948992619043963
34.009497869018190385759 717.96797366454120493 34.009497869018190385759 108.53391033314908043
35.009497869018190385759 720.31144286066069071 35.009497869018190385759 108.51339751567287806
36.009497869018190385759 722.56954459802989277 36.009497869018190385759 108.51039469373301927
37.009497869018190385759 724.74575496685474718 37.009497869018190385759 108.46982924409978466
38.009497869018190385759 726.84259640632649280 38.009497869018190385759 108.37375416038325682
39.009497869018190385759 728.86866284858172094 39.009497869018190385759 108.22252033520719294
40.009497869018190385759 730.83085247016265384 40.009497869018190385759 108.01205092865944835
41.009497869018190385759 732.73475065697277842 41.009497869018190385759 107.89110053707170778
42.009497869018190385759 734.57872977870158593 42.009497869018190385759 107.66323442617883188
43.009497869018190385759 736.36408700107449476 43.009497869018190385759 107.51102175377489800
44.009497869018218807469 738.09122846474826929 44.009497869018218807469 107.37552101085660183
46.009497869018190385759 741.38560603173675645 46.009497869018190385759 107.00763953471934542
48.009497869018190385759 744.46720082208707936 48.009497869018190385759 106.63167152456442466
50.009497869018190385759 747.37085025861028953 50.009497869018190385759 106.30009363523797106
52.009497869018190385759 750.12544997856980444 52.009497869018190385759 106.06619984804309809
54.009497869018190385759 752.73563517307729853 54.009497869018190385759 105.84445069946059448
56.009497869018190385759 755.20710250955085030 56.009497869018190385759 105.74756624395921278
58.009497869018218807469 757.55712422530916683 58.009497869018218807469 105.65973635930286889
60.009497869018190385759 759.81325607981955272 60.009497869018190385759 105.53563095204546585
62.009497869018190385759 761.96816689518811927 62.009497869018190385759 105.39379254429920252
64.009497869018190385759 764.02901508328045566 64.009497869018190385759 105.27830460796941736
66.009497869018190385759 766.00059540820348047 66.009497869018190385759 105.15099932737666677
68.009497869018190385759 767.88567299268311217 68.009497869018190385759 104.88874299255594735
70.009497869018190385759 769.68420384982016458 70.009497869018190385759 104.68475195636162312
72.009497869018218807469 771.40681983087540630 72.009497869018218807469 104.13961590274020352
74.009497869018190385759 773.06181230433696783 74.009497869018190385759 103.65973975063417356
76.009497869018190385759 774.65533054941602131 76.009497869018190385759 103.25934890875805650
78.009497869018190385759 776.18480873777366469 78.009497869018190385759 102.73392991846556299
80.009497869018190385759 777.65023655203719954 80.009497869018190385759 102.38774332073946027
82.009497869018218807469 779.05304993479933273 82.009497869018218807469 102.06875652580239944
84.009497869018190385759 780.39800428808450761 84.009497869018190385759 101.62102206310662211
86.009497869018190385759 781.67409470571965358 86.009497869018190385759 101.12994980198456574
88.009497869018190385759 782.89475482703687703 88.009497869018190385759 100.81429121750925049
91.009497869018218807469 784.64452730939171943 91.009497869018218807469 100.53778995440126209
94.009497869018190385759 786.32081922192037382 94.009497869018190385759 100.35872930803031977
97.009497869018190385759 787.92934384546720139 97.009497869018190385759 100.35188826857203992
99.504748934509109403734 789.21487498451494957 99.504748934509109403734 97.98462635127047804
nan nan nan nan

