Time Pressure difference Time.1 Pressure.1 difference.1
(hr) (psi) (hr) (psi)
0.000200000000006639311 0.41200668509720056 0.000200000000006639311 0.32902548989071723
0.000399999999999067768 0.82256010366079557 0.000399999999999067768 0.85558469018562799
0.000600000000005707079 1.23191284704028470 0.000600000000005707079 1.24918435379644310
0.000799999999998135536 1.64018171239267518 0.000799999999998135536 1.64835263244670616
0.001007140329434719206 2.06196151287706320 0.001007140329434719206 2.06578675417896296
0.001267914553963578328 2.59150175245945036 0.001267914553963578328 2.59282581836538162
0.001596209851982166583 3.25598625945805376 0.001596209851982166583 3.25244694765356224
0.002009509145210586212 4.08928418117351811 0.002009509145210586212 4.07707795489742608
0.002529822128138903281 5.13351100021706763 0.002529822128138903281 5.10661792025765848
0.003184857364445292660 6.44090708219316355 0.003184857364445292660 6.38993331327144798
0.004009497869020606231 8.07608707705630735 0.004009497869020606231 7.98653440671655712
0.005047658755842121536 10.11868955086375621 0.005047658755842121536 9.96838891442997976
0.006354625877804664924 12.66646016341434056 0.006354625877804664924 12.42178545165230474
0.008000000000009777068 15.83875726458631483 0.008000000000009777068 15.44908418091537428
0.010071403294347192059 19.78043795417932316 0.010071403294347192059 19.17010374265516148
0.012679145539692626699 24.66599739624021126 0.012679145539692626699 23.72270178578642685
0.015962098519750611558 30.70371481725018725 0.015962098519750611558 29.26198579933344490
0.020095091452091651263 38.13941854743120530 0.020095091452091651263 35.95736546669886735
0.025298221281346400247 47.25925895437720214 0.025298221281346400247 43.98631511084377621
0.031848573644282396344 58.39057896578410123 0.031848573644282396344 53.52347263105684760
0.040094978690191851456 71.89963669476749430 0.040094978690191851456 64.72343263970266491
0.050476587558421215363 88.18451204265383581 0.050476587558421215363 77.69694294600424200
0.063546258777947173257 107.66181698429488733 0.063546258777947173257 92.47723285973232521
0.079999999999998294697 130.74403704759819789 0.079999999999998294697 108.97923990245716652
0.100714032943542974863 157.80740285705621773 0.100714032943542974863 126.95706594490722807
0.126791455396897845276 189.14958562409913156 0.126791455396897845276 145.95793521434436002
0.159620985197506115583 224.93634389306410526 0.159620985197506115583 165.30225276808735657
0.200950914520774404082 265.15006272877144511 0.200950914520774404082 184.08879609527576804
0.252982212813464002465 309.53890814303252910 0.252982212813464002465 201.26076894154121533
0.318485736442795541734 357.59597678891998385 0.318485736442795541734 215.73053476167527265
0.400949786901819038576 408.56615433188540010 0.400949786901819038576 226.55775322978749386
0.504765875584169521062 461.50751092511058005 0.504765875584169521062 233.15138848831259111
0.635462587779443310865 515.39121879084052580 0.635462587779443310865 235.41405152471864426
0.799999999999997157829 569.22912181960782618 0.799999999999997157829 233.78701706862375431
1.007140329435330272645 622.19368498678102242 1.007140329435330272645 229.16474509130094361
1.267914553968893187630 673.70513620082942907 1.267914553968893187630 222.69650078309061314
1.596209851975103788391 723.45889341041265652 1.596209851975103788391 215.53766377252534880
2.009509145207687197399 771.39719737121845355 2.009509145207687197399 208.65797101760446708
2.529822128134711078928 817.64745798492947415 2.529822128134711078928 202.72230512665205993
3.184857364427983839050 862.43870818499419784 3.184857364427983839050 198.06687504302774983
4.009497869018190385759 906.02893970306706706 4.009497869018190385759 194.75103332588750504
5.009497869018190385759 947.25730767904394725 5.009497869018190385759 192.67798329320561379
6.009497869018190385759 980.38914997199663048 6.009497869018190385759 191.68262309631148810
7.009497869018204596614 1008.05116443674717175 7.009497869018204596614 191.22706267923871337
8.009497869018190385759 1031.75805993241715441 8.009497869018190385759 191.11236767318783336
9.009497869018204596614 1052.48338658484021835 9.009497869018204596614 191.14762795151077057
10.009497869018190385759 1070.84814274054065208 10.009497869018190385759 191.19556935927525387
11.009497869018190385759 1087.33448481712957800 11.009497869018190385759 191.20974372538742614
12.009497869018190385759 1102.24551466497473484 12.009497869018190385759 191.35704834278345743
13.009497869018190385759 1115.84129454807134607 13.009497869018190385759 191.42293915006121097
14.009497869018204596614 1128.34416877522494360 14.009497869018204596614 191.45513245038435457
15.009497869018190385759 1139.87696145299310047 15.009497869018190385759 191.57607775245517701
16.009497869018190385759 1150.56683904169290145 16.009497869018190385759 191.57681285295640805
17.009497869018190385759 1160.53781413140950463 17.009497869018190385759 191.43569347400116953
18.009497869018190385759 1169.85237150980856313 18.009497869018190385759 191.48604739557833909
19.009497869018204596614 1178.56853879613095160 19.009497869018204596614 191.47887628634592261
20.009497869018190385759 1186.76337305424772239 20.009497869018190385759 191.48196997344226133
21.009497869018204596614 1194.51996807496175279 21.009497869018204596614 191.37468124864750507
22.009497869018190385759 1201.85815755535372773 22.009497869018190385759 191.32530414886491599
23.009497869018190385759 1208.80692768327594422 23.009497869018190385759 191.59540370096809170
24.009497869018190385759 1215.38727056181119224 24.009497869018190385759 191.62873937986057626
25.009497869018190385759 1221.64635730389090895 25.009497869018190385759 191.62362564902596773
26.009497869018204596614 1227.64005551283207751 26.009497869018204596614 191.71884585286625224
27.009497869018190385759 1233.37469816847260518 27.009497869018190385759 191.66045152794322348
28.009497869018190385759 1238.85469287805153726 28.009497869018190385759 191.72859191849914851
29.009497869018190385759 1244.09659541932728644 29.009497869018190385759 191.94961408505454870
30.009497869018190385759 1249.10781659447275160 30.009497869018190385759 191.96173574375242765
31.009497869018190385759 1253.91396642810400408 31.009497869018190385759 191.89152475814640297
32.009497869018190385759 1258.54204065217845709 32.009497869018190385759 191.80421284145913319
33.009497869018190385759 1263.00490418183585462 33.009497869018190385759 191.72692883768849015
34.009497869018190385759 1267.30290013385206294 34.009497869018190385759 191.57587019659052885
35.009497869018190385759 1271.43941515618394078 35.009497869018190385759 191.53966251876778415
36.009497869018190385759 1275.42524598086401966 36.009497869018190385759 191.53436216402695891
37.009497869018190385759 1279.26652834007109050 37.009497869018190385759 191.46275909278821814
38.009497869018190385759 1282.96771465316010108 38.009497869018190385759 191.29317460338114643
39.009497869018190385759 1286.54397428077072618 39.009497869018190385759 191.02622806499206831
40.009497869018190385759 1290.00748336370361358 40.009497869018190385759 190.65472334738467453
41.009497869018190385759 1293.36810080376676524 41.009497869018190385759 190.44123084123688727
42.009497869018190385759 1296.62295363073303633 42.009497869018190385759 190.03901877361101924
43.009497869018190385759 1299.77433150367596681 43.009497869018190385759 189.77034444794432488
44.009497869018218807469 1302.82295131144201150 44.009497869018218807469 189.53116875937678287
46.009497869018190385759 1308.63793804890178762 46.009497869018190385759 188.88181213245835011
48.009497869018190385759 1314.07733668240280167 48.009497869018190385759 188.21818176577920667
50.009497869018190385759 1319.20263960238685286 50.009497869018190385759 187.63290549138091023
52.009497869018190385759 1324.06485120772458686 52.009497869018190385759 187.22005382430381815
54.009497869018190385759 1328.67215318806506730 54.009497869018190385759 186.82863895705500568
56.009497869018190385759 1333.03460087095095332 56.009497869018190385759 186.65762582563621663
58.009497869018218807469 1337.18268190659568972 58.009497869018218807469 186.50259513955236912
60.009497869018190385759 1341.16503564267077309 60.009497869018190385759 186.28353363777421237
62.009497869018190385759 1344.96872163705802450 62.009497869018190385759 186.03317118139648301
64.009497869018190385759 1348.60637537831712507 64.009497869018190385759 185.82932058915596940
66.009497869018190385759 1352.08646022230936978 66.009497869018190385759 185.60461091238019549
68.009497869018190385759 1355.41385695505641706 68.009497869018190385759 185.14169581604181758
70.009497869018190385759 1358.58848793420224865 70.009497869018190385759 184.78162622902263479
72.009497869018218807469 1361.62911970147388274 72.009497869018218807469 183.81939319487239004
74.009497869018190385759 1364.55038755498617320 74.009497869018190385759 182.97235201535426086
76.009497869018190385759 1367.36314573847107567 76.009497869018190385759 182.26561230869751284
78.009497869018190385759 1370.06286524532288240 78.009497869018190385759 181.33818234718478379
80.009497869018190385759 1372.64952786409389773 80.009497869018190385759 180.72711988287107943
82.009497869018218807469 1375.12566821231484937 82.009497869018218807469 180.16406845835584249
84.009497869018190385759 1377.49968016686807459 84.009497869018190385759 179.37376136406007276
86.009497869018190385759 1379.75213869764047558 86.009497869018190385759 178.50695765759550682
88.009497869018190385759 1381.90675585128201419 88.009497869018190385759 177.94978093909105610
91.009497869018218807469 1384.99532222583025032 91.009497869018218807469 177.46172177004635273
94.009497869018190385759 1387.95418624225089843 94.009497869018190385759 177.14565742627414124
97.009497869018190385759 1390.79343255285311898 97.009497869018190385759 177.13358213954350617
99.504748934509109403734 1393.06255513280939340 99.504748934509109403734 172.95507000081906313
nan nan nan nan

