Time Pressure difference Time.1 Pressure.1 difference.1
(hr) (psi) (hr) (psi)
0.000200000000006639311 0.75506870313176477 0.000200000000006639311 0.60299227885214091
0.000399999999999067768 1.50747406094286918 0.000399999999999067768 1.56799694229583864
0.000600000000005707079 2.25767898782181176 0.000600000000005707079 2.28933180967936867
0.000799999999998135536 3.00589753339705990 0.000799999999998135536 3.02087206228640293
0.001007140329434719206 3.77887704678477876 0.001007140329434719206 3.78588741844491405
0.001267914553963578328 4.74934494553556430 0.001267914553963578328 4.75177150986720154
0.001596209851982166583 5.96711997953098994 0.001596209851982166583 5.96063361979251649
0.002009509145210586212 7.49427282396517835 0.002009509145210586212 7.47190294556806478
0.002529822128138903281 9.40798689354297402 0.002529822128138903281 9.35870098692381447
0.003184857364445292660 11.80400108409997095 0.003184857364445292660 11.71058343097529608
0.004009497869020606231 14.80073216339552999 0.004009497869020606231 14.63661245101884845
0.005047658755842121536 18.54413064865958560 0.005047658755842121536 18.26868049035655872
0.006354625877804664924 23.21333122690249340 0.006354625877804664924 22.76492535393537153
0.008000000000009777068 29.02707732562290488 0.008000000000009777068 28.31293854929853993
0.010071403294347192059 36.25084294425202103 0.010071403294347192059 35.13230706063214370
0.012679145539692626699 45.20441861528700400 0.012679145539692626699 43.47567726467714522
0.015962098519750611558 56.26950961467826318 0.015962098519750611558 53.62730865240745715
0.020095091452091651263 69.89663600728825088 0.020095091452091651263 65.89767179280093501
0.025298221281346400247 86.61021449501788538 0.025298221281346400247 80.61201700757457900
0.031848573644282396344 107.01015379011641926 0.031848573644282396344 98.09039641457798098
0.040094978690191851456 131.76768095875735298 0.040094978690191851456 118.61612957558412518
0.050476587558421215363 161.61234162655711089 0.050476587558421215363 142.39217971354406700
0.063546258777947173257 197.30764443291138832 0.063546258777947173257 169.47944489817879798
0.079999999999998294697 239.60953563763459329 0.079999999999998294697 199.72203441801124768
0.100714032943542974863 289.20751854246799439 0.100714032943542974863 232.66930029016268122
0.126791455396897845276 346.64712365384298209 0.126791455396897845276 267.49145788273995095
0.159620985197506115583 412.23213023950660272 0.159620985197506115583 302.94303985119233857
0.200950914520774404082 485.93025608962352635 0.200950914520774404082 337.37241058589853537
0.252982212813464002465 567.27997480245278439 0.252982212813464002465 368.84282049971966444
0.318485736442795541734 655.35230423614552819 0.318485736442795541734 395.36100019831218333
0.400949786901819038576 748.76337558000773242 0.400949786901819038576 415.20362436668722239
0.504765875584169521062 845.78695046557561454 0.504765875584169521062 427.28752446749223282
0.635462587779443310865 944.53753605014935602 0.635462587779443310865 431.43421942735739094
0.799999999999997157829 1043.20417688311204074 0.799999999999997157829 428.45241636165116006
1.007140329435330272645 1140.27028155843527202 1.007140329435330272645 419.98135743546885124
1.267914553968893187630 1234.67332420676211768 1.267914553968893187630 408.12725647546244545
1.596209851975103788391 1325.85510909287313552 1.596209851975103788391 395.00753300247083644
2.009509145207687197399 1413.70978308555959302 2.009509145207687197399 382.39938640121471281
2.529822128134711078928 1498.47084537963883122 2.529822128134711078928 371.52132129057804377
3.184857364427983839050 1580.55803576645098474 3.184857364427983839050 362.98949478651661593
4.009497869018190385759 1660.44416570582234272 4.009497869018190385759 356.91268002667686687
5.009497869018190385759 1736.00179975857054160 5.009497869018190385759 353.11348147887883897
6.009497869018190385759 1796.72124460593727235 6.009497869018190385759 351.28932337610308423
7.009497869018204596614 1847.41634772782913387 7.009497869018204596614 350.45443543433066225
8.009497869018190385759 1890.86305741646651768 8.009497869018190385759 350.24423833654788041
9.009497869018204596614 1928.84556130165265131 9.009497869018204596614 350.30885848371633529
10.009497869018190385759 1962.50193901441821254 10.009497869018190385759 350.39671884592985407
11.009497869018190385759 1992.71581995719952829 11.009497869018190385759 350.42269565801842646
12.009497869018190385759 2020.04268715818966484 12.009497869018190385759 350.69265512820595632
13.009497869018190385759 2044.95914666168687290 13.009497869018190385759 350.81341066009201768
14.009497869018204596614 2067.87268027556365269 14.009497869018204596614 350.87241007540194460
15.009497869018190385759 2089.00838298542521443 15.009497869018190385759 351.09406184875354029
16.009497869018190385759 2108.59930784052176023 16.009497869018190385759 351.09540903898658826
17.009497869018190385759 2126.87272791421628426 17.009497869018190385759 350.83678501586103948
18.009497869018190385759 2143.94315665809654092 18.009497869018190385759 350.92906669875139869
19.009497869018204596614 2159.91693904371595636 19.009497869018204596614 350.91592448445243235
20.009497869018190385759 2174.93529456917576681 20.009497869018190385759 350.92159416503841385
21.009497869018204596614 2189.15050600834729266 21.009497869018204596614 350.72497027221891130
22.009497869018190385759 2202.59892181011400680 22.009497869018190385759 350.63447877281896581
23.009497869018190385759 2215.33366383890688667 23.009497869018190385759 351.12947976649195425
24.009497869018190385759 2227.39320350944808524 24.009497869018190385759 351.19057277478475498
25.009497869018190385759 2238.86398949442900630 25.009497869018190385759 351.18120103823508771
26.009497869018204596614 2249.84840818783141003 26.009497869018204596614 351.35570741986981602
27.009497869018190385759 2260.35806579665631943 27.009497869018190385759 351.24869040100890061
28.009497869018190385759 2270.40103997207415887 28.009497869018190385759 351.37356865708818532
29.009497869018190385759 2280.00767184711367008 29.009497869018190385759 351.77862742603747392
30.009497869018190385759 2289.19154291204813489 30.009497869018190385759 351.80084232070754524
31.009497869018190385759 2297.99958766763438689 31.009497869018190385759 351.67216936523198001
32.009497869018190385759 2306.48128014683516085 32.009497869018190385759 351.51215619533536483
33.009497869018190385759 2314.66019738163095099 33.009497869018190385759 351.37052079326377907
34.009497869018190385759 2322.53696818885373432 34.009497869018190385759 351.09368146915483067
35.009497869018190385759 2330.11779914711951278 35.009497869018190385759 351.02732505959659193
36.009497869018190385759 2337.42247700928555787 36.009497869018190385759 351.01761130463813743
37.009497869018190385759 2344.46224649420264541 37.009497869018190385759 350.88638712771069095
38.009497869018190385759 2351.24526737847281765 38.009497869018190385759 350.57559619853520871
39.009497869018190385759 2357.79933996213821956 39.009497869018190385759 350.08637361104393904
40.009497869018190385759 2364.14677898710988302 40.009497869018190385759 349.40553129591256720
41.009497869018190385759 2370.30565248109678578 41.009497869018190385759 349.01427184412165161
42.009497869018190385759 2376.27069526277500700 42.009497869018190385759 348.27715335728305490
43.009497869018190385759 2382.04610350169650701 43.009497869018190385759 347.78476432093020776
44.009497869018218807469 2387.63319101229944863 44.009497869018218807469 347.34643629490625472
46.009497869018190385759 2398.29009210978165356 46.009497869018190385759 346.15638554113837699
48.009497869018190385759 2408.25866742803282250 48.009497869018190385759 344.94017585704295925
50.009497869018190385759 2417.65161169066459479 50.009497869018190385759 343.86756268480894505
52.009497869018190385759 2426.56239868512420799 52.009497869018190385759 343.11094541591165807
54.009497869018190385759 2435.00602267732074324 54.009497869018190385759 342.39361454024799514
56.009497869018190385759 2443.00091167680284343 56.009497869018190385759 342.08020539415986150
58.009497869018218807469 2450.60293921995025812 58.009497869018218807469 341.79608665696196113
60.009497869018190385759 2457.90124475642687685 60.009497869018190385759 341.39462112245314529
62.009497869018190385759 2464.87211283888245816 62.009497869018190385759 340.93579154009955801
64.009497869018190385759 2471.53870003808515321 64.009497869018190385759 340.56220245069107477
66.009497869018190385759 2477.91651681870825996 66.009497869018190385759 340.15038572450322363
68.009497869018190385759 2484.01450800835937116 68.009497869018190385759 339.30201914673790498
70.009497869018190385759 2489.83253131489891530 70.009497869018190385759 338.64213355278542394
72.009497869018218807469 2495.40497945290280768 72.009497869018218807469 336.87868631882867021
74.009497869018190385759 2500.75867396669855225 74.009497869018190385759 335.32634673781660695
76.009497869018190385759 2505.91350700860903089 76.009497869018190385759 334.03113223509274121
78.009497869018190385759 2510.86117844354521367 78.009497869018190385759 332.33146724514307380
80.009497869018190385759 2515.60165489609198630 80.009497869018190385759 331.21159672082626457
82.009497869018218807469 2520.13958146168215535 82.009497869018218807469 330.17971417065615469
84.009497869018190385759 2524.49034127355480450 84.009497869018190385759 328.73134895147302359
86.009497869018190385759 2528.61833483095824704 86.009497869018190385759 327.14279135232726503
88.009497869018190385759 2532.56701828390214359 88.009497869018190385759 326.12167514845521055
91.009497869018218807469 2538.22731432112868788 91.009497869018218807469 325.22722800195998616
94.009497869018190385759 2543.64990986735119805 94.009497869018190385759 324.64798911387742919
97.009497869018190385759 2548.85328667448311535 97.009497869018190385759 324.62585920331662237
99.504748934509109403734 2553.01181978976546816 99.504748934509109403734 316.96806175553331286
nan nan nan nan

