Time Pressure difference Time.1 Pressure.1 difference.1
(hr) (psi) (hr) (psi)
0.000200000000006639311 0.41117602645789170 0.000200000000006639311 0.32836213204819559
0.000399999999999067768 0.82090171635502784 0.000399999999999067768 0.85385972105218932
0.000600000000005707079 1.22942915178415491 0.000600000000005707079 1.24666583695411171
0.000799999999998135536 1.63687489442414158 0.000799999999998135536 1.64502934084903130
0.001007140329434719206 2.05780433240755256 0.001007140329434719206 2.06162186152940885
0.001267914553963578328 2.58627695053916895 0.001267914553963578328 2.58759834695738666
0.001596209851982166583 3.24942177103172725 0.001596209851982166583 3.24588959493651918
0.002009509145210586212 4.08103965661470092 0.002009509145210586212 4.06885803966577786
0.002529822128138903281 5.12316117965211504 0.002529822128138903281 5.09632231961197757
0.003184857364445292660 6.42792138243067690 0.003184857364445292660 6.37705038320436834
0.004009497869020606231 8.05980464343320868 0.004009497869020606231 7.97043252283204584
0.005047658755842121536 10.09828896709185564 0.005047658755842121536 9.94829135613475835
0.006354625877804664924 12.64092294534294147 0.006354625877804664924 12.39674152937074680
0.008000000000009777068 15.80682428623029168 0.008000000000009777068 15.41793683377643376
0.010071403294347192059 19.74055803894912131 0.010071403294347192059 19.13145433994819911
0.012679145539692626699 24.61626756278004891 0.012679145539692626699 23.67487375799250060
0.015962098519750611558 30.64181216640895755 0.015962098519750611558 29.20298986022188359
0.020095091452091651263 38.06252455842429328 0.020095091452091651263 35.88487077825793392
0.025298221281346400247 47.16397819035627492 0.025298221281346400247 43.89763302392675115
0.031848573644282396344 58.27285602432082356 0.031848573644282396344 53.41556240397811450
0.040094978690191851456 71.75467774981837010 0.040094978690191851456 64.59294184809036210
0.050476587558421215363 88.00672068772912837 0.050476587558421215363 77.54029588361309777
0.063546258777947173257 107.44475686940720038 0.063546258777947173257 92.29078682574093762
0.079999999999998294697 130.48044019871190358 0.079999999999998294697 108.75952369297641553
0.100714032943542974863 157.48924277065088972 0.100714032943542974863 126.70110411840541076
0.126791455396897845276 188.76823565308279740 0.126791455396897845276 145.66366518367024696
0.159620985197506115583 224.48284319973132028 0.159620985197506115583 164.96898209718392536
0.200950914520774404082 264.61548598939896237 0.200950914520774404082 183.71764932895462152
0.252982212813464002465 308.91483776371188696 0.252982212813464002465 200.85500126222359540
0.318485736442795541734 356.87501715829711202 0.318485736442795541734 215.29559416739769517
0.400949786901819038576 407.74243224653889683 0.400949786901819038576 226.10098356601776004
0.504765875584169521062 460.57705223372931869 0.504765875584169521062 232.68132520507001004
0.635462587779443310865 514.35212359166541773 0.635462587779443310865 234.93942642083817418
0.799999999999997157829 568.08148246110067703 0.799999999999997157829 233.31567227614669946
1.007140329435330272645 620.93926223479149940 1.007140329435330272645 228.70271939555235008
1.267914553968893187630 672.34685971655358117 1.267914553968893187630 222.24751590247953459
1.596209851975103788391 722.00030693176267960 1.596209851975103788391 215.10311203104851074
2.009509145207687197399 769.84196108619585175 2.009509145207687197399 208.23728962442382340
2.529822128134711078928 815.99897520673391682 2.529822128134711078928 202.31359080179990428
3.184857364427983839050 860.69992046687923448 3.184857364427983839050 197.66754666592490253
4.009497869018190385759 904.20226845366573798 4.009497869018190385759 194.35839011353692740
5.009497869018190385759 945.34751472001357797 5.009497869018190385759 192.28951961721122643
6.009497869018190385759 978.41255894382720726 6.009497869018190385759 191.29616619490764151
7.009497869018204596614 1006.01880321812484453 7.009497869018204596614 190.84152424641769130
8.009497869018190385759 1029.67790255352133499 8.009497869018190385759 190.72706048029832004
9.009497869018204596614 1050.36144427317708505 9.009497869018204596614 190.76224966935046723
10.009497869018190385759 1068.68917471082181692 10.009497869018190385759 190.81009442105093399
11.009497869018190385759 1085.14227819451457435 11.009497869018190385759 190.82424020981201807
12.009497869018190385759 1100.02324548218234668 12.009497869018190385759 190.97124784209236736
13.009497869018190385759 1113.59161451874069826 13.009497869018190385759 191.03700580500060369
14.009497869018204596614 1126.06928133817814341 14.009497869018204596614 191.06913419947633770
15.009497869018190385759 1137.57882241780589538 15.009497869018190385759 191.18983566021233855
16.009497869018190385759 1148.24714783394733786 16.009497869018190385759 191.19056927865605644
17.009497869018190385759 1158.19802015130608197 17.009497869018190385759 191.04973441457778449
18.009497869018190385759 1167.49379818015154342 18.009497869018190385759 191.09998681615175542
19.009497869018204596614 1176.19239254855801846 19.009497869018204596614 191.09283016480085848
20.009497869018190385759 1184.37070496341266335 20.009497869018190385759 191.09591761462485238
21.009497869018204596614 1192.11166168771387674 21.009497869018204596614 190.98884519774298951
22.009497869018190385759 1199.43505643125013194 22.009497869018190385759 190.93956764856480390
23.009497869018190385759 1206.36981694197925208 23.009497869018190385759 191.20912264511937906
24.009497869018190385759 1212.93689300019468646 24.009497869018190385759 191.24239111498181387
25.009497869018190385759 1219.18336061577838336 25.009497869018190385759 191.23728769408842254
26.009497869018204596614 1225.16497475574965392 26.009497869018204596614 191.33231592171128455
27.009497869018190385759 1230.88805563184291714 27.009497869018190385759 191.27403932728205405
28.009497869018190385759 1236.35700196499101366 28.009497869018190385759 191.34204233801833084
29.009497869018190385759 1241.58833615436901709 29.009497869018190385759 191.56261889536693843
30.009497869018190385759 1246.58945406101634035 30.009497869018190385759 191.57471611523678234
31.009497869018190385759 1251.38591407643434650 31.009497869018190385759 191.50464668403722612
32.009497869018190385759 1256.00465750570219825 32.009497869018190385759 191.41751079944006619
33.009497869018190385759 1260.45852332663071138 33.009497869018190385759 191.34038261019313154
34.009497869018190385759 1264.74785396422726080 34.009497869018190385759 191.18962852280708375
35.009497869018190385759 1268.87602923853046377 35.009497869018190385759 191.15349384433477553
36.009497869018190385759 1272.85382411396744828 36.009497869018190385759 191.14820417579306877
37.009497869018190385759 1276.68736195228871111 37.009497869018190385759 191.07674546558504858
38.009497869018190385759 1280.38108619619811179 38.009497869018190385759 190.90750288039043880
39.009497869018190385759 1283.95013562294661824 39.009497869018190385759 190.64109454066749549
40.009497869018190385759 1287.40666182466384271 40.009497869018190385759 190.27033882450686519
41.009497869018190385759 1290.76050382633980007 41.009497869018190385759 190.05727674679889105
42.009497869018190385759 1294.00879445002578905 42.009497869018190385759 189.65587559059972023
43.009497869018190385759 1297.15381873854767036 43.009497869018190385759 189.38774294704120393
44.009497869018218807469 1300.19629213541065837 44.009497869018218807469 189.14904946752321280
46.009497869018190385759 1305.99955510928703006 46.009497869018190385759 188.50100202735259813
48.009497869018190385759 1311.42798721328517786 48.009497869018190385759 187.83870962512239089
50.009497869018190385759 1316.54295686125306020 50.009497869018190385759 187.25461334321281015
52.009497869018190385759 1321.39536562061221048 52.009497869018190385759 186.84259403836773572
54.009497869018190385759 1325.99337868566976795 54.009497869018190385759 186.45196831399644566
56.009497869018190385759 1330.34703111113026353 56.009497869018190385759 186.28129996711678018
58.009497869018218807469 1334.48674908017096641 58.009497869018218807469 186.12658184290006602
60.009497869018190385759 1338.46107387726237903 60.009497869018190385759 185.90796199737545180
62.009497869018190385759 1342.25709114988649162 62.009497869018190385759 185.65810430401461417
64.009497869018190385759 1345.88741091182873788 64.009497869018190385759 185.45466470087137623
66.009497869018190385759 1349.36047945573204743 66.009497869018190385759 185.23040806779877698
68.009497869018190385759 1352.68116772732446407 68.009497869018190385759 184.76842626802559266
70.009497869018190385759 1355.84939824078651327 70.009497869018190385759 184.40908262775445792
72.009497869018218807469 1358.88389970207572333 72.009497869018218807469 183.44878957956018439
74.009497869018190385759 1361.79927790265764997 74.009497869018190385759 182.60345614435556172
76.009497869018190385759 1364.60636520270782057 76.009497869018190385759 181.89814131613962900
78.009497869018190385759 1367.30064172668312494 78.009497869018190385759 180.97258117309772274
80.009497869018190385759 1369.88208929985194118 80.009497869018190385759 180.36275068955882261
82.009497869018218807469 1372.35323742962873439 82.009497869018218807469 179.80083444936721548
84.009497869018190385759 1374.72246306975739571 84.009497869018190385759 179.01212071614867227
86.009497869018190385759 1376.97038035349191887 86.009497869018190385759 178.14706459780197179
88.009497869018190385759 1379.12065352093668480 88.009497869018190385759 177.59101121945582236
91.009497869018218807469 1382.20299294714914140 91.009497869018218807469 177.10393604067130013
94.009497869018190385759 1385.15589151192398276 94.009497869018190385759 176.78850892339860934
97.009497869018190385759 1387.98941353560940115 97.009497869018190385759 176.77645798200410354
99.504748934509109403734 1390.25396127165436155 99.504748934509109403734 172.60637026291416873
nan nan nan nan

