Time Pressure difference Time.1 Pressure.1 difference.1
(hr) (psi) (hr) (psi)
0.000200000000006639311 0.66120427688986227 0.000200000000006639311 0.52803284264719941
0.000399999999999067768 1.32007629539111560 0.000399999999999067768 1.37307543021725786
0.000600000000005707079 1.97702142387916679 0.000600000000005707079 2.00473940649590476
0.000799999999998135536 2.63222710295276086 0.000799999999998135536 2.64534011174914907
0.001007140329434719206 3.30911565373012539 0.001007140329434719206 3.31525454904527139
0.001267914553963578328 4.15894232854379542 0.001267914553963578328 4.16106724076379830
0.001596209851982166583 5.22533278735606999 0.001596209851982166583 5.21965276276660450
0.002009509145210586212 6.56264154881879236 0.002009509145210586212 6.54305252439183782
0.002529822128138903281 8.23845716970319941 0.002529822128138903281 8.19529811396188812
0.003184857364445292660 10.33661701093902785 0.003184857364445292660 10.25481233339530718
0.004009497869020606231 12.96081716398552430 0.004009497869020606231 12.81709957206931172
0.005047658755842121536 16.23886468243457770 0.005047658755842121536 15.99765640299649938
0.006354625877804664924 20.32762558483430482 0.006354625877804664924 19.93496213611942380
0.008000000000009777068 25.41865077139255291 0.008000000000009777068 24.79328832259805893
0.010071403294347192059 31.74441252323939366 0.010071403294347192059 30.76492455474497589
0.012679145539692626699 39.58494743428872908 0.012679145539692626699 38.07111012396369887
0.015962098519750611558 49.27451006961924662 0.015962098519750611558 46.96076753280125615
0.020095091452091651263 61.20761524950654575 0.020095091452091651263 57.70577199897640241
0.025298221281346400247 75.84348816065372034 0.025298221281346400247 70.59094118595088219
0.031848573644282396344 93.70746140476640562 0.031848573644282396344 85.89654075467994687
0.040094978690191851456 115.38732017950589182 0.040094978690191851456 103.87067012339379346
0.050476587558421215363 141.52191852006544082 0.050476587558421215363 124.69106166334550778
0.063546258777947173257 172.77985145060227978 0.063546258777947173257 148.41104305715109035
0.079999999999998294697 209.82309171348421728 0.079999999999998294697 174.89410274668531997
0.100714032943542974863 253.25542877866283220 0.100714032943542974863 203.74561389545596057
0.126791455396897845276 303.55457692899784661 0.126791455396897845276 234.23894441656872800
0.159620985197506115583 360.98655189290127510 0.159620985197506115583 265.28345403910788036
0.200950914520774404082 425.52308454052842990 0.200950914520774404082 295.43282599161187818
0.252982212813464002465 496.76002193922153083 0.252982212813464002465 322.99107273682824371
0.318485736442795541734 573.88386597576663917 0.318485736442795541734 346.21271304494661081
0.400949786901819038576 655.68277993584842989 0.400949786901819038576 363.58865236070738547
0.504765875584169521062 740.64511833949200081 0.504765875584169521062 374.17037346108230622
0.635462587779443310865 827.11977854336498694 0.635462587779443310865 377.80158268886299311
0.799999999999997157829 913.52092937179008914 0.799999999999997157829 375.19045481174293855
1.007140329435330272645 998.52051058362428648 1.007140329435330272645 367.77245381587817974
1.267914553968893187630 1081.18808148358925791 1.267914553968893187630 357.39196496641159229
1.596209851975103788391 1161.03483700542051338 1.596209851975103788391 345.90318621558509449
2.009509145207687197399 1237.96808287800377002 2.009509145207687197399 334.86238897180072627
2.529822128134711078928 1312.19229144355608696 2.529822128134711078928 325.33660258228837847
3.184857364427983839050 1384.07502361946649216 3.184857364427983839050 317.86538817389129008
4.009497869018190385759 1454.03031452347067898 4.009497869018190385759 312.54399703106139441
5.009497869018190385759 1520.19519538814301995 5.009497869018190385759 309.21708609151545488
6.009497869018190385759 1573.36645842280086072 6.009497869018190385759 307.61969351746762413
7.009497869018204596614 1617.75953002348956034 7.009497869018204596614 306.88859252555243984
8.009497869018190385759 1655.80527360121800484 8.009497869018190385759 306.70452554003531986
9.009497869018204596614 1689.06608008373564189 9.009497869018204596614 306.76111259960191546
10.009497869018190385759 1718.53855165619052059 10.009497869018190385759 306.83805082657886487
11.009497869018190385759 1744.99647160168410664 11.009497869018190385759 306.86079839800078162
12.009497869018190385759 1768.92626950266071617 12.009497869018190385759 307.09719855011218215
13.009497869018190385759 1790.74530334730798131 13.009497869018190385759 307.20294266824339502
14.009497869018204596614 1810.81039988927227569 14.009497869018204596614 307.25460772279427601
15.009497869018190385759 1829.31867200923898054 15.009497869018190385759 307.44870542531111823
16.009497869018190385759 1846.47420136529717638 16.009497869018190385759 307.44988514305094895
17.009497869018190385759 1862.47600816250405842 17.009497869018190385759 307.22341130101801809
18.009497869018190385759 1877.42437040687013905 18.009497869018190385759 307.30422122354912062
19.009497869018204596614 1891.41241306798451660 19.009497869018204596614 307.29271274986160734
20.009497869018190385759 1904.56380030480090682 20.009497869018190385759 307.29767761866946785
21.009497869018204596614 1917.01188424933366150 21.009497869018204596614 307.12549652000689093
22.009497869018190385759 1928.78849478641427595 22.009497869018190385759 307.04625423890422553
23.009497869018190385759 1939.94015007235429948 23.009497869018190385759 307.47972045558589116
24.009497869018190385759 1950.50053904677724859 24.009497869018190385759 307.53321884348588355
25.009497869018190385759 1960.54536373769633428 25.009497869018190385759 307.52501213029165683
26.009497869018204596614 1970.16428263752891326 26.009497869018204596614 307.67782519935792607
27.009497869018190385759 1979.36745915746837454 27.009497869018190385759 307.58411172629598695
28.009497869018190385759 1988.16196679622794363 28.009497869018190385759 307.69346606275269096
29.009497869018190385759 1996.57437490682355019 29.009497869018190385759 308.04817099133754255
30.009497869018190385759 2004.61657663145251718 30.009497869018190385759 308.06762429844138751
31.009497869018190385759 2012.32967192897331188 31.009497869018190385759 307.95494699089624646
32.009497869018190385759 2019.75698459502837068 32.009497869018190385759 307.81482544718039662
33.009497869018190385759 2026.91916074343021137 33.009497869018190385759 307.69079708629033121
34.009497869018190385759 2033.81675102126223464 34.009497869018190385759 307.44837233162513712
35.009497869018190385759 2040.45519045226274102 35.009497869018190385759 307.39026484866764122
36.009497869018190385759 2046.85180604993547604 36.009497869018190385759 307.38175863420457290
37.009497869018190385759 2053.01644467479127343 37.009497869018190385759 307.26684725374883556
38.009497869018190385759 2058.95625174176529981 38.009497869018190385759 306.99469150058746436
39.009497869018190385759 2064.69557162801129380 39.009497869018190385759 306.56628536236627269
40.009497869018190385759 2070.25394507562077706 40.009497869018190385759 305.97008021072213069
41.009497869018190385759 2075.64719403185154079 41.009497869018190385759 305.62745917263015372
42.009497869018190385759 2080.87070784286970593 42.009497869018190385759 304.98197367700481664
43.009497869018190385759 2085.92816104218945839 43.009497869018190385759 304.55079471887836462
44.009497869018218807469 2090.82070412078155641 44.009497869018218807469 304.16695631545150036
46.009497869018190385759 2100.15281993331791455 46.009497869018190385759 303.12484366418721038
48.009497869018190385759 2108.88217741772723457 48.009497869018190385759 302.05982396282303171
50.009497869018190385759 2117.10746194253988506 50.009497869018190385759 301.12054994181289658
52.009497869018190385759 2124.91052734142931513 52.009497869018190385759 300.45798960513275233
54.009497869018190385759 2132.30450390665282612 54.009497869018190385759 299.82983187462860997
56.009497869018190385759 2139.30552881709036228 56.009497869018190385759 299.55538338146453725
58.009497869018218807469 2145.96252983397198477 58.009497869018218807469 299.30658413524935213
60.009497869018190385759 2152.35356526525401932 60.009497869018190385759 298.95502575739567419
62.009497869018190385759 2158.45786778850424525 62.009497869018190385759 298.55323439595082391
64.009497869018190385759 2164.29571532487989316 64.009497869018190385759 298.22608707453258603
66.009497869018190385759 2169.88069019548038341 66.009497869018190385759 297.86546428680367171
68.009497869018190385759 2175.22062527464686355 68.009497869018190385759 297.12256022090582519
70.009497869018190385759 2180.31539595892127181 70.009497869018190385759 296.54470660947993110
72.009497869018218807469 2185.19511952091352214 72.009497869018218807469 295.00047778854525404
74.009497869018190385759 2189.88328325356633286 74.009497869018190385759 293.64111331496371804
76.009497869018190385759 2194.39730646738507858 76.009497869018190385759 292.50691007605485083
78.009497869018190385759 2198.72992083725193879 78.009497869018190385759 291.01853457330463470
80.009497869018190385759 2202.88109713673156875 80.009497869018190385759 290.03787787654306385
82.009497869018218807469 2206.85490301815025305 82.009497869018218807469 289.13427115494204145
84.009497869018190385759 2210.66480930005445771 84.009497869018190385759 287.86595573748348897
86.009497869018190385759 2214.27964194218111516 86.009497869018190385759 286.47487559565729498
88.009497869018190385759 2217.73745495487992230 88.009497869018190385759 285.58069682967033032
91.009497869018218807469 2222.69410583016315286 91.009497869018218807469 284.79744058257443839
94.009497869018190385759 2227.44260534038676269 94.009497869018190385759 284.29020828893999351
97.009497869018190385759 2231.99913772594982220 97.009497869018190385759 284.27082940136415345
99.504748934509109403734 2235.64071347926619637 99.504748934509109403734 277.56499137228217933
nan nan nan nan

