Time Pressure difference Time.1 Pressure.1 difference.1
(hr) (psi) (hr) (psi)
0.000200000000006639311 0.73264091987042523 0.000200000000006639311 0.58508161710405759
0.000399999999999067768 1.46269760368714041 0.000399999999999067768 1.52142277569299189
0.000600000000005707079 2.19061921590631270 0.000600000000005707079 2.22133185493641694
0.000799999999998135536 2.91661344824665258 0.000799999999998135536 2.93114318914918304
0.001007140329434719206 3.66663317410800316 0.001007140329434719206 3.67343531690694602
0.001267914553963578328 4.60827529368797428 0.001267914553963578328 4.61062978185134398
0.001596209851982166583 5.78987879202016753 0.001596209851982166583 5.78358509643234253
0.002009509145210586212 7.27167066087710445 0.002009509145210586212 7.24996523431356898
0.002529822128138903281 9.12854173828922200 0.002529822128138903281 9.08071976949043247
0.003184857364445292660 11.45338719051284393 0.003184857364445292660 11.36274431916414684
0.004009497869020606231 14.36110645557189969 0.004009497869020606231 14.20186158613710248
0.005047658755842121536 17.99331488681821156 0.005047658755842121536 17.72604641638557155
0.006354625877804664924 22.52382633897469688 0.006354625877804664924 22.08873945233332847
0.008000000000009777068 28.16488691001034184 0.008000000000009777068 27.47196017654709976
0.010071403294347192059 35.17408523303662093 0.010071403294347192059 34.08877318754406360
0.012679145539692626699 43.86171311186263466 0.012679145539692626699 42.18432051424118612
0.015962098519750611558 54.59813804196505060 0.015962098519750611558 52.03441829639535143
0.020095091452091651263 67.82049830410146285 0.020095091452091651263 63.94031520489596687
0.025298221281346400247 84.03763386645300670 0.025298221281346400247 78.21760066081493790
0.031848573644282396344 103.83163437060801471 0.031848573644282396344 95.17682028345190304
0.040094978690191851456 127.85378944513091426 0.040094978690191851456 115.09287820205190656
0.050476587558421215363 156.81197504359005279 0.050476587558421215363 138.16270902898332906
0.063546258777947173257 191.44702133094375540 0.063546258777947173257 164.44540198041110557
0.079999999999998294697 232.49242071770484586 0.079999999999998294697 193.78969676203070094
0.100714032943542974863 280.61719620952339938 0.100714032943542974863 225.75833097461327270
0.126791455396897845276 336.35067443640213014 0.126791455396897845276 259.54616705453969416
0.159620985197506115583 399.98761151952129467 0.159620985197506115583 293.94473173680046330
0.200950914520774404082 471.49668412656541250 0.200950914520774404082 327.35144789522826159
0.252982212813464002465 550.43007456079578787 0.252982212813464002465 357.88709315814384126
0.318485736442795541734 635.88639420932940993 0.318485736442795541734 383.61760415281770520
0.400949786901819038576 726.52287927565100745 0.400949786901819038576 402.87084344490443755
0.504765875584169521062 820.66456579828127360 0.504765875584169521062 414.59581581994297039
0.635462587779443310865 916.48196567242212041 0.635462587779443310865 418.61934162258432934
0.799999999999997157829 1012.21791420341571666 0.799999999999997157829 415.72610696477050851
1.007140329435330272645 1106.40086725471951468 1.007140329435330272645 407.50666365025693949
1.267914553968893187630 1197.99985913131354209 1.267914553968893187630 396.00466469896355193
1.596209851975103788391 1286.47327416932239430 1.596209851975103788391 383.27463598259549826
2.009509145207687197399 1371.71840338994888953 2.009509145207687197399 371.04098878533699235
2.529822128134711078928 1453.96181036836242129 2.529822128134711078928 360.48603451957075094
3.184857364427983839050 1533.61076737734833841 3.184857364427983839050 352.20762860473888622
4.009497869018190385759 1611.12404197198611655 4.009497869018190385759 346.31131329321124213
5.009497869018190385759 1684.43738986475136699 5.009497869018190385759 342.62496222703094872
6.009497869018190385759 1743.35328684536489163 6.009497869018190385759 340.85498703819905586
7.009497869018204596614 1792.54259482502220635 7.009497869018204596614 340.04489774816238423
8.009497869018190385759 1834.69880818627416375 8.009497869018190385759 339.84094412853153244
9.009497869018204596614 1871.55311888675214504 9.009497869018204596614 339.90364486538811661
10.009497869018190385759 1904.20980221200989035 10.009497869018190385759 339.98889551387253505
11.009497869018190385759 1933.52624114658965482 11.009497869018190385759 340.01410073748326113
12.009497869018190385759 1960.04141922279745813 12.009497869018190385759 340.27604160954643930
13.009497869018190385759 1984.21778586975574399 13.009497869018190385759 340.39321034345562111
14.009497869018204596614 2006.45071947529936551 14.009497869018204596614 340.45045730088509117
15.009497869018190385759 2026.95862903536294652 15.009497869018190385759 340.66552535819653258
16.009497869018190385759 2045.96764523139722769 16.009497869018190385759 340.66683253287806110
17.009497869018190385759 2063.69829045141750612 17.009497869018190385759 340.41589041142952965
18.009497869018190385759 2080.26167675736087403 18.009497869018190385759 340.50543105423412271
19.009497869018204596614 2095.76099035924926284 19.009497869018204596614 340.49267920273609889
20.009497869018190385759 2110.33325611662576193 20.009497869018190385759 340.49818047696788881
21.009497869018204596614 2124.12623355265350256 21.009497869018204596614 340.30739689779659329
22.009497869018190385759 2137.17519145931828461 22.009497869018190385759 340.21959326471539953
23.009497869018190385759 2149.53167382388983242 23.009497869018190385759 340.69989125857631507
24.009497869018190385759 2161.23300934580083776 24.009497869018190385759 340.75916962305848301
25.009497869018190385759 2172.36307891538672266 25.009497869018190385759 340.75007625492116858
26.009497869018204596614 2183.02122774660847426 26.009497869018204596614 340.91939927868554605
27.009497869018190385759 2193.21871730764678432 27.009497869018190385759 340.81556098315712688
28.009497869018190385759 2202.96338531943865746 28.009497869018190385759 340.93672998410534092
29.009497869018190385759 2212.28467169323903363 29.009497869018190385759 341.32975730447196838
30.009497869018190385759 2221.19575450871980138 30.009497869018190385759 341.35131235078557665
31.009497869018190385759 2229.74217417255567852 31.009497869018190385759 341.22646136428448926
32.009497869018190385759 2237.97193519197844580 32.009497869018190385759 341.07120106082044231
33.009497869018190385759 2245.90791429108776356 33.009497869018190385759 340.93377265088957984
34.009497869018190385759 2253.55072160898680522 34.009497869018190385759 340.66515627700175628
35.009497869018190385759 2260.90637937047222294 35.009497869018190385759 340.60077084990558660
36.009497869018190385759 2267.99408660306880847 36.009497869018190385759 340.59134562232219423
37.009497869018190385759 2274.82475402407817455 37.009497869018190385759 340.46401919322420326
38.009497869018190385759 2281.40629904049865218 38.009497869018190385759 340.16245967778661452
39.009497869018190385759 2287.76569620088685042 39.009497869018190385759 339.68776845428027400
40.009497869018190385759 2293.92459743303743380 40.009497869018190385759 339.02714917821219842
41.009497869018190385759 2299.90053409056918099 41.009497869018190385759 338.64751129429623688
42.009497869018190385759 2305.68839738368251346 42.009497869018190385759 337.93228741597761200
43.009497869018190385759 2311.29225884323022910 43.009497869018190385759 337.45452379654614106
44.009497869018218807469 2316.71339325945928067 44.009497869018218807469 337.02921541485949319
46.009497869018190385759 2327.05375274018388154 46.009497869018190385759 335.87451270328278952
48.009497869018190385759 2336.72623176185334160 48.009497869018190385759 334.69442805930896156
50.009497869018190385759 2345.84017768005105609 50.009497869018190385759 333.65367468427007225
52.009497869018190385759 2354.48628783309095525 52.009497869018190385759 332.91953119563703467
54.009497869018190385759 2362.67911111264811552 54.009497869018190385759 332.22350717766636308
56.009497869018190385759 2370.43652816165058539 56.009497869018190385759 331.91940721413533311
58.009497869018218807469 2377.81275290648636656 58.009497869018218807469 331.64372764734918064
60.009497869018190385759 2384.89427709039409820 60.009497869018190385759 331.25418683168720690
62.009497869018190385759 2391.65808968525197997 62.009497869018190385759 330.80898585078972474
64.009497869018190385759 2398.12665944289437903 64.009497869018190385759 330.44649346700720116
66.009497869018190385759 2404.31503612112237533 66.009497869018190385759 330.04690892080503772
68.009497869018190385759 2410.23189885959664025 68.009497869018190385759 329.22374135030014486
70.009497869018190385759 2415.87710959267405997 70.009497869018190385759 328.58345631854433577
72.009497869018218807469 2421.28403946915341294 72.009497869018218807469 326.87238870539812297
74.009497869018190385759 2426.47871335382615143 74.009497869018190385759 325.36615822085178706
76.009497869018190385759 2431.48043254300682747 76.009497869018190385759 324.10941543603064474
78.009497869018190385759 2436.28114344027153493 78.009497869018190385759 322.46023554479228324
80.009497869018190385759 2440.88081366155438445 80.009497869018190385759 321.37362850139572856
82.009497869018218807469 2445.28395032915659613 82.009497869018218807469 320.37239592796339593
84.009497869018190385759 2449.50547965156783903 84.009497869018190385759 318.96705145786489766
86.009497869018190385759 2453.51085953894926206 86.009497869018190385759 317.42567873790170552
88.009497869018190385759 2457.34225536457825001 88.009497869018190385759 316.43489271830310372
91.009497869018218807469 2462.83442379673851974 91.009497869018218807469 315.56701330883248602
94.009497869018190385759 2468.09595214851924538 94.009497869018190385759 315.00497953623749936
97.009497869018190385759 2473.14477320890409828 97.009497869018190385759 314.98350694975283659
99.504748934509109403734 2477.17978553858438318 99.504748934509109403734 307.55316883210161905
nan nan nan nan

