Time Pressure difference Time.1 Pressure.1 difference.1
(hr) (psi) (hr) (psi)
0.000200000000006639311 0.40536141598272962 0.000200000000006639311 0.32371862715054434
0.000399999999999067768 0.80929300521465375 0.000399999999999067768 0.84178493711811786
0.000600000000005707079 1.21204328499124792 0.000600000000005707079 1.22903621905779081
0.000799999999998135536 1.61372716864440613 0.000799999999998135536 1.62176629966530750
0.001007140329434719206 2.02870406912098122 0.001007140329434719206 2.03246761298252832
0.001267914553963578328 2.54970333709720087 0.001267914553963578328 2.55100604710142420
0.001596209851982166583 3.20347035204743991 0.001596209851982166583 3.19998812591721471
0.002009509145210586212 4.02332798470297881 0.002009509145210586212 4.01131863304424208
0.002529822128138903281 5.05071243569743800 0.002529822128138903281 5.02425311509221295
0.003184857364445292660 6.33702148409327393 0.003184857364445292660 6.28686987273481179
0.004009497869020606231 7.94582760807152688 0.004009497869020606231 7.85771933564048286
0.005047658755842121536 9.95548488068853388 0.005047658755842121536 9.80760844806820664
0.006354625877804664924 12.46216241884314258 0.006354625877804664924 12.22143407339984833
0.008000000000009777068 15.58329343773814735 0.008000000000009777068 15.19990540380383592
0.010071403294347192059 19.46139863233771905 0.010071403294347192059 18.86090852099943760
0.012679145539692626699 24.26815872855891953 0.012679145539692626699 23.34007756343503104
0.015962098519750611558 30.20849361052034254 0.015962098519750611558 28.79001828644096861
0.020095091452091651263 37.52426663537586649 0.020095091452091651263 35.37740795917145675
0.025298221281346400247 46.49701284220982700 0.025298221281346400247 43.27685841550757573
0.031848573644282396344 57.44879543407790123 0.031848573644282396344 52.66019081442690464
0.040094978690191851456 70.73996513517447227 0.040094978690191851456 63.67950630680423529
0.050476587558421215363 86.76218120325617633 0.050476587558421215363 76.44376644687514499
0.063546258777947173257 105.92533606519336331 0.063546258777947173257 90.98566458780116761
0.079999999999998294697 128.63526225650790025 0.079999999999998294697 107.22151022661108755
0.100714032943542974863 155.26212216581339476 0.100714032943542974863 124.90937133289260430
0.126791455396897845276 186.09878585596851508 0.126791455396897845276 143.60377496895168292
0.159620985197506115583 221.30833834640179703 0.159620985197506115583 162.63608740086013427
0.200950914520774404082 260.87344881379129902 0.200950914520774404082 181.11962196470679487
0.252982212813464002465 304.54634510846750572 0.252982212813464002465 198.01462750700022752
0.318485736442795541734 351.82829974393735029 0.318485736442795541734 212.25101000745470969
0.400949786901819038576 401.97637764911303293 0.400949786901819038576 222.90359591962962327
0.504765875584169521062 454.06384139406043232 0.504765875584169521062 229.39088222237205628
0.635462587779443310865 507.07845719743994550 0.635462587779443310865 231.61705069367476995
0.799999999999997157829 560.04800695154972345 0.799999999999997157829 230.01625872880723023
1.007140329435330272645 612.15830297086517930 1.007140329435330272645 225.46853952531222376
1.267914553968893187630 662.83892432662253213 1.267914553968893187630 219.10462173820206999
1.596209851975103788391 711.79020158121250006 1.596209851975103788391 212.06124984071044537
2.009509145207687197399 758.95530709103752542 2.009509145207687197399 205.29251987215923236
2.529822128134711078928 804.45959575936603869 2.529822128134711078928 199.45259052783507059
3.184857364427983839050 848.52840644007494575 3.184857364427983839050 194.87224802620474406
4.009497869018190385759 891.41556970785620706 4.009497869018190385759 191.60988762708285549
5.009497869018190385759 931.97896400680133411 5.009497869018190385759 189.57027388525068545
6.009497869018190385759 964.57642174664181312 6.009497869018190385759 188.59096788508063014
7.009497869018204596614 991.79227468776730348 7.009497869018204596614 188.14275521667033786
8.009497869018190385759 1015.11680090124934850 8.009497869018190385759 188.02991013007189736
9.009497869018204596614 1035.50784809153628885 9.009497869018204596614 188.06460169422831541
10.009497869018190385759 1053.57639850279019811 10.009497869018190385759 188.11176985348052426
11.009497869018190385759 1069.79683183620818454 11.009497869018190385759 188.12571560078438893
12.009497869018190385759 1084.46736120263631165 12.009497869018190385759 188.27064433725468007
13.009497869018190385759 1097.84385431342502670 13.009497869018190385759 188.33547238957635273
14.009497869018204596614 1110.14506927885031473 14.009497869018204596614 188.36714644312010591
15.009497869018190385759 1121.49184917149341345 15.009497869018190385759 188.48614101451235570
16.009497869018190385759 1132.00930937972998436 16.009497869018190385759 188.48686425855385096
17.009497869018190385759 1141.81946229058053177 17.009497869018190385759 188.34802099861406077
18.009497869018190385759 1150.98378487255354230 18.009497869018190385759 188.39756276016578340
19.009497869018204596614 1159.55936881554816864 19.009497869018204596614 188.39050731398546645
20.009497869018190385759 1167.62202832756634052 20.009497869018190385759 188.39355110290290440
21.009497869018204596614 1175.25351697697851705 21.009497869018204596614 188.28799284141126691
22.009497869018190385759 1182.47334856252518875 22.009497869018190385759 188.23941214646384879
23.009497869018190385759 1189.31004175290058811 23.009497869018190385759 188.50515525417830531
24.009497869018190385759 1195.78425006887869131 24.009497869018190385759 188.53795326083053396
25.009497869018190385759 1201.94238379898956737 25.009497869018190385759 188.53292200952554936
26.009497869018204596614 1207.83940945617337093 26.009497869018204596614 188.62660640362645381
27.009497869018190385759 1213.48155787543282713 27.009497869018190385759 188.56915392265383957
28.009497869018190385759 1218.87316557356689373 28.009497869018190385759 188.63619527465240822
29.009497869018190385759 1224.03052129966067696 29.009497869018190385759 188.85365256755363816
30.009497869018190385759 1228.96091632682009731 30.009497869018190385759 188.86557871562737887
31.009497869018190385759 1233.68954761474742554 31.009497869018190385759 188.79650016527304501
32.009497869018190385759 1238.24297548036906846 32.009497869018190385759 188.71059650530656882
33.009497869018190385759 1242.63385734019357187 33.009497869018190385759 188.63455901772576340
34.009497869018190385759 1246.86253077685432800 34.009497869018190385759 188.48593680632293967
35.009497869018190385759 1250.93232781495521522 35.009497869018190385759 188.45031312330380047
36.009497869018190385759 1254.85387104568894756 36.009497869018190385759 188.44509825815555359
37.009497869018190385759 1258.63319723781182802 37.009497869018190385759 188.37465007516260584
38.009497869018190385759 1262.27468699746395941 38.009497869018190385759 188.20780081945562756
39.009497869018190385759 1265.79326501817763528 39.009497869018190385759 187.94515987039542892
40.009497869018190385759 1269.20091105138567400 40.009497869018190385759 187.57964716436231356
41.009497869018190385759 1272.50732498435127127 41.009497869018190385759 187.36959808573305963
42.009497869018190385759 1275.70968018507619490 42.009497869018190385759 186.97387330952054185
43.009497869018190385759 1278.81022938264891309 43.009497869018190385759 186.70953244071938570
44.009497869018218807469 1281.80967790319300548 44.009497869018218807469 186.47421442454813700
46.009497869018190385759 1287.53087453198418189 46.009497869018190385759 185.83533129161227748
48.009497869018190385759 1292.88254092946090168 48.009497869018190385759 185.18240464052468042
50.009497869018190385759 1297.92517767331628420 50.009497869018190385759 184.60656830603605272
52.009497869018190385759 1302.70896651082580320 52.009497869018190385759 184.20037553681504505
54.009497869018190385759 1307.24195716890289987 54.009497869018190385759 183.81527381258638343
56.009497869018190385759 1311.53404279238702657 56.009497869018190385759 183.64701895748078186
58.009497869018218807469 1315.61521929519881269 58.009497869018218807469 183.49448876633380223
60.009497869018190385759 1319.53334151940202901 60.009497869018190385759 183.27896051458426996
62.009497869018190385759 1323.27567773968621623 62.009497869018190385759 183.03263616234170286
64.009497869018190385759 1326.85465964640889069 64.009497869018190385759 182.83207348287925242
66.009497869018190385759 1330.27861408969147305 66.009497869018190385759 182.61098815572890430
68.009497869018190385759 1333.55234313320056572 68.009497869018190385759 182.15553943191210351
70.009497869018190385759 1336.67577038687659297 70.009497869018190385759 181.80127741887713455
72.009497869018218807469 1339.66735970628883479 72.009497869018218807469 180.85456427237446064
74.009497869018190385759 1342.54151033635730528 74.009497869018190385759 180.02118504736469617
76.009497869018190385759 1345.30890145236639910 76.009497869018190385759 179.32584436823461260
78.009497869018190385759 1347.96507709620459536 78.009497869018190385759 178.41337295448826694
80.009497869018190385759 1350.51001935015710842 80.009497869018190385759 177.81216633637316704
82.009497869018218807469 1352.94622195082592953 82.009497869018218807469 177.25819638644688325
84.009497869018190385759 1355.28194338998309831 84.009497869018190385759 176.48063618076878356
86.009497869018190385759 1357.49807194445270397 86.009497869018190385759 175.62781317924719815
88.009497869018190385759 1359.61793720851960643 88.009497869018190385759 175.07962318200895879
91.009497869018218807469 1362.65668799638137898 91.009497869018218807469 174.59943593504561932
94.009497869018190385759 1365.56782839963420884 94.009497869018190385759 174.28846940326974391
97.009497869018190385759 1368.36128041490383112 97.009497869018190385759 174.27658887922831354
99.504748934509109403734 1370.59380424357050288 99.504748934509109403734 170.16547209758005010
nan nan nan nan

