Time Pressure difference Time.1 Pressure.1 difference.1
(hr) (psi) (hr) (psi)
0.000200000000006639311 0.42197458876890703 0.000200000000006639311 0.33698578400097645
0.000399999999999067768 0.84246075133000831 0.000399999999999067768 0.87628431978689336
0.000600000000005707079 1.26171719011383998 0.000600000000005707079 1.27940655590442165
0.000799999999998135536 1.67986352801507866 0.000799999999998135536 1.68823213161880381
0.001007140329434719206 2.11184767851118504 0.001007140329434719206 2.11576546597361537
0.001267914553963578328 2.65419937550282414 0.001267914553963578328 2.65555547526131797
0.001596209851982166583 3.33476012057397453 0.001596209851982166583 3.33113518025808419
0.002009509145210586212 4.18821847587932972 0.002009509145210586212 4.17571693767720298
0.002529822128138903281 5.25770884699651386 0.002529822128138903281 5.23016512800582767
0.003184857364445292660 6.59673547934299886 0.003184857364445292660 6.54452847407640270
0.004009497869020606231 8.27147628053347539 0.004009497869020606231 8.17975701333066674
0.005047658755842121536 10.36349655612658971 0.005047658755842121536 10.20955961397264034
0.006354625877804664924 12.97290678027114019 0.006354625877804664924 12.72231251903098936
0.008000000000009777068 16.22195300485856606 0.008000000000009777068 15.82285234658268180
0.010071403294347192059 20.25899693694172754 0.010071403294347192059 19.63389657513875619
0.012679145539692626699 25.26275539776215240 0.012679145539692626699 24.29663811931352058
0.015962098519750611558 31.44654662734494721 0.015962098519750611558 29.96993706867215579
0.020095091452091651263 39.06214641551422773 0.020095091452091651263 36.82730172798996193
0.025298221281346400247 48.40262812262825776 0.025298221281346400247 45.05050015384805562
0.031848573644282396344 59.80325426334339056 0.031848573644282396344 54.81839535600177271
0.040094978690191851456 73.63914403415702736 0.040094978690191851456 66.28932213905031290
0.050476587558421215363 90.31800830175029660 0.050476587558421215363 79.57670769469788752
0.063546258777947173257 110.26653836294718758 0.063546258777947173257 94.71458526762907582
0.079999999999998294697 133.90719923423364435 0.079999999999998294697 111.61583441622630630
0.100714032943542974863 161.62532389392049481 0.100714032943542974863 130.02860786292919215
0.126791455396897845276 193.72578527629508471 0.126791455396897845276 149.48917558243329040
0.159620985197506115583 230.37835221305761024 0.159620985197506115583 169.30150081892816161
0.200950914520774404082 271.56498360124174951 0.200950914520774404082 188.54255729112918516
0.252982212813464002465 317.02775269488012100 0.252982212813464002465 206.12998109335268282
0.318485736442795541734 366.24749235639376366 0.318485736442795541734 220.94982189300611708
0.400949786901819038576 418.45081935604395085 0.400949786901819038576 232.03898919502429976
0.504765875584169521062 472.67301522168583006 0.504765875584169521062 238.79214788722336493
0.635462587779443310865 527.86036118094148151 0.635462587779443310865 241.10955277128442731
0.799999999999997157829 583.00079412169520765 0.799999999999997157829 239.44315457834849781
1.007140329435330272645 637.24675801065473024 1.007140329435330272645 234.70905344028403761
1.267914553968893187630 690.00445401213983132 1.267914553968893187630 228.08431935042347050
1.596209851975103788391 740.96193115421294806 1.596209851975103788391 220.75228467024774659
2.009509145207687197399 790.06003279148990259 2.009509145207687197399 213.70614773577236178
2.529822128134711078928 837.42925132327445681 2.529822128134711078928 207.62687702487750130
3.184857364427983839050 883.30416080237296228 3.184857364427983839050 202.85881556826231531
4.009497869018190385759 927.94899469588324337 4.009497869018190385759 199.46275187409446517
5.009497869018190385759 970.17482318740792380 5.009497869018190385759 197.33954740513800630
6.009497869018190385759 1004.10824231002868601 6.009497869018190385759 196.32010591315773240
7.009497869018204596614 1032.43949906021703100 7.009497869018204596614 195.85352387309129085
8.009497869018190385759 1056.71994847916926119 8.009497869018190385759 195.73605398786170895
9.009497869018204596614 1077.94669432479599891 9.009497869018204596614 195.77216733743443910
10.009497869018190385759 1096.75575909716690148 10.009497869018190385759 195.82126861796740513
11.009497869018190385759 1113.64096428851189557 11.009497869018190385759 195.83578591229195354
12.009497869018190385759 1128.91274485848202858 12.009497869018190385759 195.98665435107662347
13.009497869018190385759 1142.83745490004071144 13.009497869018190385759 196.05413929078849833
14.009497869018204596614 1155.64281801978677322 14.009497869018204596614 196.08711146128075598
15.009497869018190385759 1167.45462987524319942 15.009497869018190385759 196.21098285936940897
16.009497869018190385759 1178.40313353463716339 16.009497869018190385759 196.21173574456017263
17.009497869018190385759 1188.61534189265330497 17.009497869018190385759 196.06720218708184689
18.009497869018190385759 1198.15525146569098069 18.009497869018190385759 196.11877434869717263
19.009497869018204596614 1207.08229376700523972 19.009497869018204596614 196.11142974488652158
20.009497869018190385759 1215.47539014426979520 20.009497869018190385759 196.11459827925136779
21.009497869018204596614 1223.41964472193649272 21.009497869018204596614 196.00471385950189074
22.009497869018190385759 1230.93537104459619513 22.009497869018190385759 195.95414215246648837
23.009497869018190385759 1238.05225657883920576 23.009497869018190385759 196.23077637115281391
24.009497869018190385759 1244.79180130120971626 24.009497869018190385759 196.26491855840558287
25.009497869018190385759 1251.20231756124326239 25.009497869018190385759 196.25968110827659530
26.009497869018204596614 1257.34102459781979633 26.009497869018204596614 196.35720502672592147
27.009497869018190385759 1263.21440860803249961 27.009497869018190385759 196.29739793587734198
28.009497869018190385759 1268.82698383477872994 28.009497869018190385759 196.36718688426930157
29.009497869018190385759 1274.19570659882720065 29.009497869018190385759 196.59355636130587186
30.009497869018190385759 1279.32816699595218779 30.009497869018190385759 196.60597128594000083
31.009497869018190385759 1284.25059464813875820 31.009497869018190385759 196.53406164745638307
32.009497869018190385759 1288.99063840989242635 32.009497869018190385759 196.44463734568799396
33.009497869018190385759 1293.56147444429984716 33.009497869018190385759 196.36548356763253764
34.009497869018190385759 1297.96345416934832429 34.009497869018190385759 196.21077028199192682
35.009497869018190385759 1302.20004616802702913 35.009497869018190385759 196.17368661196377388
36.009497869018190385759 1306.28230838362696886 36.009497869018190385759 196.16825802283409530
37.009497869018190385759 1310.21652499345987053 37.009497869018190385759 196.09492261922665080
38.009497869018190385759 1314.00725613670419989 38.009497869018190385759 195.92123527926938209
39.009497869018190385759 1317.67003817466047622 39.009497869018190385759 195.64783035688702739
40.009497869018190385759 1321.21734183218018188 40.009497869018190385759 195.26733762191815913
41.009497869018190385759 1324.65926453289011988 41.009497869018190385759 195.04867997449261452
42.009497869018190385759 1327.99286379921863954 42.009497869018190385759 194.63673696974677796
43.009497869018190385759 1331.22048468521666109 43.009497869018190385759 194.36156245878166260
44.009497869018218807469 1334.34286142381552054 44.009497869018218807469 194.11660026161976589
46.009497869018190385759 1340.29853332427842361 46.009497869018190385759 193.45153339372751589
48.009497869018190385759 1345.86953031181587903 48.009497869018190385759 192.77184745366093921
50.009497869018190385759 1351.11883249599281953 50.009497869018190385759 192.17241126939819651
52.009497869018190385759 1356.09867825307287603 52.009497869018190385759 191.74957125553697779
54.009497869018190385759 1360.81744721680865950 54.009497869018190385759 191.34868667375795326
56.009497869018190385759 1365.28543798879650240 56.009497869018190385759 191.17353612786934036
58.009497869018218807469 1369.53387582369055053 58.009497869018218807469 191.01475469938026208
60.009497869018190385759 1373.61257682757423026 60.009497869018190385759 190.79039332255905492
62.009497869018190385759 1377.50828748311573690 62.009497869018190385759 190.53397370997865323
64.009497869018190385759 1381.23394897617959032 64.009497869018190385759 190.32519124857103066
66.009497869018190385759 1384.79822942123610119 66.009497869018190385759 190.09504504735713226
68.009497869018190385759 1388.20612768784008040 68.009497869018190385759 189.62093039223637447
70.009497869018190385759 1391.45756425519107324 70.009497869018190385759 189.25214944424095620
72.009497869018218807469 1394.57175969425156836 72.009497869018218807469 188.26663657861931256
74.009497869018190385759 1397.56370338292936140 74.009497869018190385759 187.39910246733865051
76.009497869018190385759 1400.44451216762740842 76.009497869018190385759 186.67526421939177794
78.009497869018190385759 1403.20954746899997190 78.009497869018190385759 185.72539643622957328
80.009497869018190385759 1405.85879063499965014 80.009497869018190385759 185.09955020261796221
82.009497869018218807469 1408.39483760454822914 82.009497869018218807469 184.52287656621928136
84.009497869018190385759 1410.82628533219553901 84.009497869018190385759 183.71344913899702078
86.009497869018190385759 1413.13323882742201931 86.009497869018190385759 182.82567437511798403
88.009497869018190385759 1415.33998381542596690 88.009497869018190385759 182.25501757471423048
91.009497869018218807469 1418.50327357000355732 91.009497869018218807469 181.75515052254749548
94.009497869018190385759 1421.53372300617661494 94.009497869018190385759 181.43143946078080830
97.009497869018190385759 1424.44166075977705077 97.009497869018190385759 181.41907203001633775
99.504748934509109403734 1426.76568146666772918 99.504748934509109403734 177.13946685567756845
nan nan nan nan

