Time Pressure difference Time.1 Pressure.1 difference.1
(hr) (psi) (hr) (psi)
0.000200000000006639311 0.55487997105832665 0.000200000000006639311 0.44312303880443360
0.000399999999999067768 1.10780272025284554 0.000399999999999067768 1.15227938113709572
0.000600000000005707079 1.65910843109457695 0.000600000000005707079 1.68236925067746768
0.000799999999998135536 2.20895440298045731 0.000799999999998135536 2.21995878724677365
0.001007140329434719206 2.77699655363281872 0.001007140329434719206 2.78214828990231311
0.001267914553963578328 3.49016768274780809 0.001267914553963578328 3.49195090054047386
0.001596209851982166583 4.38507826878624929 0.001596209851982166583 4.38031161498503963
0.002009509145210586212 5.50734240529014230 0.002009509145210586212 5.49090337474088841
0.002529822128138903281 6.91368013738911635 0.002529822128138903281 6.87746123131474985
0.003184857364445292660 8.67444744134079393 0.003184857364445292660 8.60579728480912820
0.004009497869020606231 10.87666566022905812 0.004009497869020606231 10.75605843485213597
0.005047658755842121536 13.62758995963102748 0.005047658755842121536 13.42516894120811877
0.006354625877804664924 17.05886167169511936 0.006354625877804664924 16.72934008408012119
0.008000000000009777068 21.33122954182189090 0.008000000000009777068 20.80642788881344885
0.010071403294347192059 26.63978337377376704 0.010071403294347192059 25.81780100825332269
0.012679145539692626699 33.21952875138802597 0.012679145539692626699 31.94912256634139780
0.015962098519750611558 41.35097076194178101 0.015962098519750611558 39.40928732652165678
0.020095091452091651263 51.36518465662106081 0.020095091452091651263 48.42645187853798205
0.025298221281346400247 63.64755036597573934 0.025298221281346400247 59.23963406057185210
0.031848573644282396344 78.63892489746729098 0.031848573644282396344 72.08403168860075994
0.040094978690191851456 96.83257522601751077 0.040094978690191851456 87.16784879701890532
0.050476587558421215363 118.76462508970313081 0.050476587558421215363 104.64023767727989878
0.063546258777947173257 144.99615674497778173 0.063546258777947173257 124.54595070625239828
0.079999999999998294697 176.08269505603951188 0.079999999999998294697 146.77042793314797109
0.100714032943542974863 212.53093771877735207 0.100714032943542974863 170.98250010322183812
0.126791455396897845276 254.74178063890769863 0.126791455396897845276 196.57238049028632076
0.159620985197506115583 302.93846314630405914 0.159620985197506115583 222.62480816347246559
0.200950914520774404082 357.09726190084546715 0.200950914520774404082 247.92603990250844959
0.252982212813464002465 416.87901338618092950 0.252982212813464002465 271.05280978417243887
0.318485736442795541734 481.60103325604541169 0.318485736442795541734 290.54031697741748985
0.400949786901819038576 550.24635301149078259 0.400949786901819038576 305.12213539818156960
0.504765875584169521062 621.54640584268918246 0.504765875584169521062 314.00227320603391945
0.635462587779443310865 694.11559304895467903 0.635462587779443310865 317.04956939216140199
0.799999999999997157829 766.62309148285908122 0.799999999999997157829 314.85832137467878056
1.007140329435330272645 837.95439832897113774 1.007140329435330272645 308.63316476005854838
1.267914553968893187630 907.32869149627833849 1.267914553968893187630 299.92190024819461769
1.596209851975103788391 974.33576773821710049 1.596209851975103788391 290.28056330654624162
2.009509145207687197399 1038.89783839510869257 2.009509145207687197399 281.01517064467702767
2.529822128134711078928 1101.18649583454202912 2.529822128134711078928 273.02116900121689014
3.184857364427983839050 1161.51019570075823140 3.184857364427983839050 266.75135590472285685
4.009497869018190385759 1220.21639460009851064 4.009497869018190385759 262.28566585018717205
5.009497869018190385759 1275.74169663226098237 5.009497869018190385759 259.49373556423660148
6.009497869018190385759 1320.36280681712423757 6.009497869018190385759 258.15321013777435155
7.009497869018204596614 1357.61729403981257747 7.009497869018204596614 257.53967312445860216
8.009497869018190385759 1389.54512910252969959 8.009497869018190385759 257.38520485018034378
9.009497869018204596614 1417.45746419087345203 9.009497869018204596614 257.43269248308303077
10.009497869018190385759 1442.19064385217984636 10.009497869018190385759 257.49725873386267949
11.009497869018190385759 1464.39402390694067435 11.009497869018190385759 257.51634840435241358
12.009497869018190385759 1484.47581410524799139 12.009497869018190385759 257.71473446165191490
13.009497869018190385759 1502.78625959296687142 13.009497869018190385759 257.80347450048566316
14.009497869018204596614 1519.62480794727889588 14.009497869018204596614 257.84683160656601331
15.009497869018190385759 1535.15687550524080507 15.009497869018190385759 258.00971761822592043
16.009497869018190385759 1549.55372677389277669 16.009497869018190385759 258.01070763261060392
17.009497869018190385759 1562.98237870923708215 17.009497869018190385759 257.82065169482416422
18.009497869018190385759 1575.52698421079048785 18.009497869018190385759 257.88846705694828643
19.009497869018204596614 1587.26569337866021669 19.009497869018204596614 257.87880919209487729
20.009497869018190385759 1598.30228467789811475 20.009497869018190385759 257.88297569003924536
21.009497869018204596614 1608.74866668160166228 21.009497869018204596614 257.73848200422690979
22.009497869018190385759 1618.63155090116174506 22.009497869018190385759 257.67198220048737767
23.009497869018190385759 1627.98997518634769222 23.009497869018190385759 258.03574530694896794
24.009497869018190385759 1636.85221115985859797 24.009497869018190385759 258.08064093900571834
25.009497869018190385759 1645.28178765927236782 25.009497869018190385759 258.07375389828496282
26.009497869018204596614 1653.35394573099142690 26.009497869018204596614 258.20199401152149221
27.009497869018190385759 1661.07721446883010685 27.009497869018190385759 258.12335004166544650
28.009497869018190385759 1668.45752992447273755 28.009497869018190385759 258.21511976120450527
29.009497869018190385759 1675.51718899215848069 29.009497869018190385759 258.51278671132342879
30.009497869018190385759 1682.26617234900777476 30.009497869018190385759 258.52911184844077752
31.009497869018190385759 1688.73897091526919212 31.009497869018190385759 258.43455350492297384
32.009497869018190385759 1694.97194184607906209 32.009497869018190385759 258.31696406873930982
33.009497869018190385759 1700.98241127715004950 33.009497869018190385759 258.21287996688687372
34.009497869018190385759 1706.77084130930052197 34.009497869018190385759 258.00943808734371032
35.009497869018190385759 1712.34179299260244989 35.009497869018190385759 257.96067452124367492
36.009497869018190385759 1717.70980708713159402 36.009497869018190385759 257.95353614026214473
37.009497869018190385759 1722.88314703864398325 37.009497869018190385759 257.85710297173898198
38.009497869018190385759 1727.86780925062680581 38.009497869018190385759 257.62871095777944674
39.009497869018190385759 1732.68422342652183943 39.009497869018190385759 257.26919424881998566
40.009497869018190385759 1737.34878807853624494 40.009497869018190385759 256.76886128236480999
41.009497869018190385759 1741.87478092120204565 41.009497869018190385759 256.48133508456902518
42.009497869018190385759 1746.25833271235819666 42.009497869018190385759 255.93964625155678050
43.009497869018190385759 1750.50252710575705350 43.009497869018190385759 255.57780260327984934
44.009497869018218807469 1754.60832958879677790 44.009497869018218807469 255.25568695819291065
46.009497869018190385759 1762.43980366263372161 46.009497869018190385759 254.38115021064959365
48.009497869018190385759 1769.76544537065547047 48.009497869018190385759 253.48738995875098112
50.009497869018190385759 1776.66807107740805804 50.009497869018190385759 252.69915497629526158
52.009497869018190385759 1783.21637219104854921 52.009497869018190385759 252.14313700531238283
54.009497869018190385759 1789.42136760005541873 54.009497869018190385759 251.61598956313051190
56.009497869018190385759 1795.29659956007071742 56.009497869018190385759 251.38567349097780834
58.009497869018218807469 1800.88312805162468067 58.009497869018218807469 251.17688216375202614
60.009497869018190385759 1806.24645929295184033 60.009497869018190385759 250.88185578635716411
62.009497869018190385759 1811.36916543055394868 62.009497869018190385759 250.54467409107428466
64.009497869018190385759 1816.26826361434655155 64.009497869018190385759 250.27013337410522809
66.009497869018190385759 1820.95515207359403576 66.009497869018190385759 249.96750018038298435
68.009497869018190385759 1825.43640412495506098 68.009497869018190385759 249.34405807483051376
70.009497869018190385759 1829.71191520170782496 70.009497869018190385759 248.85912564715147255
72.009497869018218807469 1833.80695959795275485 72.009497869018218807469 247.56321502857812789
74.009497869018190385759 1837.74124775550558297 74.009497869018190385759 246.42244182713034206
76.009497869018190385759 1841.52939788971502821 76.009497869018190385759 245.47062302864904382
78.009497869018190385759 1845.16531045136230205 78.009497869018190385759 244.22158429016019454
80.009497869018190385759 1848.64896091373952913 80.009497869018190385759 243.39862113257635201
82.009497869018218807469 1851.98376283432730816 82.009497869018218807469 242.64031800439857989
84.009497869018190385759 1855.18102086989506461 84.009497869018190385759 241.57595280482283329
86.009497869018190385759 1858.21457389117722414 86.009497869018190385759 240.40856394208429947
88.009497869018190385759 1861.11635667067844224 88.009497869018190385759 239.65817271635654606
91.009497869018218807469 1865.27595815898098408 91.009497869018218807469 239.00086722256244798
94.009497869018190385759 1869.26087985851540907 94.009497869018190385759 238.57519992086923821
97.009497869018190385759 1873.08470351876167115 97.009497869018190385759 238.55893723632073034
99.504748934509109403734 1876.14069925144463014 99.504748934509109403734 232.93142492045791414
nan nan nan nan

