Time Pressure difference Time.1 Pressure.1 difference.1
(hr) (psi) (hr) (psi)
0.000200000000006639311 0.69193864654429049 0.000200000000006639311 0.55257708282049878
0.000399999999999067768 1.38143662570452164 0.000399999999999067768 1.43689928815449242
0.000600000000005707079 2.06891814835596222 0.000600000000005707079 2.09792452966217180
0.000799999999998135536 2.75457936778850510 0.000799999999998135536 2.76830190086311712
0.001007140329434719206 3.46293133110200291 0.001007140329434719206 3.46935557707878273
0.001267914553963578328 4.35225999959419685 0.001267914553963578328 4.35448368285960274
0.001596209851982166583 5.46821885913015837 0.001596209851982166583 5.46227481329721254
0.002009509145210586212 6.86768895749504260 0.002009509145210586212 6.84718938796281407
0.002529822128138903281 8.62140053060648803 0.002529822128138903281 8.57623533785207570
0.003184857364445292660 10.81708790215101956 0.003184857364445292660 10.73148074587725098
0.004009497869020606231 13.56326720804012886 0.004009497869020606231 13.41286927579615096
0.005047658755842121536 16.99368628199497877 0.005047658755842121536 16.74126605991970251
0.006354625877804664924 21.27250265347609925 0.006354625877804664924 20.86158726053703560
0.008000000000009777068 26.60017097056532265 0.008000000000009777068 25.94574016673892558
0.010071403294347192059 33.21996938675680866 0.010071403294347192059 32.19495245490272595
0.012679145539692626699 41.42495127231470775 0.012679145539692626699 39.84074715233889918
0.015962098519750611558 51.56490815074477041 0.015962098519750611558 49.14361727992894657
0.020095091452091651263 64.05269284276249664 0.020095091452091651263 60.38807547129063380
0.025298221281346400247 79.36887642942784282 0.025298221281346400247 73.87217840188077389
0.031848573644282396344 98.06321023890755839 0.031848573644282396344 89.88921915659345530
0.040094978690191851456 120.75080114262362940 0.040094978690191851456 108.69882941304902602
0.050476587558421215363 148.10019865227951641 0.050476587558421215363 130.48700297181758856
0.063546258777947173257 180.81107570144686747 0.063546258777947173257 155.30954631483274397
0.079999999999998294697 219.57617512227679413 0.079999999999998294697 183.02360249747343346
0.100714032943542974863 265.02735197566096303 0.100714032943542974863 213.21620147602365591
0.126791455396897845276 317.66452585660198338 0.126791455396897845276 245.12693555150974589
0.159620985197506115583 377.76607754621454660 0.159620985197506115583 277.61446886253378352
0.200950914520774404082 445.30242389731182584 0.200950914520774404082 309.16525634549333290
0.252982212813464002465 519.85062597408489182 0.252982212813464002465 338.00447687158026611
0.318485736442795541734 600.55937230881113464 0.318485736442795541734 362.30551503321675000
0.400949786901819038576 686.16049709367041487 0.400949786901819038576 380.48912992018745172
0.504765875584169521062 775.07208992059895536 0.504765875584169521062 391.56271494105720876
0.635462587779443310865 865.56630091284307582 0.635462587779443310865 395.36271153244081233
0.799999999999997157829 955.98358563655926901 0.799999999999997157829 392.63021213339430915
1.007140329435330272645 1044.93415240723493298 1.007140329435330272645 384.86740455857596999
1.267914553968893187630 1131.44431140179631257 1.267914553968893187630 374.00440554902115764
1.596209851975103788391 1215.00253671547147860 1.596209851975103788391 361.98160065022909748
2.009509145207687197399 1295.51182542384049157 2.009509145207687197399 350.42760051948494038
2.529822128134711078928 1373.18615423678647858 2.529822128134711078928 340.45903260181682981
3.184857364427983839050 1448.41016918971808991 3.184857364427983839050 332.64053812669783383
4.009497869018190385759 1521.61715075132019592 4.009497869018190385759 327.07179588803285242
5.009497869018190385759 1590.85753487226543257 5.009497869018190385759 323.59024210330704818
6.009497869018190385759 1646.50032646506679157 6.009497869018190385759 321.91859886941023206
7.009497869018204596614 1692.95689511252089687 7.009497869018204596614 321.15351453993116593
8.009497869018190385759 1732.77109662037014459 8.009497869018190385759 320.96089167694651678
9.009497869018204596614 1767.57794561526588950 9.009497869018204596614 321.02010903953322440
10.009497869018190385759 1798.42036875578719446 10.009497869018190385759 321.10062354087966696
11.009497869018190385759 1826.10811663844560826 11.009497869018190385759 321.12442847428974346
12.009497869018190385759 1851.15022926597544028 12.009497869018190385759 321.37181707568271349
13.009497869018190385759 1873.98346443254717997 13.009497869018190385759 321.48247643548586439
14.009497869018204596614 1894.98123506000479210 14.009497869018204596614 321.53654300639146868
15.009497869018190385759 1914.34981631117625511 15.009497869018190385759 321.73966283829673785
16.009497869018190385759 1932.30277605187507106 16.009497869018190385759 321.74089739216265116
17.009497869018190385759 1949.04838542633910947 17.009497869018190385759 321.50389649968343520
18.009497869018190385759 1964.69158360417418407 18.009497869018190385759 321.58846266233217648
19.009497869018204596614 1979.32982422817940460 19.009497869018204596614 321.57641924702852521
20.009497869018190385759 1993.09251966570218428 20.009497869018190385759 321.58161489491413931
21.009497869018204596614 2006.11922057750643944 21.009497869018204596614 321.40143040347453507
22.009497869018190385759 2018.44323637824527395 22.009497869018190385759 321.31850475000902634
23.009497869018190385759 2030.11324750034054887 23.009497869018190385759 321.77211952198877043
24.009497869018190385759 2041.16450882659000854 24.009497869018190385759 321.82810464399972261
25.009497869018190385759 2051.67624119786523806 25.009497869018190385759 321.81951646298114156
26.009497869018204596614 2061.74227064957449329 26.009497869018204596614 321.97943265209187302
27.009497869018190385759 2071.37323301277774590 27.009497869018190385759 321.88136315075951188
28.009497869018190385759 2080.57653057946981789 28.009497869018190385759 321.99580054054393941
29.009497869018190385759 2089.37996771028156218 29.009497869018190385759 322.36699300977909388
30.009497869018190385759 2097.79599036934632750 30.009497869018190385759 322.38735055351969550
31.009497869018190385759 2105.86760894074723183 31.009497869018190385759 322.26943573293539202
32.009497869018190385759 2113.64016101464676467 32.009497869018190385759 322.12280100188598908
33.009497869018190385759 2121.13525238602733225 33.009497869018190385759 321.99300750361788914
34.009497869018190385759 2128.35345929737604820 34.009497869018190385759 321.73931426161271929
35.009497869018190385759 2135.30046940544616518 35.009497869018190385759 321.67850580268867589
36.009497869018190385759 2141.99441512512066765 36.009497869018190385759 321.66960419885981537
37.009497869018190385759 2148.44560102273999291 37.009497869018190385759 321.54935146026735993
38.009497869018190385759 2154.66150464935981290 38.009497869018190385759 321.26454525124290740
39.009497869018190385759 2160.66760196750374234 39.009497869018190385759 320.81622576237577960
40.009497869018190385759 2166.48434202009093497 40.009497869018190385759 320.19230755720042225
41.009497869018190385759 2172.12828219664879725 41.009497869018190385759 319.83376066683530325
42.009497869018190385759 2177.59459752903376284 42.009497869018190385759 319.15827144842330654
43.009497869018190385759 2182.88713335193961029 43.009497869018190385759 318.70705025229358398
44.009497869018218807469 2188.00709363393389140 44.009497869018218807469 318.30537011403401948
46.009497869018190385759 2197.77298869906280743 46.009497869018190385759 317.21481755310043127
48.009497869018190385759 2206.90810777508386309 48.009497869018190385759 316.10029316712513037
50.009497869018190385759 2215.51572336449225986 50.009497869018190385759 315.11735942403282706
52.009497869018190385759 2223.68149406458587691 52.009497869018190385759 314.42400168476837052
54.009497869018190385759 2231.41916049527890209 54.009497869018190385759 313.76664566779601273
56.009497869018190385759 2238.74560993044769930 56.009497869018190385759 313.47944014668337331
58.009497869018218807469 2245.71204441168174526 58.009497869018218807469 313.21907611138533412
60.009497869018190385759 2252.40015058537255754 60.009497869018190385759 312.85117645214899085
62.009497869018190385759 2258.78819581384959747 62.009497869018190385759 312.43070885907911816
64.009497869018190385759 2264.89740058495590347 64.009497869018190385759 312.08835494106233455
66.009497869018190385759 2270.74197855883812736 66.009497869018190385759 311.71096953631592896
68.009497869018190385759 2276.33012670072957917 68.009497869018190385759 310.93353349750566395
70.009497869018190385759 2281.66171461530348097 70.009497869018190385759 310.32881985640295852
72.009497869018218807469 2286.76825949864451104 72.009497869018218807469 308.71281155509819882
74.009497869018190385759 2291.67434038972442067 74.009497869018190385759 307.29026054191552930
76.009497869018190385759 2296.39818629061755928 76.009497869018190385759 306.10333680069561524
78.009497869018190385759 2300.93219102692319211 78.009497869018190385759 304.54577801452609265
80.009497869018190385759 2305.27632401369010040 80.009497869018190385759 303.51953802909599744
82.009497869018218807469 2309.43484197753696208 82.009497869018218807469 302.57392948752101347
84.009497869018190385759 2313.42184189314775722 84.009497869018190385759 301.24665971020573352
86.009497869018190385759 2317.20470067567430306 86.009497869018190385759 299.79091880801831849
88.009497869018190385759 2320.82324117765756455 88.009497869018190385759 298.85517645617517246
91.009497869018218807469 2326.01028914136395542 91.009497869018218807469 298.03551256945286241
94.009497869018190385759 2330.97951036249014578 94.009497869018190385759 297.50470289533546975
97.009497869018190385759 2335.74784136396510803 97.009497869018190385759 297.48442323032207923
99.504748934509109403734 2339.55868634199623557 99.504748934509109403734 290.46688167476264653
nan nan nan nan

