Time Pressure difference Time.1 Pressure.1 difference.1
(hr) (psi) (hr) (psi)
0.000200000000006639311 0.29571447559395847 0.000200000000006639311 0.23615539193769217
0.000399999999999067768 0.59038588085331301 0.000399999999999067768 0.61408901150420081
0.000600000000005707079 0.88419551118213979 0.000600000000005707079 0.89659199587002769
0.000799999999998135536 1.17722719679796839 0.000799999999998135536 1.18309180877223241
0.001007140329434719206 1.47995624714563379 0.001007140329434719206 1.48270178324135249
0.001267914553963578328 1.86002948362008924 0.001267914553963578328 1.86097982124612082
0.001596209851982166583 2.33695787977231273 0.001596209851982166583 2.33441756726747629
0.002009509145210586212 2.93505074293905777 0.002009509145210586212 2.92628982246670111
0.002529822128138903281 3.68453612112354101 0.002529822128138903281 3.66523382986235191
0.003184857364445292660 4.62290911544509342 0.003184857364445292660 4.58632310388031339
0.004009497869020606231 5.79654636982267224 0.004009497869020606231 5.73227066288526999
0.005047658755842121536 7.26260782279737338 0.005047658755842121536 7.15473075309893680
0.006354625877804664924 9.09124963341835723 0.006354625877804664924 8.91563633223431573
0.008000000000009777068 11.36814029474340337 0.008000000000009777068 11.08845558146345489
0.010071403294347192059 14.19724982195128860 0.010071403294347192059 13.75918736367991535
0.012679145539692626699 17.70382071181757055 0.012679145539692626699 17.02677789463703206
0.015962098519750611558 22.03734369947795457 0.015962098519750611558 21.00255432371513464
0.020095091452091651263 27.37426008646272280 0.020095091452091651263 25.80810908496934530
0.025298221281346400247 33.91995199144815132 0.025298221281346400247 31.57082294246044540
0.031848573644282396344 41.90936716092568304 0.031848573644282396344 38.41604084003274266
0.040094978690191851456 51.60538440188957310 0.040094978690191851456 46.45472181398013589
0.050476587558421215363 63.29372235319509343 0.050476587558421215363 55.76635421124497327
0.063546258777947173257 77.27340090001811745 0.063546258777947173257 66.37478810093691095
0.079999999999998294697 93.84047820351806024 0.079999999999998294697 78.21897057515070628
0.100714032943542974863 113.26499076030648894 0.100714032943542974863 91.12241023465115575
0.126791455396897845276 135.76058968181308728 0.126791455396897845276 104.76013091997295135
0.159620985197506115583 161.44624682647344116 0.159620985197506115583 118.64435884161106571
0.200950914520774404082 190.30931921661823480 0.200950914520774404082 132.12824881031886548
0.252982212813464002465 222.16905503814433587 0.252982212813464002465 144.45329383707394300
0.318485736442795541734 256.66162850172480603 0.318485736442795541734 154.83885156281530726
0.400949786901819038576 293.24506238336937258 0.400949786901819038576 162.61000030202490052
0.504765875584169521062 331.24329413173262537 0.504765875584169521062 167.34252883435340209
0.635462587779443310865 369.91789090632914849 0.635462587779443310865 168.96653698145129852
0.799999999999997157829 408.55961162858955049 0.799999999999997157829 167.79874612183479599
1.007140329435330272645 446.57449970825405217 1.007140329435330272645 164.48114768649827511
1.267914553968893187630 483.54642840220822109 1.267914553968893187630 159.83861749754083803
1.596209851975103788391 519.25678639940906578 1.596209851975103788391 154.70041996576418342
2.009509145207687197399 553.66411746805192706 2.009509145207687197399 149.76257597231290219
2.529822128134711078928 586.85986903757031996 2.529822128134711078928 145.50229964735510180
3.184857364427983839050 619.00842764890705894 3.184857364427983839050 142.16090224862477953
4.009497869018190385759 650.29496478687872241 4.009497869018190385759 139.78098359680635099
5.009497869018190385759 679.88629341479770574 5.009497869018190385759 138.29306865399433946
6.009497869018190385759 703.66640602828783813 6.009497869018190385759 137.57865689977194279
7.009497869018204596614 723.52059382960078437 7.009497869018204596614 137.25168208429229821
8.009497869018190385759 740.53602688697696976 8.009497869018190385759 137.16936066865901012
9.009497869018204596614 755.41146295202236161 9.009497869018204596614 137.19466844906821734
10.009497869018190385759 768.59261857990429689 10.009497869018190385759 137.22907800786691723
11.009497869018190385759 780.42555765100439658 11.009497869018190385759 137.23925154483450228
12.009497869018190385759 791.12782907405437527 12.009497869018190385759 137.34497824603005256
13.009497869018190385759 800.88609044176087082 13.009497869018190385759 137.39227084157619174
14.009497869018204596614 809.85992758866950680 14.009497869018204596614 137.41537732325974730
15.009497869018190385759 818.13749652674505342 15.009497869018190385759 137.50218483845574724
16.009497869018190385759 825.81006995734401244 16.009497869018190385759 137.50271245091224159
17.009497869018190385759 832.96665691689872801 17.009497869018190385759 137.40142515472663831
18.009497869018190385759 839.65210535784638068 18.009497869018190385759 137.43756627585867136
19.009497869018204596614 845.90806413593270463 19.009497869018204596614 137.43241927003859360
20.009497869018190385759 851.78984033732297121 20.009497869018190385759 137.43463973900293240
21.009497869018204596614 857.35707386025478627 21.009497869018204596614 137.35763412201313827
22.009497869018190385759 862.62400018085872944 22.009497869018190385759 137.32219410684658101
23.009497869018190385759 867.61142390170618910 23.009497869018190385759 137.51605588214644627
24.009497869018190385759 872.33441193549344916 24.009497869018190385759 137.53998229683540444
25.009497869018190385759 876.82682096811527117 25.009497869018190385759 137.53631195776864615
26.009497869018204596614 881.12874952130675865 26.009497869018204596614 137.60465549117014916
27.009497869018190385759 885.24474304027478411 27.009497869018190385759 137.56274343537862137
28.009497869018190385759 889.17796504956936587 28.009497869018190385759 137.61165065118083817
29.009497869018190385759 892.94029832516230272 29.009497869018190385759 137.77028752878914020
30.009497869018190385759 896.53706191054914143 30.009497869018190385759 137.77898775156424449
31.009497869018190385759 899.98663719436501651 31.009497869018190385759 137.72859438286315026
32.009497869018190385759 903.30840014551517925 32.009497869018190385759 137.66592695878921404
33.009497869018190385759 906.51158445309204126 33.009497869018190385759 137.61045698834092832
34.009497869018190385759 909.59643638639374785 34.009497869018190385759 137.50203586690773250
35.009497869018190385759 912.56538668468044762 35.009497869018190385759 137.47604809814782811
36.009497869018190385759 915.42618461529775686 36.009497869018190385759 137.47224381127742276
37.009497869018190385759 918.18323405053479291 37.009497869018190385759 137.42085128433996033
38.009497869018190385759 920.83973067847784932 38.009497869018190385759 137.29913338468483630
39.009497869018190385759 923.40656218539186284 39.009497869018190385759 137.10753465955073693
40.009497869018190385759 925.89246789814205840 40.009497869018190385759 136.84089014449384081
41.009497869018190385759 928.30452396399391546 41.009497869018190385759 136.68765761992003149
42.009497869018190385759 930.64066833173581017 42.009497869018190385759 136.39897315202725281
43.009497869018190385759 932.90254438570286766 43.009497869018190385759 136.20613432150841504
44.009497869018218807469 935.09066666708326920 44.009497869018218807469 136.03446789987529542
46.009497869018190385759 939.26432650284073134 46.009497869018190385759 135.56839741765156759
48.009497869018190385759 943.16841100591818758 48.009497869018190385759 135.09208207382539513
50.009497869018190385759 946.84705584364860442 50.009497869018190385759 134.67200474784598896
52.009497869018190385759 950.33686901199587282 52.009497869018190385759 134.37568379325031742
54.009497869018190385759 953.64372285272418139 54.009497869018190385759 134.09474892885398845
56.009497869018190385759 956.77483449608564570 56.009497869018190385759 133.97200563291630715
58.009497869018218807469 959.75208620715318375 58.009497869018218807469 133.86073360822712175
60.009497869018190385759 962.61038848546536428 60.009497869018190385759 133.70350398195083130
62.009497869018190385759 965.34045343304967446 62.009497869018190385759 133.52380834793777353
64.009497869018190385759 967.95135006992120452 64.009497869018190385759 133.37749622931355020
66.009497869018190385759 970.44915290149617704 66.009497869018190385759 133.21621267098254293
68.009497869018190385759 972.83736507258083748 68.009497869018190385759 132.88395909377194926
70.009497869018190385759 975.11593085600009090 70.009497869018190385759 132.62552205147594009
72.009497869018218807469 977.29831978573542983 72.009497869018218807469 131.93488705115842663
74.009497869018190385759 979.39503622898200774 74.009497869018190385759 131.32693007553652365
76.009497869018190385759 981.41387073164435151 76.009497869018190385759 130.81967335059738389
78.009497869018190385759 983.35157263575581510 78.009497869018190385759 130.15401797499552572
80.009497869018190385759 985.20812887019644677 80.009497869018190385759 129.71543281915748480
82.009497869018218807469 986.98535863625818365 82.009497869018218807469 129.31130719994894207
84.009497869018190385759 988.68928657138110339 84.009497869018190385759 128.74407065646246906
86.009497869018190385759 990.30597051685481347 86.009497869018190385759 128.12192928650000567
88.009497869018190385759 991.85242960293635406 88.009497869018190385759 127.72202019015406904
91.009497869018218807469 994.06922321047488822 91.009497869018218807469 127.37171965753327640
94.009497869018190385759 996.19292399645439673 94.009497869018190385759 127.14486702369677573
97.009497869018190385759 998.23077013874149088 97.009497869018190385759 127.13620008402719463
99.504748934509109403734 999.85941457112937769 99.504748934509109403734 124.13710669413624998
nan nan nan nan

