Time Pressure difference Time.1 Pressure.1 difference.1
(hr) (psi) (hr) (psi)
0.000200000000006639311 0.81155349060476811 0.000200000000006639311 0.64810061214361026
0.000399999999999067768 1.62024439773507511 0.000399999999999067768 1.68529484336967483
0.000600000000005707079 2.42657026523862562 0.000600000000005707079 2.46059095495791302
0.000799999999998135536 3.23076115525734631 0.000799999999998135536 3.24685589092828986
0.001007140329434719206 4.06156531871147308 0.001007140329434719206 4.06910011861461030
0.001267914553963578328 5.10463147611468315 0.001267914553963578328 5.10723956561084247
0.001596209851982166583 6.41350519252120677 0.001596209851982166583 6.40653360455147247
0.002009509145210586212 8.05490049396477303 0.002009509145210586212 8.03085718132013149
0.002529822128138903281 10.11177469195983036 0.002529822128138903281 10.05880183083010593
0.003184857364445292660 12.68702866794903450 0.003184857364445292660 12.58662267553670233
0.004009497869020606231 15.90793764976615066 0.004009497869020606231 15.73154055516547345
0.005047658755842121536 19.93137034514897010 0.005047658755842121536 19.63531445443163648
0.006354625877804664924 24.94986205575768423 0.006354625877804664924 24.46791206908125105
0.008000000000009777068 31.19851985383231607 0.008000000000009777068 30.43095815474661592
0.010071403294347192059 38.96267717990563995 0.010071403294347192059 37.76046644470583402
0.012679145539692626699 48.58604729057799432 0.012679145539692626699 46.72798315466398833
0.015962098519750611558 60.47888987188191834 0.015962098519750611558 57.63903251199349853
0.020095091452091651263 75.12542725975865210 0.020095091452091651263 70.82731060678385404
0.025298221281346400247 93.08930644844058122 0.025298221281346400247 86.64239891793218362
0.031848573644282396344 115.01531380961907303 0.031848573644282396344 105.42829185593254238
0.040094978690191851456 141.62488921529808295 0.040094978690191851456 127.48950340522075919
0.050476587558421215363 173.70215376143707431 0.050476587558421215363 153.04417995614142001
0.063546258777947173257 212.06773224527441357 0.063546258777947173257 182.15777520959375124
0.079999999999998294697 257.53412136190206638 0.079999999999998294697 214.66273666270294029
0.100714032943542974863 310.84240441803211752 0.100714032943542974863 250.07470449228702591
0.126791455396897845276 372.57892168295336432 0.126791455396897845276 287.50181996857747890
0.159620985197506115583 443.07017738613637903 0.159620985197506115583 325.60544547262367132
0.200950914520774404082 522.28147436695519445 0.200950914520774404082 362.61039069573467941
0.252982212813464002465 609.71676059625565358 0.252982212813464002465 396.43502269331810339
0.318485736442795541734 704.37755911849762924 0.318485736442795541734 424.93696060918699686
0.400949786901819038576 804.77647738357268281 0.400949786901819038576 446.26396150302906563
0.504765875584169521062 909.05814147950218285 0.504765875584169521062 459.25182772798666520
0.635462587779443310865 1015.19600959405477170 0.635462587779443310865 463.70872649123003839
0.799999999999997157829 1121.24365326160682343 0.799999999999997157829 460.50386225009157215
1.007140329435330272645 1225.57102869371965426 1.007140329435330272645 451.39910474637304105
1.267914553968893187630 1327.03612513752091218 1.267914553968893187630 438.65822835701521853
1.596209851975103788391 1425.03898964107497704 1.596209851975103788391 424.55705142289775722
2.009509145207687197399 1519.46585046709742528 2.009509145207687197399 411.00572113749916525
2.529822128134711078928 1610.56767429692740734 2.529822128134711078928 399.31389538052223998
3.184857364427983839050 1698.79560059826462748 3.184857364427983839050 390.14382442951239227
4.009497869018190385759 1784.65781066511385689 4.009497869018190385759 383.61241846651631704
5.009497869018190385759 1865.86772097263292380 5.009497869018190385759 379.52901144649570142
6.009497869018190385759 1931.12943452145282208 6.009497869018190385759 377.56839267156516371
7.009497869018204596614 1985.61691059415716154 7.009497869018204596614 376.67104886616175463
8.009497869018190385759 2032.31375918139451642 8.009497869018190385759 376.44512745303325119
9.009497869018204596614 2073.13763849473525624 9.009497869018204596614 376.51458167061701943
10.009497869018190385759 2109.31176503529923139 10.009497869018190385759 376.60901464518536841
11.009497869018190385759 2141.78587029503160011 11.009497869018190385759 376.63693471714418592
12.009497869018190385759 2171.15699158806455671 12.009497869018190385759 376.92708917520053546
13.009497869018190385759 2197.93738865618070122 13.009497869018190385759 377.05687812421331273
14.009497869018204596614 2222.56502599474788440 14.009497869018204596614 377.12029113714822870
15.009497869018190385759 2245.28183737817425936 15.009497869018190385759 377.35852412126757827
16.009497869018190385759 2266.33830996720507756 16.009497869018190385759 377.35997209140805353
17.009497869018190385759 2285.97871856126448620 17.009497869018190385759 377.08200105665150659
18.009497869018190385759 2304.32614307476387694 18.009497869018190385759 377.18118609975817890
19.009497869018204596614 2321.49488387866904304 19.009497869018204596614 377.16706074951605387
20.009497869018190385759 2337.63672474596751272 20.009497869018190385759 377.17315456462318934
21.009497869018204596614 2352.91534034120513752 21.009497869018204596614 376.96182173372704938
22.009497869018190385759 2367.36979824915397330 22.009497869018190385759 376.86456079322789492
23.009497869018190385759 2381.05719424709786836 23.009497869018190385759 377.39659156420532327
24.009497869018190385759 2394.01887769937411576 24.009497869018190385759 377.46225478653985874
25.009497869018190385759 2406.34776428609211507 25.009497869018190385759 377.45218197398867233
26.009497869018204596614 2418.15389966942893807 26.009497869018204596614 377.63974273840790374
27.009497869018190385759 2429.44975828749556968 27.009497869018190385759 377.52472004596882016
28.009497869018190385759 2440.24402206019431105 28.009497869018190385759 377.65894012978566252
29.009497869018190385759 2450.56930186427962326 29.009497869018190385759 378.09430032479491501
30.009497869018190385759 2460.44019518709683325 30.009497869018190385759 378.11817705977040305
31.009497869018190385759 2469.90714758116428129 31.009497869018190385759 377.97987840465532372
32.009497869018190385759 2479.02333410721439577 32.009497869018190385759 377.80789505263220462
33.009497869018190385759 2487.81409553559251435 33.009497869018190385759 377.65566426294685698
34.009497869018190385759 2496.28010772333345813 34.009497869018190385759 377.35811528642938129
35.009497869018190385759 2504.42804154756413482 35.009497869018190385759 377.28679492104060955
36.009497869018190385759 2512.27916395827514862 36.009497869018190385759 377.27635450454505417
37.009497869018190385759 2519.84556086340626280 37.009497869018190385759 377.13531377752843810
38.009497869018190385759 2527.13600245188990812 38.009497869018190385759 376.80127336190196274
39.009497869018190385759 2534.18036869417937851 39.009497869018190385759 376.27545326511540225
40.009497869018190385759 2541.00264364181157362 40.009497869018190385759 375.54367885160240803
41.009497869018190385759 2547.62224694612905296 41.009497869018190385759 375.12315026590408706
42.009497869018190385759 2554.03351955085918235 42.009497869018190385759 374.33088980205235430
43.009497869018190385759 2560.24097153042612263 43.009497869018190385759 373.80166638234192078
44.009497869018218807469 2566.24601498241645459 44.009497869018218807469 373.33054814094981566
46.009497869018190385759 2577.70013200358243921 46.009497869018190385759 372.05147268833025009
48.009497869018190385759 2588.41443132803942717 48.009497869018190385759 370.74428142170614819
50.009497869018190385759 2598.51003808776613369 50.009497869018190385759 369.59142876024020552
52.009497869018190385759 2608.08741860876398277 52.009497869018190385759 368.77821085956622937
54.009497869018190385759 2617.16268884020109908 54.009497869018190385759 368.00721826823132687
56.009497869018190385759 2625.75565534459474293 56.009497869018190385759 367.67036377348102860
58.009497869018218807469 2633.92637141682189394 58.009497869018218807469 367.36499082931993598
60.009497869018190385759 2641.77064480421222470 60.009497869018190385759 366.93349266956732890
62.009497869018190385759 2649.26298596654351059 62.009497869018190385759 366.44033920206521771
64.009497869018190385759 2656.42828375930594120 64.009497869018190385759 366.03880285404312644
66.009497869018190385759 2663.28320894596026847 66.009497869018190385759 365.59617915603917027
68.009497869018190385759 2669.83737549413308443 68.009497869018190385759 364.68434841184040351
70.009497869018190385759 2676.09063046716846657 70.009497869018190385759 363.97509843902241755
72.009497869018218807469 2682.07993941197582899 72.009497869018218807469 362.07973216006115535
74.009497869018190385759 2687.83413032504313378 74.009497869018190385759 360.41126596572809149
76.009497869018190385759 2693.37458344049582593 76.009497869018190385759 359.01915972902713747
78.009497869018190385759 2698.69237771104917556 78.009497869018190385759 357.19234708306356652
80.009497869018190385759 2703.78747726455594602 80.009497869018190385759 355.98870186605859089
82.009497869018218807469 2708.66487468433797403 82.009497869018218807469 354.87962678188239352
84.009497869018190385759 2713.34110387707687551 84.009497869018190385759 353.32291300944899604
86.009497869018190385759 2717.77790223305373729 86.009497869018190385759 351.61551941828798817
88.009497869018190385759 2722.02197674738454225 88.009497869018190385759 350.51801608365315133
91.009497869018218807469 2728.10570527144409425 91.009497869018218807469 349.55665759946634807
94.009497869018190385759 2733.93395152959510597 94.009497869018190385759 348.93408730941507656
97.009497869018190385759 2739.52657984705138006 97.009497869018190385759 348.91030191599605814
99.504748934509109403734 2743.99620234829581022 99.504748934509109403734 340.67964393306499460
nan nan nan nan

