Time Pressure difference Time.1 Pressure.1 difference.1
(hr) (psi) (hr) (psi)
0.000200000000006639311 0.12626011317494856 0.000200000000006639311 0.10083039206328430
0.000399999999999067768 0.25207487047669541 0.000399999999999067768 0.26219530828269250
0.000600000000005707079 0.37752167893170013 0.000600000000005707079 0.38281456003439385
0.000799999999998135536 0.50263633121711015 0.000799999999998135536 0.50514032284657118
0.001007140329434719206 0.63189143136555159 0.001007140329434719206 0.63306368273226288
0.001267914553963578328 0.79416989188273468 0.001267914553963578328 0.79457565401519759
0.001596209851982166583 0.99780224080166158 0.001596209851982166583 0.99671761299060790
0.002009509145210586212 1.25316773294027195 0.002009509145210586212 1.24942711521050165
0.002529822128138903281 1.57317272587297263 0.002529822128138903281 1.56493129814347598
0.003184857364445292660 1.97382636389790522 0.003184857364445292660 1.95820537019608909
0.004009497869020606231 2.47492991071080404 0.004009497869020606231 2.44748635044539631
0.005047658755842121536 3.10088873332921588 0.005047658755842121536 3.05482886087370353
0.006354625877804664924 3.88165714685278207 0.006354625877804664924 3.80667618679667363
0.008000000000009777068 4.85381271011516091 0.008000000000009777068 4.73439676511922691
0.010071403294347192059 6.06174711499043717 0.010071403294347192059 5.87470921145884084
0.012679145539692626699 7.55893468594458096 0.012679145539692626699 7.26986022467648585
0.015962098519750611558 9.40920292786699264 0.015962098519750611558 8.96738274495702292
0.020095091452091651263 11.68788632905149782 0.020095091452091651263 11.01919264302061841
0.025298221281346400247 14.48267613118010999 0.025298221281346400247 13.47967721138760666
0.031848573644282396344 17.89388710241770752 0.031848573644282396344 16.40235451596903360
0.040094978690191851456 22.03375963226745782 0.040094978690191851456 19.83460032507016990
0.050476587558421215363 27.02428594855520672 0.050476587558421215363 23.81035348345291069
0.063546258777947173257 32.99313746292908434 0.063546258777947173257 28.33979716669216842
0.079999999999998294697 40.06672103071557700 0.079999999999998294697 33.39686384107558581
0.100714032943542974863 48.36033313361400587 0.100714032943542974863 38.90619762827802219
0.126791455396897845276 57.96519559448199033 0.126791455396897845276 44.72904466246036037
0.159620985197506115583 68.93210538658415487 0.159620985197506115583 50.65714197731708879
0.200950914520774404082 81.25566438462351471 0.200950914520774404082 56.41430848081031257
0.252982212813464002465 94.85869765673578513 0.252982212813464002465 61.67668725627875403
0.318485736442795541734 109.58586385466901447 0.318485736442795541734 66.11097033019080982
0.400949786901819038576 125.20575697267456405 0.400949786901819038576 69.42898889299938503
0.504765875584169521062 141.42972108995326153 0.504765875584169521062 71.44961905286997705
0.635462587779443310865 157.94247027461241828 0.635462587779443310865 72.14301578983312879
0.799999999999997157829 174.44118249310562874 0.799999999999997157829 71.64440845651373024
1.007140329435330272645 190.67225830240062123 1.007140329435330272645 70.22790575378577671
1.267914553968893187630 206.45802560993161023 1.267914553968893187630 68.24570185288260404
1.596209851975103788391 221.70514475480388228 1.596209851975103788391 66.05186470448357738
2.009509145207687197399 236.39591532343789027 2.009509145207687197399 63.94357176345943827
2.529822128134711078928 250.56938228570416527 2.529822128134711078928 62.12457737752239950
3.184857364427983839050 264.29573315346596019 3.184857364427983839050 60.69791331963754288
4.009497869018190385759 277.65402990900440727 4.009497869018190385759 59.68176827728809997
5.009497869018190385759 290.28852977261027490 5.009497869018190385759 59.04647875114365263
6.009497869018190385759 300.44183628174084788 6.009497869018190385759 58.74144901338577540
7.009497869018204596614 308.91890523061607610 7.009497869018204596614 58.60184178879896422
8.009497869018190385759 316.18392159219240511 8.009497869018190385759 58.56669331920272015
9.009497869018204596614 322.53523137277358046 9.009497869018204596614 58.57749888836620755
10.009497869018190385759 328.16314051726249090 10.009497869018190385759 58.59219061010048790
11.009497869018190385759 333.21540663750749900 11.009497869018190385759 58.59653436745743704
12.009497869018190385759 337.78491578442771015 12.009497869018190385759 58.64167610504654249
13.009497869018190385759 341.95136445827989746 13.009497869018190385759 58.66186844921230659
14.009497869018204596614 345.78289043111732326 14.009497869018204596614 58.67173413802101578
15.009497869018190385759 349.31713334849791863 15.009497869018190385759 58.70879802091368305
16.009497869018190385759 352.59306357729292358 16.009497869018190385759 58.70902329364792394
17.009497869018190385759 355.64868497575452011 17.009497869018190385759 58.66577703235520147
18.009497869018190385759 358.50314610784448632 18.009497869018190385759 58.68120807283852258
19.009497869018204596614 361.17422963107236455 19.009497869018204596614 58.67901047484794219
20.009497869018190385759 363.68554980694688084 20.009497869018190385759 58.67995854024844249
21.009497869018204596614 366.06257086168182013 21.009497869018204596614 58.64707973748875958
22.009497869018190385759 368.31137086373740885 22.009497869018190385759 58.63194804561989315
23.009497869018190385759 370.44083267713295982 23.009497869018190385759 58.71472048900635343
24.009497869018190385759 372.45738936571632394 24.009497869018190385759 58.72493626157017133
25.009497869018190385759 374.37549659312787753 25.009497869018190385759 58.72336915050795625
26.009497869018204596614 376.21227507651303767 26.009497869018204596614 58.75254953555578652
27.009497869018190385759 377.96966556775777235 27.009497869018190385759 58.73465450049873482
28.009497869018190385759 379.64901878520936407 28.009497869018190385759 58.75553623308844919
29.009497869018190385759 381.25540827366484109 29.009497869018190385759 58.82326883251671035
30.009497869018190385759 382.79110508540298952 30.009497869018190385759 58.82698353437574212
31.009497869018190385759 384.26395745377379853 31.009497869018190385759 58.80546726459325413
32.009497869018190385759 385.68223826437724711 32.009497869018190385759 58.77871038689876571
33.009497869018190385759 387.04988999120786275 33.009497869018190385759 58.75502657929162353
34.009497869018190385759 388.36701778295463328 34.009497869018190385759 58.70873441508419432
35.009497869018190385759 389.63465948334669520 35.009497869018190385759 58.69763851381593156
36.009497869018190385759 390.85612376832932569 36.009497869018190385759 58.69601421155665122
37.009497869018190385759 392.03329094292496393 37.009497869018190385759 58.67407133488671889
38.009497869018190385759 393.16752545822646425 38.009497869018190385759 58.62210189458454579
39.009497869018190385759 394.26347598926844285 39.009497869018190385759 58.54029569733627625
40.009497869018190385759 395.32487393403818032 40.009497869018190385759 58.42644747742432543
41.009497869018190385759 396.35474056889626127 41.009497869018190385759 58.36102235457259724
42.009497869018190385759 397.35219546748271569 42.009497869018190385759 58.23776381771950383
43.009497869018190385759 398.31794029951362290 43.009497869018190385759 58.15542813727325466
44.009497869018218807469 399.25219475673219449 44.009497869018218807469 58.08213236174450600
46.009497869018190385759 401.03420682143763543 46.009497869018190385759 57.88313597607594829
48.009497869018190385759 402.70111930589763460 48.009497869018190385759 57.67976537983555829
50.009497869018190385759 404.27177665234438564 50.009497869018190385759 57.50040652155221466
52.009497869018190385759 405.76180924107694636 52.009497869018190385759 57.37388746228665326
54.009497869018190385759 407.17372436408447811 54.009497869018190385759 57.25393774490395060
56.009497869018190385759 408.51060349271074301 56.009497869018190385759 57.20153049495303321
58.009497869018218807469 409.78178961653736678 58.009497869018218807469 57.15402109115315454
60.009497869018190385759 411.00218834210880914 60.009497869018190385759 57.08688934060821651
62.009497869018190385759 412.16783405006617613 62.009497869018190385759 57.01016536204085838
64.009497869018190385759 413.28259890625849948 64.009497869018190385759 56.94769501925747335
66.009497869018190385759 414.34907651973992415 66.009497869018190385759 56.87883237637457512
68.009497869018190385759 415.36876261525918608 68.009497869018190385759 56.73697129846442522
70.009497869018190385759 416.34163339919103919 70.009497869018190385759 56.62662739276500190
72.009497869018218807469 417.27343990851619537 72.009497869018218807469 56.33174952746090014
74.009497869018190385759 418.16866715394741050 74.009497869018190385759 56.07217239180211266
76.009497869018190385759 419.03064143598300006 76.009497869018190385759 55.85559086879439405
78.009497869018190385759 419.85797483324409995 78.009497869018190385759 55.57137846123404756
80.009497869018190385759 420.65066176480303284 80.009497869018190385759 55.38411738346049162
82.009497869018218807469 421.40947896829004549 82.009497869018218807469 55.21156936627033929
84.009497869018190385759 422.13699876081443563 84.009497869018190385759 54.96937848253453751
86.009497869018190385759 422.82726831056726269 86.009497869018190385759 54.70374508861797835
88.009497869018190385759 423.48755421248966968 88.009497869018190385759 54.53299738456016854
91.009497869018218807469 424.43405035952861226 91.009497869018218807469 54.38343086501421197
94.009497869018190385759 425.34079900972210453 94.009497869018190385759 54.28657243708401836
97.009497869018190385759 426.21089062103567358 97.009497869018190385759 54.28287194598914311
99.504748934509109403734 426.90626689553835149 99.504748934509109403734 53.00236016154132557
nan nan nan nan

