Time Pressure difference Time.1 Pressure.1 difference.1
(hr) (psi) (hr) (psi)
0.000200000000006639311 0.84644115345574078 0.000200000000006639311 0.67596164152951776
0.000399999999999067768 1.68989666457731991 0.000399999999999067768 1.75774354697410296
0.000600000000005707079 2.53088546599606889 0.000600000000005707079 2.56636866233583749
0.000799999999998135536 3.36964750993575812 0.000799999999998135536 3.38643413803063220
0.001007140329434719206 4.23616689843090111 0.001007140329434719206 4.24402560989589350
0.001267914553963578328 5.32407315676649073 0.001267914553963578328 5.32679336474662080
0.001596209851982166583 6.68921370642692903 0.001596209851982166583 6.68194241866729843
0.002009509145210586212 8.40117052543511100 0.002009509145210586212 8.37609362104934974
0.002529822128138903281 10.54646715568788906 0.002529822128138903281 10.49121705794869897
0.003184857364445292660 13.23242805797345589 0.003184857364445292660 13.12770573835404342
0.004009497869020606231 16.59179986193624146 0.004009497869020606231 16.40781967831485844
0.005047658755842121536 20.78819486356889001 0.005047658755842121536 20.47941190283094670
0.006354625877804664924 26.02242521475647763 0.006354625877804664924 25.51975680490664899
0.008000000000009777068 32.53970494478518560 0.008000000000009777068 31.73914673458218871
0.010071403294347192059 40.63763361957405351 0.010071403294347192059 39.38374135839841017
0.012679145539692626699 50.67470029590478475 0.012679145539692626699 48.73676032200880570
0.015962098519750611558 63.07880120721357997 0.015962098519750611558 60.11686195467898841
0.020095091452091651263 78.35497479804919863 0.020095091452091651263 73.87208752130270284
0.025298221281346400247 97.09109853731928297 0.025298221281346400247 90.36704656844719352
0.031848573644282396344 119.95967735107660701 0.031848573644282396344 109.96052139323977315
0.040094978690191851456 147.71316490316144154 0.040094978690191851456 132.97011665293752003
0.050476587558421215363 181.16939066827470128 0.050476587558421215363 159.62335657656919352
0.063546258777947173257 221.18425707055746443 0.063546258777947173257 189.98850863723237126
0.079999999999998294697 268.60518901512608636 0.079999999999998294697 223.89081746089487979
0.100714032943542974863 324.20512804705708731 0.100714032943542974863 260.82510120536386466
0.126791455396897845276 388.59562046563911508 0.126791455396897845276 299.86116125688886314
0.159620985197506115583 462.11720650611357541 0.159620985197506115583 339.60281365056653158
0.200950914520774404082 544.73369742060106091 0.200950914520774404082 378.19855488122175302
0.252982212813464002465 635.92771652772205471 0.252982212813464002465 413.47726522465825383
0.318485736442795541734 734.65786360465608595 0.318485736442795541734 443.20446556884496658
0.400949786901819038576 839.37280496812752517 0.400949786901819038576 465.44828738135777257
0.504765875584169521062 948.13740651751561472 0.504765875584169521062 478.99448562417444464
0.635462587779443310865 1058.83800795940828721 0.635462587779443310865 483.64298085421029327
0.799999999999997157829 1169.44450631891231751 0.799999999999997157829 480.30034353412821702
1.007140329435330272645 1278.25678427727780218 1.007140329435330272645 470.80418396781385582
1.267914553968893187630 1384.08373747710720636 1.267914553968893187630 457.51559334268011980
1.596209851975103788391 1486.29962174437605427 1.596209851975103788391 442.80822456492609263
2.009509145207687197399 1584.78577443804761060 2.009509145207687197399 428.67433965108665461
2.529822128134711078928 1679.80395098113513086 2.529822128134711078928 416.47989702431135584
3.184857364427983839050 1771.82468475909081462 3.184857364427983839050 406.91561626783322936
4.009497869018190385759 1861.37800313997036028 4.009497869018190385759 400.10343338524063483
5.009497869018190385759 1946.07902525190684173 5.009497869018190385759 395.84448583825911783
6.009497869018190385759 2014.14625770456541431 6.009497869018190385759 393.79958253052700456
7.009497869018204596614 2070.97608177630127102 7.009497869018204596614 392.86366304464564791
8.009497869018190385759 2119.68036909502643539 8.009497869018190385759 392.62802955439190100
9.009497869018204596614 2162.25921558458094296 9.009497869018204596614 392.70046952134975982
10.009497869018190385759 2199.98842228349030847 10.009497869018190385759 392.79896205060782677
11.009497869018190385759 2233.85854844486948423 11.009497869018190385759 392.82808237131007445
12.009497869018190385759 2264.49229726534122165 12.009497869018190385759 393.13071020422648871
13.009497869018190385759 2292.42394988807382106 13.009497869018190385759 393.26607861675881850
14.009497869018204596614 2318.11029835071440175 14.009497869018204596614 393.33221767528561941
15.009497869018190385759 2341.80367685604869621 15.009497869018190385759 393.58069199546741856
16.009497869018190385759 2363.76534069250965331 16.009497869018190385759 393.58220221202128641
17.009497869018190385759 2384.25006572561733265 17.009497869018190385759 393.29228155243384890
18.009497869018190385759 2403.38622292035233841 18.009497869018190385759 393.39573043567406785
19.009497869018204596614 2421.29302627672859671 19.009497869018204596614 393.38099785440817868
20.009497869018190385759 2438.12878456104499492 20.009497869018190385759 393.38735363495499087
21.009497869018204596614 2454.06420860561684094 21.009497869018204596614 393.16693587171744184
22.009497869018190385759 2469.14004546150272290 22.009497869018190385759 393.06549380583339826
23.009497869018190385759 2483.41584538156894268 23.009497869018190385759 393.62039590985182258
24.009497869018190385759 2496.93473528726917721 24.009497869018190385759 393.68888191144736766
25.009497869018190385759 2509.79362518682455629 25.009497869018190385759 393.67837608136585459
26.009497869018204596614 2522.10729146688663604 26.009497869018204596614 393.87399984691677446
27.009497869018190385759 2533.88874482595520021 27.009497869018190385759 393.75403247373822069
28.009497869018190385759 2545.14704040873948543 28.009497869018190385759 393.89402250998114141
29.009497869018190385759 2555.91619099252920932 29.009497869018190385759 394.34809829167454609
30.009497869018190385759 2566.21142159227383672 30.009497869018190385759 394.37300145742682389
31.009497869018190385759 2576.08534635128626178 31.009497869018190385759 394.22875751724029669
32.009497869018190385759 2585.59342625921362924 32.009497869018190385759 394.04938081743318889
33.009497869018190385759 2594.76209145421535140 33.009497869018190385759 393.89060581775112269
34.009497869018190385759 2603.59204684757105497 34.009497869018190385759 393.58026558533418893
35.009497869018190385759 2612.09025008901471665 35.009497869018190385759 393.50587924722657363
36.009497869018190385759 2620.27888236794478871 36.009497869018190385759 393.49499001036997470
37.009497869018190385759 2628.17054915026710660 37.009497869018190385759 393.34788612006292396
38.009497869018190385759 2635.77439764429436764 38.009497869018190385759 392.99948572751083020
39.009497869018190385759 2643.12159232279282151 39.009497869018190385759 392.45106128674780166
40.009497869018190385759 2650.23714828147967637 40.009497869018190385759 391.68782881246971783
41.009497869018190385759 2657.14131999806159001 41.009497869018190385759 391.24922223229918927
42.009497869018190385759 2663.82820514055856620 42.009497869018190385759 390.42290348852748139
43.009497869018190385759 2670.30250766581821154 43.009497869018190385759 389.87092942027265963
44.009497869018218807469 2676.56570037572464571 44.009497869018218807469 389.37955839880032727
46.009497869018190385759 2688.51221546740089252 46.009497869018190385759 388.04549710277234453
48.009497869018190385759 2699.68710903098508425 48.009497869018190385759 386.68211132929235418
50.009497869018190385759 2710.21671321538724442 50.009497869018190385759 385.47969898330069327
52.009497869018190385759 2720.20581326748288120 52.009497869018190385759 384.63152186888225970
54.009497869018190385759 2729.67121794080321706 54.009497869018190385759 383.82738527669164341
56.009497869018190385759 2738.63358525705416469 56.009497869018190385759 383.47604983129696166
58.009497869018218807469 2747.15555012665527101 58.009497869018218807469 383.15754928871751872
60.009497869018190385759 2755.33703895137387008 60.009497869018190385759 382.70750156631436312
62.009497869018190385759 2763.15146642774607244 62.009497869018190385759 382.19314805210285613
64.009497869018190385759 2770.62479135182456957 64.009497869018190385759 381.77435016199581241
66.009497869018190385759 2777.77440114220416945 66.009497869018190385759 381.31269862845852003
68.009497869018190385759 2784.61032305887601979 68.009497869018190385759 380.36166942852139528
70.009497869018190385759 2791.13239759062935264 70.009497869018190385759 379.62192969228647144
72.009497869018218807469 2797.37917938669761497 72.009497869018218807469 377.64508400317532733
74.009497869018190385759 2803.38073572284474722 74.009497869018190385759 375.90489254767339844
76.009497869018190385759 2809.15936594254435477 76.009497869018190385759 374.45294141645712216
78.009497869018190385759 2814.70576549391898880 78.009497869018190385759 372.54759639472035815
80.009497869018190385759 2820.01989696272539732 80.009497869018190385759 371.29220798517263802
82.009497869018218807469 2825.10696755715480322 82.009497869018218807469 370.13545515940444375
84.009497869018190385759 2829.98422195572311466 84.009497869018190385759 368.51182022172827146
86.009497869018190385759 2834.61175268728948140 86.009497869018190385759 366.73102792961662999
88.009497869018190385759 2839.03827462188792197 88.009497869018190385759 365.58634430833427587
91.009497869018218807469 2845.38353497605066877 91.009497869018218807469 364.58365823322026245
94.009497869018190385759 2851.46233020333420427 94.009497869018190385759 363.93432443018821232
97.009497869018190385759 2857.29537857128480027 97.009497869018190385759 363.90951653265091181
99.504748934509109403734 2861.95714451679987178 99.504748934509109403734 355.32503292506976322
nan nan nan nan

