Time Pressure difference Time.1 Pressure.1 difference.1
(hr) (psi) (hr) (psi)
0.000200000000006639311 0.85723971576675606 0.000200000000006639311 0.68458529348229868
0.000399999999999067768 1.71145569955230048 0.000399999999999067768 1.78016814570880677
0.000600000000005707079 2.56317350432575353 0.000600000000005707079 2.59910938128614788
0.000799999999998135536 3.41263614352669498 0.000799999999998135536 3.42963692880040449
0.001007140329434719206 4.29021024453453492 0.001007140329434719206 4.29816921434010091
0.001267914553963578328 5.39199558173014637 0.001267914553963578328 5.39475049305055254
0.001596209851982166583 6.77455205596917676 0.001596209851982166583 6.76718800398886344
0.002009509145210586212 8.50834934469973980 0.002009509145210586212 8.48295251906077397
0.002529822128138903281 10.68101482303228700 0.002529822128138903281 10.62505986634254818
0.003184857364445292660 13.40124215488577519 0.003184857364445292660 13.29518382922607778
0.004009497869020606231 16.80347149903650816 0.004009497869020606231 16.61714416881347844
0.005047658755842121536 21.05340245260362408 0.005047658755842121536 20.74068016066883047
0.006354625877804664924 26.35440904968467635 0.006354625877804664924 25.84532779456688800
0.008000000000009777068 32.95483366341345999 0.008000000000009777068 32.14406224738844031
0.010071403294347192059 41.15607251756664908 0.010071403294347192059 39.88618359358896726
0.012679145539692626699 51.32118813088689535 0.012679145539692626699 49.35852468332981857
0.015962098519750611558 63.88353566814958384 0.015962098519750611558 60.88380916312926416
0.020095091452091651263 79.35459665513911887 0.020095091452091651263 74.81451847103473085
0.025298221281346400247 98.32974846959128001 0.025298221281346400247 91.51991369836848378
0.031848573644282396344 121.49007559009918111 0.031848573644282396344 111.36335434526345978
0.040094978690191851456 149.59763118750012723 0.040094978690191851456 134.66649694389747083
0.050476587558421215363 183.48067828229588372 0.050476587558421215363 161.65976838765396906
0.063546258777947173257 224.00603856409745163 0.063546258777947173257 192.41230707912049525
0.079999999999998294697 272.03194805064782713 0.079999999999998294697 226.74712818414477056
0.100714032943542974863 328.34120917032669240 0.100714032943542974863 264.15260494988763185
0.126791455396897845276 393.55317008885145924 0.126791455396897845276 303.68667165565193500
0.159620985197506115583 468.01271551943983695 0.159620985197506115583 343.93533237231076782
0.200950914520774404082 551.68319503244390489 0.200950914520774404082 383.02346284339631666
0.252982212813464002465 644.04063145889028874 0.252982212813464002465 418.75224505578734124
0.318485736442795541734 744.03033880275279444 0.318485736442795541734 448.85869329445336007
0.400949786901819038576 850.08119207763252234 0.400949786901819038576 471.38629301036434072
0.504765875584169521062 960.23336950547206925 0.504765875584169521062 485.10530830632779953
0.635462587779443310865 1072.34624554868446467 0.635462587779443310865 489.81310720465648956
0.799999999999997157829 1184.36381797950684813 0.799999999999997157829 486.42782583633004378
1.007140329435330272645 1294.56428005314114671 1.007140329435330272645 476.81051801254557176
1.267914553968893187630 1401.74133177269368389 1.267914553968893187630 463.35239679062402729
1.596209851975103788391 1505.26124596682643642 1.596209851975103788391 448.45739720412535689
2.009509145207687197399 1605.00384614334143407 2.009509145207687197399 434.14319776243513616
2.529822128134711078928 1701.23422709767555716 2.529822128134711078928 421.79318324738892443
3.184857364427983839050 1794.42892509458465611 3.184857364427983839050 412.10688517017064214
4.009497869018190385759 1885.12472938218797935 4.009497869018190385759 405.20779514579822944
5.009497869018190385759 1970.90633371930130124 5.009497869018190385759 400.89451362618586927
6.009497869018190385759 2039.84194107076700675 6.009497869018190385759 398.82352224877712388
7.009497869018204596614 2097.39677761839311643 7.009497869018204596614 397.87566267131927589
8.009497869018190385759 2146.72241502067481633 8.009497869018190385759 397.63702306195528990
9.009497869018204596614 2189.84446563619985682 9.009497869018204596614 397.71038718943367485
10.009497869018190385759 2228.05500666983471092 10.009497869018190385759 397.81013624752438318
11.009497869018190385759 2262.35723453886657808 11.009497869018190385759 397.83962807378992466
12.009497869018190385759 2293.38179664164090354 12.009497869018190385759 398.14611671321074482
13.009497869018190385759 2321.66979026937406161 13.009497869018190385759 398.28321210254671314
14.009497869018204596614 2347.68383503232325893 14.009497869018204596614 398.35019493709000926
15.009497869018190385759 2371.67948431348577287 15.009497869018190385759 398.60183919462451740
16.009497869018190385759 2393.92132639319925147 16.009497869018190385759 398.60336867792540261
17.009497869018190385759 2414.66738746696501039 17.009497869018190385759 398.30974932493791130
18.009497869018190385759 2434.04767620589154831 18.009497869018190385759 398.41451796821945663
19.009497869018204596614 2452.18292749517559059 19.009497869018204596614 398.39959743449389862
20.009497869018190385759 2469.23346974190280889 20.009497869018190385759 398.40603429958150627
21.009497869018204596614 2485.37219163983991166 21.009497869018204596614 398.18280453347631465
22.009497869018190385759 2500.64036007484855872 22.009497869018190385759 398.08006830973505430
23.009497869018190385759 2515.09828501842912374 23.009497869018190385759 398.64204963588525743
24.009497869018190385759 2528.78964358828443437 24.009497869018190385759 398.71140935487113666
25.009497869018190385759 2541.81258213228920795 25.009497869018190385759 398.70076949555402734
26.009497869018204596614 2554.28334130895700582 26.009497869018204596614 398.89888895193138296
27.009497869018190385759 2566.21509780214501006 27.009497869018190385759 398.77739108233345178
28.009497869018190385759 2577.61702227852674696 28.009497869018190385759 398.91916705623214057
29.009497869018190385759 2588.52356143698716551 29.009497869018190385759 399.37903575761345110
30.009497869018190385759 2598.95013452720968417 30.009497869018190385759 399.40425662813004237
31.009497869018190385759 2608.95002692299067348 31.009497869018190385759 399.25817248065942522
32.009497869018190385759 2618.57940716340362997 32.009497869018190385759 399.07650736368105981
33.009497869018190385759 2627.86504257188471456 33.009497869018190385759 398.91570677519052879
34.009497869018190385759 2636.80764705269166370 34.009497869018190385759 398.60140734451903199
35.009497869018190385759 2645.41426701851150938 35.009497869018190385759 398.52607201485551514
36.009497869018190385759 2653.70736663760453666 36.009497869018190385759 398.51504385741094438
37.009497869018190385759 2661.69971219143826602 37.009497869018190385759 398.36606327370458303
38.009497869018190385759 2669.40056758480068311 38.009497869018190385759 398.01321812638980191
39.009497869018190385759 2676.84149487450667948 39.009497869018190385759 397.45779710296739040
40.009497869018190385759 2684.04782828899624292 40.009497869018190385759 396.68482760988098335
41.009497869018190385759 2691.04008070461168245 41.009497869018190385759 396.24062545999288432
42.009497869018190385759 2697.81227448975096195 42.009497869018190385759 395.40376486767451070
43.009497869018190385759 2704.36917361248697489 43.009497869018190385759 394.84474893201320356
44.009497869018218807469 2710.71226966412950787 44.009497869018218807469 394.34710919289688036
46.009497869018190385759 2722.81119368239251344 46.009497869018190385759 392.99602846914723386
48.009497869018190385759 2734.12865212951555804 48.009497869018190385759 391.61524915783087408
50.009497869018190385759 2744.79258885012768587 50.009497869018190385759 390.39749690948605121
52.009497869018190385759 2754.90912589994331938 52.009497869018190385759 389.53849908605150176
54.009497869018190385759 2764.49528647194210862 54.009497869018190385759 388.72410363645315101
56.009497869018190385759 2773.57199213472040356 56.009497869018190385759 388.36828599204949342
58.009497869018218807469 2782.20267687017440039 58.009497869018218807469 388.04572214519771478
60.009497869018190385759 2790.48854190168594869 60.009497869018190385759 387.58993289149793782
62.009497869018190385759 2798.40266276097554510 62.009497869018190385759 387.06901745806686677
64.009497869018190385759 2805.97132941617610413 64.009497869018190385759 386.64487670969549526
66.009497869018190385759 2813.21215110770799583 66.009497869018190385759 386.17733560801684689
68.009497869018190385759 2820.13528301939140874 68.009497869018190385759 385.21417355273217709
70.009497869018190385759 2826.74056360503391261 70.009497869018190385759 384.46499650877291288
72.009497869018218807469 2833.06703937887277789 72.009497869018218807469 382.46293100223454076
74.009497869018190385759 2839.14516120311645864 74.009497869018190385759 380.70053887065648723
76.009497869018190385759 2844.99751290746371524 76.009497869018190385759 379.23006431970929953
78.009497869018190385759 2850.61467123623606312 78.009497869018190385759 377.30041165785223711
80.009497869018190385759 2855.99659829787287890 80.009497869018190385759 376.02900749823174920
82.009497869018218807469 2861.14856773207475271 82.009497869018218807469 374.85749727625653804
84.009497869018190385759 2866.08804421816103059 84.009497869018190385759 373.21314864457661997
86.009497869018190385759 2870.77461116121958185 86.009497869018190385759 371.40963770693264223
88.009497869018190385759 2875.25760491637720406 88.009497869018190385759 370.25035066359276925
91.009497869018218807469 2881.68381559890485732 91.009497869018218807469 369.23487271509645780
94.009497869018190385759 2887.84016169758660908 94.009497869018190385759 368.57725496757041128
97.009497869018190385759 2893.74762579545267727 97.009497869018190385759 368.55213058066311760
99.504748934509109403734 2898.46886471181278466 99.504748934509109403734 359.85812951783321978
nan nan nan nan

