Time Pressure difference Time.1 Pressure.1 difference.1
(hr) (psi) (hr) (psi)
0.000200000000006639311 0.28823854784017860 0.000200000000006639311 0.23018517135499772
0.000399999999999067768 0.57546039510140334 0.000399999999999067768 0.59856428930325190
0.000600000000005707079 0.86184225387697333 0.000600000000005707079 0.87392534428904378
0.000799999999998135536 1.14746583508116573 0.000799999999998135536 1.15318218439315934
0.001007140329434719206 1.44254162292004207 0.001007140329434719206 1.44521774939536307
0.001267914553963578328 1.81300626633755901 0.001267914553963578328 1.81393257857416823
0.001596209851982166583 2.27787748393537237 0.001596209851982166583 2.27540139281408482
0.002009509145210586212 2.86085002190969950 0.002009509145210586212 2.85231058538186844
0.002529822128138903281 3.59138773603895745 0.002529822128138903281 3.57257342405122502
0.003184857364445292660 4.50603781758271715 0.003184857364445292660 4.47037673327659757
0.004009497869020606231 5.65000446721479488 0.004009497869020606231 5.58735370792468800
0.005047658755842121536 7.07900256885024959 0.005047658755842121536 6.97385272844194137
0.006354625877804664924 8.86141467077575840 0.006354625877804664924 8.69024103170030138
0.008000000000009777068 11.08074348953921628 0.008000000000009777068 10.80812945721297424
0.010071403294347192059 13.83833058487948620 0.010071403294347192059 13.41134273931722198
0.012679145539692626699 17.25625221067611292 0.012679145539692626699 16.59632564449171355
0.015962098519750611558 21.48021984190688372 0.015962098519750611558 20.47159087171109704
0.020095091452091651263 26.68221418540046130 0.020095091452091651263 25.15565688900101904
0.025298221281346400247 33.06242511525985606 0.025298221281346400247 30.77268416020723052
0.031848573644282396344 40.84986068775621249 0.031848573644282396344 37.44484879632404528
0.040094978690191851456 50.30075389734741975 0.040094978690191851456 45.28030468946941056
0.050476587558421215363 61.69360015887273363 0.050476587558421215363 54.35653064972473913
0.063546258777947173257 75.31985986602887806 0.063546258777947173257 64.69677379501435155
0.079999999999998294697 91.46810656354148250 0.079999999999998294697 76.24152468982387632
0.100714032943542974863 110.40154998265829533 0.100714032943542974863 88.81875379613470045
0.126791455396897845276 132.32843994266613663 0.126791455396897845276 102.11170064390621803
0.159620985197506115583 157.36474058647831953 0.159620985197506115583 115.64492280348045483
0.200950914520774404082 185.49812856226554914 0.200950914520774404082 128.78792791342880264
0.252982212813464002465 216.55242162425864194 0.252982212813464002465 140.80138472321533527
0.318485736442795541734 250.17299182611938591 0.318485736442795541734 150.92438621431716683
0.400949786901819038576 285.83156361525044531 0.400949786901819038576 158.49907332809729610
0.504765875584169521062 322.86916590930115945 0.504765875584169521062 163.11195928517028619
0.635462587779443310865 360.56603411375334645 0.635462587779443310865 164.69491104652695412
0.799999999999997157829 398.23085740202407123 0.799999999999997157829 163.55664298954121705
1.007140329435330272645 435.28469494034879972 1.007140329435330272645 160.32291642476096172
1.267914553968893187630 471.32194004372547624 1.267914553968893187630 155.79775357204121633
1.596209851975103788391 506.12950809155881871 1.596209851975103788391 150.78945429247238508
2.009509145207687197399 539.66699090284839713 2.009509145207687197399 145.97644343368699538
2.529822128134711078928 572.02352403381144086 2.529822128134711078928 141.82387072368601366
3.184857364427983839050 603.35933818587295718 3.184857364427983839050 138.56694685469884121
4.009497869018190385759 633.85492354226664702 4.009497869018190385759 136.24719468565115221
5.009497869018190385759 662.69815678352460964 5.009497869018190385759 134.79689557004505218
6.009497869018190385759 685.87708677476371122 6.009497869018190385759 134.10054478713726667
7.009497869018204596614 705.22934286199847520 7.009497869018204596614 133.78183618890290063
8.009497869018190385759 721.81461047691288968 8.009497869018190385759 133.70159593265356079
9.009497869018204596614 736.31398214705552618 9.009497869018204596614 133.72626390962545884
10.009497869018190385759 749.16190631243478038 10.009497869018190385759 133.75980356384781089
11.009497869018190385759 760.69569804746777208 11.009497869018190385759 133.76971990465611384
12.009497869018190385759 771.12740642892379128 12.009497869018190385759 133.87277373981021356
13.009497869018190385759 780.63897017778378995 13.009497869018190385759 133.91887073603072622
14.009497869018204596614 789.38594065524807775 14.009497869018204596614 133.94139306508742493
15.009497869018190385759 797.45424521005782026 15.009497869018190385759 134.02600600827005906
16.009497869018190385759 804.93284908763587282 16.009497869018190385759 134.02652028220941816
17.009497869018190385759 811.90851109596599144 17.009497869018190385759 133.92779361991614451
18.009497869018190385759 818.42494539093456751 18.009497869018190385759 133.96302106101953200
19.009497869018204596614 824.52274790777710223 19.009497869018204596614 133.95800417613310174
20.009497869018190385759 830.25582751980641660 20.009497869018190385759 133.96016850964613809
21.009497869018204596614 835.68231637502367448 21.009497869018204596614 133.88510966387235612
22.009497869018190385759 840.81609006392682204 22.009497869018190385759 133.85056560414543014
23.009497869018190385759 845.67742723003379979 23.009497869018190385759 134.03952637950791882
24.009497869018190385759 850.28101388094444246 24.009497869018190385759 134.06284791292662817
25.009497869018190385759 854.65985077510117662 25.009497869018190385759 134.05927036333065416
26.009497869018204596614 858.85302270756596954 26.009497869018204596614 134.12588611077538303
27.009497869018190385759 862.86496021060486328 27.009497869018190385759 134.08503362942803960
28.009497869018190385759 866.69874683202408505 28.009497869018190385759 134.13270442685325179
29.009497869018190385759 870.36596494053742390 29.009497869018190385759 134.28733082160064782
30.009497869018190385759 873.87179910943973482 30.009497869018190385759 134.29581109492357882
31.009497869018190385759 877.23416602933889408 31.009497869018190385759 134.24669171588064387
32.009497869018190385759 880.47195182722964546 32.009497869018190385759 134.18560858061758267
33.009497869018190385759 883.59415675624416053 33.009497869018190385759 134.13154094088287138
34.009497869018190385759 886.60102085977143815 34.009497869018190385759 134.02586080285669823
35.009497869018190385759 889.49491342579801767 35.009497869018190385759 134.00053002825083581
36.009497869018190385759 892.28338781322554496 36.009497869018190385759 133.99682191717209889
37.009497869018190385759 894.97073656049326473 37.009497869018190385759 133.94672863951112163
38.009497869018190385759 897.56007456581960469 38.009497869018190385759 133.82808787776866666
39.009497869018190385759 900.06201426497466400 39.009497869018190385759 133.64133294062952473
40.009497869018190385759 902.48507404678457533 40.009497869018190385759 133.38142943859369893
41.009497869018190385759 904.83615116715134263 41.009497869018190385759 133.23207076997823606
42.009497869018190385759 907.11323570537172145 42.009497869018190385759 132.95068450492544798
43.009497869018190385759 909.31792949954751748 43.009497869018190385759 132.76272081338041176
44.009497869018218807469 911.45073408280313743 44.009497869018218807469 132.59539427319305105
46.009497869018190385759 915.51888004630836804 46.009497869018190385759 132.14110647169971458
48.009497869018190385759 919.32426578385843641 48.009497869018190385759 131.67683280791408151
50.009497869018190385759 922.90991117344401573 50.009497869018190385759 131.26737541433300294
52.009497869018190385759 926.31149872798482647 52.009497869018190385759 130.97854571982546190
54.009497869018190385759 929.53475233116648724 54.009497869018190385759 130.70471314132677776
56.009497869018190385759 932.58670665770148389 56.009497869018190385759 130.58507290624146435
58.009497869018218807469 935.48869076933203814 58.009497869018218807469 130.47661393835619492
60.009497869018190385759 938.27473259678788509 60.009497869018190385759 130.32335921836218517
62.009497869018190385759 940.93577904850633331 62.009497869018190385759 130.14820645150115297
64.009497869018190385759 943.48066987152435559 64.009497869018190385759 130.00559323475226847
66.009497869018190385759 945.91532600230107164 66.009497869018190385759 129.84838706974986167
68.009497869018190385759 948.24316202299314682 68.009497869018190385759 129.52453316162603869
70.009497869018190385759 950.46412361525835877 70.009497869018190385759 129.27262964006223456
72.009497869018218807469 952.59133979115210877 72.009497869018218807469 128.59945451334823474
74.009497869018190385759 954.63504935802461659 74.009497869018190385759 128.00686723654825983
76.009497869018190385759 956.60284590977710195 76.009497869018190385759 127.51243441757665664
78.009497869018190385759 958.49156096799799798 78.009497869018190385759 126.86360740821193360
80.009497869018190385759 960.30118179201735984 80.009497869018190385759 126.43611007934731560
82.009497869018218807469 962.03348159208314883 82.009497869018218807469 126.04220111905137003
84.009497869018190385759 963.69433269738556191 84.009497869018190385759 125.48930482525977936
86.009497869018190385759 965.27014541951859883 86.009497869018190385759 124.88289174835814777
88.009497869018190385759 966.77750862982838953 88.009497869018190385759 124.49309271343669536
91.009497869018218807469 968.93825970234502165 91.009497869018218807469 124.15164809315743355
94.009497869018190385759 971.00827142351045040 94.009497869018190385759 123.93053049781681807
97.009497869018190385759 972.99459898354859888 97.009497869018190385759 123.92208266617259937
99.504748934509109403734 974.58206982073568270 99.504748934509109403734 120.99880905299235678
nan nan nan nan

