Time Pressure difference Time.1 Pressure.1 difference.1
(hr) (psi) (hr) (psi)
0.000200000000006639311 0.24753627451404389 0.000200000000006639311 0.19768063707143896
0.000399999999999067768 0.49419941711878446 0.000399999999999067768 0.51404080176475231
0.000600000000005707079 0.74014118632662262 0.000600000000005707079 0.75051801901479842
0.000799999999998135536 0.98543175462301869 0.000799999999998135536 0.99034089610709364
0.001007140329434719206 1.23883977991404182 0.001007140329434719206 1.24113800956719955
0.001267914553963578328 1.55699097224378247 0.001267914553963578328 1.55778647958242678
0.001596209851982166583 1.95621755104536321 0.001596209851982166583 1.95409110967895461
0.002009509145210586212 2.45686831852763854 0.002009509145210586212 2.44953473903111485
0.002529822128138903281 3.08424652835622259 0.002529822128138903281 3.06808899241286781
0.003184857364445292660 3.86973852922089234 0.003184857364445292660 3.83911315998970082
0.004009497869020606231 4.85216521968302317 0.004009497869020606231 4.79836139758373736
0.005047658755842121536 6.07937396402701502 0.005047658755842121536 5.98907237197607678
0.006354625877804664924 7.61009098527716521 0.006354625877804664924 7.46308883990400584
0.008000000000009777068 9.51602755009419710 0.008000000000009777068 9.28190944740480184
0.010071403294347192059 11.88421473859967392 0.010071403294347192059 11.51752200667588433
0.012679145539692626699 14.81949037112819134 0.012679145539692626699 14.25275228258942484
0.015962098519750611558 18.44698995068660352 0.015962098519750611558 17.58078985524468862
0.020095091452091651263 22.91440872406149154 0.020095091452091651263 21.60341715539568952
0.025298221281346400247 28.39366767823468862 0.025298221281346400247 26.42726190127307007
0.031848573644282396344 35.08143655605577038 0.031848573644282396344 32.15724766946560464
0.040094978690191851456 43.19776559484015621 0.040094978690191851456 38.88625590046652292
0.050476587558421215363 52.98182376756218304 0.050476587558421215363 46.68082459255899863
0.063546258777947173257 64.68391423653200434 0.063546258777947173257 55.56091812943596153
0.079999999999998294697 78.55186096811341656 0.079999999999998294697 65.47543042526660884
0.100714032943542974863 94.81170574879588742 0.100714032943542974863 76.27662429754506945
0.126791455396897845276 113.64229136286601829 0.126791455396897845276 87.69246914087624134
0.159620985197506115583 135.14320661317159988 0.159620985197506115583 99.31465992921376085
0.200950914520774404082 159.30386833301190563 0.200950914520774404082 110.60173636369388817
0.252982212813464002465 185.97297303754777431 0.252982212813464002465 120.91876843665177432
0.318485736442795541734 214.84596992560108220 0.318485736442795541734 129.61229709471621163
0.400949786901819038576 245.46918143326988115 0.400949786901819038576 136.11735980338039553
0.504765875584169521062 277.27669003161884120 0.504765875584169521062 140.07885840628458141
0.635462587779443310865 309.65036935417435870 0.635462587779443310865 141.43828095638335185
0.799999999999997157829 341.99652883516762358 0.799999999999997157829 140.46074815816507453
1.007140329435330272645 373.81798009286438855 1.007140329435330272645 137.68365733307999221
1.267914553968893187630 404.76639231420801934 1.267914553968893187630 133.79749442209882204
1.596209851975103788391 434.65877063770761879 1.596209851975103788391 129.49641896010595588
2.009509145207687197399 463.46041293674011285 2.009509145207687197399 125.36305516783495762
2.529822128134711078928 491.24786790223583921 2.529822128134711078928 121.79686880593206411
3.184857364427983839050 518.15873999824248131 3.184857364427983839050 118.99985637665781724
4.009497869018190385759 544.34803232160084008 4.009497869018190385759 117.00767728047273408
5.009497869018190385759 569.11830179103844785 5.009497869018190385759 115.76217544632110901
6.009497869018190385759 589.02412639446572484 6.009497869018190385759 115.16415661834842865
7.009497869018204596614 605.64364314949727941 7.009497869018204596614 114.89045298067165390
8.009497869018190385759 619.88689891100875684 8.009497869018190385759 114.82154348106848829
9.009497869018204596614 632.33880887556938433 9.009497869018204596614 114.84272808377058084
10.009497869018190385759 643.37247285621197079 10.009497869018190385759 114.87153159085490017
11.009497869018190385759 653.27757353932383921 11.009497869018190385759 114.88004764146261039
12.009497869018190385759 662.23621647210165975 12.009497869018190385759 114.96854920594651617
13.009497869018190385759 670.40464874057511224 13.009497869018190385759 115.00813682806096949
14.009497869018204596614 677.91645623995373171 14.009497869018204596614 115.02747877059383086
15.009497869018190385759 684.84543248587090147 15.009497869018190385759 115.10014348837025011
16.009497869018190385759 691.26797990811382988 16.009497869018190385759 115.10058514149396558
17.009497869018190385759 697.25860607088714005 17.009497869018190385759 115.01579970817005005
18.009497869018190385759 702.85485223774787755 18.009497869018190385759 115.04605266911764261
19.009497869018204596614 708.09158177670781242 19.009497869018204596614 115.04174422042557069
20.009497869018190385759 713.01509106888272527 20.009497869018190385759 115.04360292759234596
21.009497869018204596614 717.67530339987615662 21.009497869018204596614 114.97914316955032632
22.009497869018190385759 722.08413498285358401 22.009497869018190385759 114.94947708943900011
23.009497869018190385759 726.25900090648440255 23.009497869018190385759 115.11175464292034576
24.009497869018190385759 730.21251336173327218 24.009497869018190385759 115.13178293386783935
25.009497869018190385759 733.97301305757969203 25.009497869018190385759 115.12871057139059872
26.009497869018204596614 737.57406561053210226 26.009497869018204596614 115.18591948418173843
27.009497869018190385759 741.01947591573559748 27.009497869018190385759 115.15083579703041039
28.009497869018190385759 744.31189209205524548 28.009497869018190385759 115.19177498329183607
29.009497869018190385759 747.46126095757972507 29.009497869018190385759 115.32456652690775911
30.009497869018190385759 750.47203497006648831 30.009497869018190385759 115.33184929765769766
31.009497869018190385759 753.35960079753022001 31.009497869018190385759 115.28966608453148979
32.009497869018190385759 756.14017764989750958 32.009497869018190385759 115.23720852168311524
33.009497869018190385759 758.82149485118372922 33.009497869018190385759 115.19077579361122332
34.009497869018190385759 761.40375854816102219 34.009497869018190385759 115.10001878746770387
35.009497869018190385759 763.88900346077184622 35.009497869018190385759 115.07826498103388246
36.009497869018190385759 766.28371633527729045 36.009497869018190385759 115.07508049370974845
37.009497869018190385759 768.59158355915553784 37.009497869018190385759 115.03206090655422145
38.009497869018190385759 770.81528017468087910 38.009497869018190385759 114.93017345122495954
39.009497869018190385759 772.96392003159212436 39.009497869018190385759 114.76979024872507296
40.009497869018190385759 775.04481863383796281 40.009497869018190385759 114.54658781758190855
41.009497869018190385759 777.06389927323084521 41.009497869018190385759 114.41832014251733085
42.009497869018190385759 779.01943585072262977 42.009497869018190385759 114.17666853737114252
43.009497869018190385759 780.91280400825689867 43.009497869018190385759 114.01524726912782626
44.009497869018218807469 782.74443445727752078 44.009497869018218807469 113.87154897236750628
46.009497869018190385759 786.23811600518695286 46.009497869018190385759 113.48141132151731370
48.009497869018190385759 789.50614179708884421 48.009497869018190385759 113.08269791573023610
50.009497869018190385759 792.58545685788567425 50.009497869018190385759 112.73106015409578617
52.009497869018190385759 795.50670495947974814 52.009497869018190385759 112.48301620895672670
54.009497869018190385759 798.27480171379716012 54.009497869018190385759 112.24785163145642741
56.009497869018190385759 800.89578842649871149 56.009497869018190385759 112.14510583878949035
58.009497869018218807469 803.38798227452718947 58.009497869018218807469 112.05196240239236261
60.009497869018190385759 805.78060609176588969 60.009497869018190385759 111.92034883882401175
62.009497869018190385759 808.06588517710338238 62.009497869018190385759 111.76992945979061744
64.009497869018190385759 810.25141101358565265 64.009497869018190385759 111.64745470880741607
66.009497869018190385759 812.34226844001648260 66.009497869018190385759 111.51244768526066764
68.009497869018190385759 814.34138986412665417 68.009497869018190385759 111.23432530883157199
70.009497869018190385759 816.24872863788766608 70.009497869018190385759 111.01799317792087152
72.009497869018218807469 818.07555982064366162 72.009497869018218807469 110.43987736304833902
74.009497869018190385759 819.83067639392322690 74.009497869018190385759 109.93096955761204470
76.009497869018190385759 821.52059965738783376 76.009497869018190385759 109.50635578224164135
78.009497869018190385759 823.14260855464965516 78.009497869018190385759 108.94914987794570038
80.009497869018190385759 824.69669214415330316 80.009497869018190385759 108.58201960704754185
82.009497869018218807469 826.18437324046340109 82.009497869018218807469 108.24373467860894493
84.009497869018190385759 827.61069493896513904 84.009497869018190385759 107.76891307760061522
86.009497869018190385759 828.96398655624375351 86.009497869018190385759 107.24813181847471810
88.009497869018190385759 830.25849444290747670 88.009497869018190385759 106.91337645130874989
91.009497869018218807469 832.11412504697057102 91.009497869018218807469 106.62014735377786678
94.009497869018190385759 833.89182963748146449 94.009497869018190385759 106.43025385691471740
97.009497869018190385759 835.59766713860926757 97.009497869018190385759 106.42299894674187044
99.504748934509109403734 836.96097062414753509 99.504748934509109403734 103.91252189565338426
nan nan nan nan

