Time Pressure difference Time.1 Pressure.1 difference.1
(hr) (psi) (hr) (psi)
0.000200000000006639311 0.75922199632830911 0.000200000000006639311 0.60630906806474905
0.000399999999999067768 1.51576599747170793 0.000399999999999067768 1.57662178796303243
0.000600000000005707079 2.27009746410246027 0.000600000000005707079 2.30192439389102654
0.000799999999998135536 3.02243162323972792 0.000799999999998135536 3.03748852027477723
0.001007140329434719206 3.79966294913232971 0.001007140329434719206 3.80671188169268593
0.001267914553963578328 4.77546895513697045 0.001267914553963578328 4.77790886690717453
0.001596209851982166583 5.99994242166262293 0.001596209851982166583 5.99342038337773353
0.002009509145210586212 7.53549544675926697 0.002009509145210586212 7.51300252172630589
0.002529822128138903281 9.45973599636774232 0.002529822128138903281 9.41017899015221815
0.003184857364445292660 11.86892958291240241 0.003184857364445292660 11.77499808131069337
0.004009497869020606231 14.88214433151101801 0.004009497869020606231 14.71712187044139597
0.005047658755842121536 18.64613356751910089 0.005047658755842121536 18.36916828183266759
0.006354625877804664924 23.34101731725949236 0.006354625877804664924 22.89014496534315768
0.008000000000009777068 29.18674221740300467 0.008000000000009777068 28.46867528499325317
0.010071403294347192059 36.45024252040302315 0.010071403294347192059 35.32555407416697335
0.012679145539692626699 45.45306778258780867 0.012679145539692626699 43.71481740364676227
0.015962098519750611558 56.57902286888441523 0.015962098519750611558 53.92228834796524950
0.020095091452091651263 70.28110595232283231 0.020095091452091651263 66.26014523500556663
0.025298221281346400247 87.08661831512250728 0.025298221281346400247 81.05542744215968298
0.031848573644282396344 107.59876849743278626 0.031848573644282396344 98.62994754997170332
0.040094978690191851456 132.49247568350301663 0.040094978690191851456 119.26858353364563925
0.050476587558421215363 162.50129840118066227 0.050476587558421215363 143.17541502549974552
0.063546258777947173257 198.39294500734985149 0.063546258777947173257 170.41167506813579280
0.079999999999998294697 240.92751988206600799 0.079999999999998294697 200.82061546541504526
0.100714032943542974863 290.79831897449474809 0.100714032943542974863 233.94910942267179621
0.126791455396897845276 348.55387350892465292 0.126791455396897845276 268.96280803611034571
0.159620985197506115583 414.49963370617058445 0.159620985197506115583 304.60939320570935251
0.200950914520774404082 488.60313978648616740 0.200950914520774404082 339.22814441750409742
0.252982212813464002465 570.40032669905599505 0.252982212813464002465 370.87165889630779247
0.318485736442795541734 658.95710238925971680 0.318485736442795541734 397.53570316970001386
0.400949786901819038576 752.88198600674036243 0.400949786901819038576 417.48747268553580625
0.504765875584169521062 850.43924392248197819 0.504765875584169521062 429.63784088370499603
0.635462587779443310865 949.73301204602466896 0.635462587779443310865 433.80734494675976975
0.799999999999997157829 1048.94237367564846863 0.799999999999997157829 430.80914032403649117
1.007140329435330272645 1146.54239531838265975 1.007140329435330272645 422.29148591421181891
1.267914553968893187630 1241.46470662814135721 1.267914553968893187630 410.37218087851783821
1.596209851975103788391 1333.14804148612324752 1.596209851975103788391 397.18029170985522569
2.009509145207687197399 1421.48596451067260205 2.009509145207687197399 384.50279336711798805
2.529822128134711078928 1506.71325927061593575 2.529822128134711078928 373.56489291483865145
3.184857364427983839050 1589.25197435702557414 3.184857364427983839050 364.98613667203102295
4.009497869018190385759 1669.57752195282910179 4.009497869018190385759 358.87589608842978350
5.009497869018190385759 1745.55076455372204691 5.009497869018190385759 355.05579985885066208
6.009497869018190385759 1806.60419974678393373 6.009497869018190385759 353.22160788312237401
7.009497869018204596614 1857.57815382094145207 7.009497869018204596614 352.38212759843582944
8.009497869018190385759 1901.26384431094629690 8.009497869018190385759 352.17077430099527646
9.009497869018204596614 1939.45527285996763567 9.009497869018204596614 352.23574989451782358
10.009497869018190385759 1973.29677916301284313 10.009497869018190385759 352.32409353705162403
11.009497869018190385759 2003.67685307027522867 11.009497869018190385759 352.35021323589535314
12.009497869018190385759 2031.15403307215092354 12.009497869018190385759 352.62165763166149191
13.009497869018190385759 2056.20754680834079409 13.009497869018190385759 352.74307738539505408
14.009497869018204596614 2079.24711746079765362 14.009497869018204596614 352.80240132994214264
15.009497869018190385759 2100.49907816136237670 15.009497869018190385759 353.02527230996781782
16.009497869018190385759 2120.19776387924821393 16.009497869018190385759 353.02662691048817578
17.009497869018190385759 2138.57169781473476178 17.009497869018190385759 352.76658031297796470
18.009497869018190385759 2155.73602330638095737 18.009497869018190385759 352.85936959588428863
19.009497869018204596614 2171.79767028157993991 19.009497869018204596614 352.84615509217775298
20.009497869018190385759 2186.89863502335174417 20.009497869018190385759 352.85185595912548706
21.009497869018204596614 2201.19203794458644552 21.009497869018204596614 352.65415052674160279
22.009497869018190385759 2214.71442743063153102 22.009497869018190385759 352.56316127431961149
23.009497869018190385759 2227.51921754539171161 23.009497869018190385759 353.06088504573557429
24.009497869018190385759 2239.64509131753129623 24.009497869018190385759 353.12231409917853853
25.009497869018190385759 2251.17897293499254374 25.009497869018190385759 353.11289081292284209
26.009497869018204596614 2262.22381197324284585 26.009497869018204596614 353.28835707564468294
27.009497869018190385759 2272.79127847980680599 27.009497869018190385759 353.18075140431477621
28.009497869018190385759 2282.88949453737768636 28.009497869018190385759 353.30631655949241576
29.009497869018190385759 2292.54896817190547154 29.009497869018190385759 353.71360337447549682
30.009497869018190385759 2301.78335557933132804 30.009497869018190385759 353.73594046328571494
31.009497869018190385759 2310.63984942598199268 31.009497869018190385759 353.60655973577780742
32.009497869018190385759 2319.16819587921554557 32.009497869018190385759 353.44566640543075664
33.009497869018190385759 2327.39210165765734928 33.009497869018190385759 353.30325193074048684
34.009497869018190385759 2335.31219903697729023 34.009497869018190385759 353.02488983807211298
35.009497869018190385759 2342.93472873538757995 35.009497869018190385759 352.95816843176157818
36.009497869018190385759 2350.27958634377000635 36.009497869018190385759 352.94840124580775864
37.009497869018190385759 2357.35807843311476972 37.009497869018190385759 352.81645526372670929
38.009497869018190385759 2364.17840966328276409 38.009497869018190385759 352.50395481348863314
39.009497869018190385759 2370.76853325125921401 39.009497869018190385759 352.01204123266677470
40.009497869018190385759 2377.15088668230828262 40.009497869018190385759 351.32745391030158544
41.009497869018190385759 2383.34363736823161162 41.009497869018190385759 350.93404231631149059
42.009497869018190385759 2389.34149116631033394 42.009497869018190385759 350.19286927233963524
43.009497869018190385759 2395.14866732733844401 43.009497869018190385759 349.69777182544572725
44.009497869018218807469 2400.76648689245575952 44.009497869018218807469 349.25703275417419036
46.009497869018190385759 2411.48200680785521399 46.009497869018190385759 348.06043606666719370
48.009497869018190385759 2421.50541477362139631 48.009497869018190385759 346.83753656032700974
50.009497869018190385759 2430.95002539633424021 50.009497869018190385759 345.75902342564950231
52.009497869018190385759 2439.90982662068608988 52.009497869018190385759 344.99824434559212705
54.009497869018190385759 2448.39989518929769474 54.009497869018190385759 344.27696775554090891
56.009497869018190385759 2456.43876047590538292 56.009497869018190385759 343.96183468675701533
58.009497869018218807469 2464.08260335207341996 58.009497869018218807469 343.67615314022356188
60.009497869018190385759 2471.42105358346998401 60.009497869018190385759 343.27247932444680600
62.009497869018190385759 2478.43026527474012255 62.009497869018190385759 342.81112592700878849
64.009497869018190385759 2485.13352237052777127 64.009497869018190385759 342.43548189211401223
66.009497869018190385759 2491.54642065159396225 66.009497869018190385759 342.02139994741025930
68.009497869018190385759 2497.67795414701913614 68.009497869018190385759 341.16836688681900114
70.009497869018190385759 2503.52797978197759221 70.009497869018190385759 340.50485155912645041
72.009497869018218807469 2509.13107944989360476 72.009497869018218807469 338.73170439538984056
74.009497869018190385759 2514.51422222834116837 74.009497869018190385759 337.17082609281010264
76.009497869018190385759 2519.69740968742416953 76.009497869018190385759 335.86848719788207518
78.009497869018190385759 2524.67229603674422833 78.009497869018190385759 334.15947311557840749
80.009497869018190385759 2529.43884771730199645 80.009497869018190385759 333.03344268738743494
82.009497869018218807469 2534.00173537511273025 82.009497869018218807469 331.99588421559923290
84.009497869018190385759 2538.37642675910774415 84.009497869018190385759 330.53955219103005447
86.009497869018190385759 2542.52712655170080325 86.009497869018190385759 328.94225665129494018
88.009497869018190385759 2546.49752993562879055 88.009497869018190385759 327.91552374663149294
91.009497869018218807469 2552.18896071453400509 91.009497869018218807469 327.01615664883541967
94.009497869018190385759 2557.64138351898691326 94.009497869018190385759 326.43373162825520239
97.009497869018190385759 2562.87338176070124973 97.009497869018190385759 326.41147999101366395
99.504748934509109403734 2567.05478909553949052 99.504748934509109403734 318.71156044505767113
nan nan nan nan

