Time Pressure difference Time.1 Pressure.1 difference.1
(hr) (psi) (hr) (psi)
0.000200000000006639311 0.29239184103672300 0.000200000000006639311 0.23350196056760575
0.000399999999999067768 0.58375233163024198 0.000399999999999067768 0.60718913497044569
0.000600000000005707079 0.87426073015762129 0.000600000000005707079 0.88651792850070166
0.000799999999998135536 1.16399992492383397 0.000799999999998135536 1.16979864238153319
0.001007140329434719206 1.46332752526759302 0.001007140329434719206 1.46604221264313517
0.001267914553963578328 1.83913027593896450 0.001267914553963578328 1.84006993561414189
0.001596209851982166583 2.31069992606700625 0.001596209851982166583 2.30818815639930230
0.002009509145210586212 2.90207264470378767 0.002009509145210586212 2.89341016154010910
0.002529822128138903281 3.64313683886372575 0.002529822128138903281 3.62405142727962870
0.003184857364445292660 4.57096631639514861 0.003184857364445292660 4.53479138361199574
0.004009497869020606231 5.73141663533028201 0.004009497869020606231 5.66786312734723374
0.005047658755842121536 7.18100548770976310 0.005047658755842121536 7.07434051991805024
0.006354625877804664924 8.98910076113275736 0.006354625877804664924 8.81546064310808752
0.008000000000009777068 11.24040838131931963 0.008000000000009777068 10.96386619290768571
0.010071403294347192059 14.03773016103048654 0.010071403294347192059 13.60458975285205163
0.012679145539692626699 17.50490137797692114 0.012679145539692626699 16.83546578346133415
0.015962098519750611558 21.78973309611303222 0.015962098519750611558 20.76657056726889294
0.020095091452091651263 27.06668413043504984 0.020095091452091651263 25.51813033120564356
0.025298221281346400247 33.53882893536446375 0.025298221281346400247 31.21609459479235227
0.031848573644282396344 41.43847539507258659 0.031848573644282396344 37.98439993171776763
0.040094978690191851456 51.02554862209306208 0.040094978690191851456 45.93275864753092463
0.050476587558421215363 62.58255693349627080 0.050476587558421215363 55.13976596168043187
0.063546258777947173257 76.40516044046735544 0.063546258777947173257 65.62900396497133215
0.079999999999998294697 92.78609080797291142 0.079999999999998294697 77.34010573722767390
0.100714032943542974863 111.99235041468507745 0.100714032943542974863 90.09856292864384386
0.126791455396897845276 134.23518979774777904 0.126791455396897845276 103.58305079727662701
0.159620985197506115583 159.63224405314227283 0.159620985197506115583 117.31127615799746877
0.200950914520774404082 188.17101225912816176 0.200950914520774404082 130.64366174503439311
0.252982212813464002465 219.67277352086179576 0.252982212813464002465 142.83022311980343488
0.318485736442795541734 253.77778997923348925 0.318485736442795541734 153.09908918570502578
0.400949786901819038576 289.95017404198318900 0.400949786901819038576 160.78292164694596522
0.504765875584169521062 327.52145936620752309 0.504765875584169521062 165.46227570138310625
0.635462587779443310865 365.76151010962877308 0.635462587779443310865 167.06803656592936136
0.799999999999997157829 403.96905419456044228 0.799999999999997157829 165.91336695192651973
1.007140329435330272645 441.55680870029613061 1.007140329435330272645 162.63304490350390097
1.267914553968893187630 478.11332246510477262 1.267914553968893187630 158.04267797509658067
1.596209851975103788391 513.42244048480904439 1.596209851975103788391 152.96221299985671749
2.009509145207687197399 547.44317232796140615 2.009509145207687197399 148.07985039959027063
2.529822128134711078928 580.26593792478865907 2.529822128134711078928 143.86744234794662134
3.184857364427983839050 612.05327677644743289 3.184857364427983839050 140.56358874021324823
4.009497869018190385759 642.98827978927340610 4.009497869018190385759 138.21041074740401200
5.009497869018190385759 672.24712157867634232 5.009497869018190385759 136.73921395001687529
6.009497869018190385759 695.76004191561048629 6.009497869018190385759 136.03282929415655644
7.009497869018204596614 715.39114895511090708 7.009497869018204596614 135.70952835300812467
8.009497869018190385759 732.21539737139289628 8.009497869018190385759 135.62813189710104211
9.009497869018204596614 746.92369370537039686 9.009497869018204596614 135.65315532042700397
10.009497869018190385759 759.95674646102895622 10.009497869018190385759 135.68717825496955243
11.009497869018190385759 771.65673116054369984 11.009497869018190385759 135.69723748253301210
12.009497869018190385759 782.23875234288516367 12.009497869018190385759 135.80177624326569230
13.009497869018190385759 791.88737032443771113 13.009497869018190385759 135.84853746133376262
14.009497869018204596614 800.76037784048230606 14.009497869018204596614 135.87138431962762297
15.009497869018190385759 808.94494038599520991 15.009497869018190385759 135.95721646948433659
16.009497869018190385759 816.53130512636255389 16.009497869018190385759 135.95773815371100568
17.009497869018190385759 823.60748099648424159 17.009497869018190385759 135.85758891703309814
18.009497869018190385759 830.21781203921898395 18.009497869018190385759 135.89332395815236509
19.009497869018204596614 836.40347914564131315 19.009497869018204596614 135.88823478385839394
20.009497869018190385759 842.21916797398228027 20.009497869018190385759 135.89043030373323973
21.009497869018204596614 847.72384831126316840 21.009497869018204596614 135.81428991839501919
22.009497869018190385759 852.93159568444445995 22.009497869018190385759 135.77924810564607583
23.009497869018190385759 857.86298093651851104 23.009497869018190385759 135.97093165875156728
24.009497869018190385759 862.53290168902719870 24.009497869018190385759 135.99458923732038329
25.009497869018190385759 866.97483421566460038 25.009497869018190385759 135.99096013801843696
26.009497869018204596614 871.22842649297763273 26.009497869018204596614 136.05853576655024995
27.009497869018190385759 875.29817289375478140 27.009497869018190385759 136.01709463273391520
28.009497869018190385759 879.18720139732693042 28.009497869018190385759 136.06545232925748223
29.009497869018190385759 882.90726126532899798 29.009497869018190385759 136.22230677003869914
30.009497869018190385759 886.46361177672270060 30.009497869018190385759 136.23090923750172010
31.009497869018190385759 889.87442778768672724 31.009497869018190385759 136.18108208642647128
32.009497869018190385759 893.15886755961048493 32.009497869018190385759 136.11911879071294607
33.009497869018190385759 896.32606103227067251 33.009497869018190385759 136.06427207835955073
34.009497869018190385759 899.37625170789488038 34.009497869018190385759 135.95706917177392370
35.009497869018190385759 902.31184301406597115 35.009497869018190385759 135.93137340041585048
36.009497869018190385759 905.14049714770999344 36.009497869018190385759 135.92761185834172011
37.009497869018190385759 907.86656849940527536 37.009497869018190385759 135.87679677552713997
38.009497869018190385759 910.49321685062966480 38.009497869018190385759 135.75644649272209108
39.009497869018190385759 913.03120755409531739 39.009497869018190385759 135.56700056225244566
40.009497869018190385759 915.48918174198320230 40.009497869018190385759 135.30335205298266033
41.009497869018190385759 917.87413605428616847 41.009497869018190385759 135.15184124216810346
42.009497869018190385759 920.18403160890727577 42.009497869018190385759 134.86640041998202832
43.009497869018190385759 922.42049332518945448 43.009497869018190385759 134.67572831789595966
44.009497869018218807469 924.58402996295876619 44.009497869018218807469 134.50599073246095827
46.009497869018190385759 928.71079474438192847 46.009497869018190385759 134.04515699722853128
48.009497869018190385759 932.57101312944712390 48.009497869018190385759 133.57419351119813200
50.009497869018190385759 936.20832487911332009 50.009497869018190385759 133.15883615517353178
52.009497869018190385759 939.65892666354659468 52.009497869018190385759 132.86584464950593087
54.009497869018190385759 942.92862484314298399 54.009497869018190385759 132.58806635661966311
56.009497869018190385759 946.02455545680379601 56.009497869018190385759 132.46670219883861819
58.009497869018218807469 948.96835490145485892 58.009497869018218807469 132.35668042161782409
60.009497869018190385759 951.79454142383087856 60.009497869018190385759 132.20121742035587431
62.009497869018190385759 954.49393148436377032 62.009497869018190385759 132.02354083841038346
64.009497869018190385759 957.07549220396697365 64.009497869018190385759 131.87887267617520592
66.009497869018190385759 959.54522983518722867 66.009497869018190385759 131.71940129265692576
68.009497869018190385759 961.90660816165291180 68.009497869018190385759 131.39088090170710643
70.009497869018190385759 964.15957208233714937 70.009497869018190385759 131.13534764640314734
72.009497869018218807469 966.31743978814279217 72.009497869018218807469 130.45247258990943351
74.009497869018190385759 968.39059761966757378 74.009497869018190385759 129.85134659154175552
76.009497869018190385759 970.38674858859224059 76.009497869018190385759 129.34978938036596219
78.009497869018190385759 972.30267856119678527 78.009497869018190385759 128.69161327864725308
80.009497869018190385759 974.13837461322805211 80.009497869018190385759 128.25795604590851440
82.009497869018218807469 975.89563550551383742 82.009497869018218807469 127.85837116399446245
84.009497869018190385759 977.58041818293861525 84.009497869018190385759 127.29750806481682446
86.009497869018190385759 979.17893714026104135 86.009497869018190385759 126.68235704732583713
88.009497869018190385759 980.70802028155492280 88.009497869018190385759 126.28694131161303460
91.009497869018218807469 982.89990609575045255 91.009497869018218807469 125.94057674003292391
94.009497869018190385759 984.99974507514593824 94.009497869018190385759 125.71627301219457706
97.009497869018190385759 987.01469406976684695 97.009497869018190385759 125.70770345386958411
99.504748934509109403734 988.62503912650993243 99.504748934509109403734 122.74230774251675768
nan nan nan nan

