Time Pressure difference Time.1 Pressure.1 difference.1
(hr) (psi) (hr) (psi)
0.000200000000006639311 0.45769291025918857 0.000200000000006639311 0.36551017122940560
0.000399999999999067768 0.91377140547802094 0.000399999999999067768 0.95045799252476015
0.000600000000005707079 1.36851608612741305 0.000600000000005707079 1.38770278012467774
0.000799999999998135536 1.82205670066202408 0.000799999999998135536 1.83113367031882079
0.001007140329434719206 2.29060643870012459 0.001007140329434719206 2.29485584990445268
0.001267914553963578328 2.87886585807491358 0.001267914553963578328 2.88033674580509169
0.001596209851982166583 3.61703312290602375 0.001596209851982166583 3.61310134709095321
0.002009509145210586212 4.54273303190848576 0.002009509145210586212 4.52917329263806856
0.002529822128138903281 5.70275113128952604 0.002529822128138903281 5.67287595577010162
0.003184857364445292660 7.15512056912990602 0.003184857364445292660 7.09849446696082254
0.004009497869020606231 8.97162092632666308 0.004009497869020606231 8.87213802036456123
0.005047658755842121536 11.24072165831840664 0.005047658755842121536 11.07375462066717553
0.006354625877804664924 14.07100715734133445 0.006354625877804664924 13.79920117713794347
0.008000000000009777068 17.59507107416745697 0.008000000000009777068 17.16218827355719867
0.010071403294347192059 21.97383329184033585 0.010071403294347192059 21.29582089153829472
0.012679145539692626699 27.40113823654910519 0.012679145539692626699 26.35324331445226065
0.015962098519750611558 34.10836061351784565 0.015962098519750611558 32.50676245046921053
0.020095091452091651263 42.36858794281168628 0.020095091452091651263 39.94457333094975127
0.025298221281346400247 52.49970097552789383 0.025298221281346400247 48.86382989128007637
0.031848573644282396344 64.86534074626419510 0.031848573644282396344 59.45853512038775079
0.040094978690191851456 79.87237866696953859 0.040094978690191851456 71.90042617837937655
0.050476587558421215363 97.96303656351263101 0.050476587558421215363 86.31253137751680526
0.063546258777947173257 119.60012330311792539 0.063546258777947173257 102.73176472925909763
0.079999999999998294697 145.24186373634395864 0.079999999999998294697 121.06363142389899679
0.100714032943542974863 175.30620760935076419 0.100714032943542974863 141.03496640250784822
0.126791455396897845276 210.12383402999722648 0.126791455396897845276 162.14278690141881611
0.159620985197506115583 249.87888202636759161 0.159620985197506115583 183.63213966777442465
0.200950914520774404082 294.55178339426026923 0.200950914520774404082 204.50186824293737686
0.252982212813464002465 343.86277900566716426 0.252982212813464002465 223.57799130401048160
0.318485736442795541734 397.24875647317520588 0.318485736442795541734 239.65226744694169270
0.400949786901819038576 453.87086902594523963 0.400949786901819038576 251.68008473712279738
0.504765875584169521062 512.68273895108052329 0.504765875584169521062 259.00486906665366860
0.635462587779443310865 572.54145474547010508 0.635462587779443310865 261.51843223814506700
0.799999999999997157829 632.34928653750796457 0.799999999999997157829 259.71098065486228279
1.007140329435330272645 691.18693634620217381 1.007140329435330272645 254.57615835747344590
1.267914553968893187630 748.41034283600208710 1.267914553968893187630 247.39066921669947874
1.596209851975103788391 803.68114973616411589 1.596209851975103788391 239.43800955375294848
2.009509145207687197399 856.93519304746246235 2.009509145207687197399 231.79544764254049483
2.529822128134711078928 908.31401078567762397 2.529822128134711078928 225.20159299351871596
3.184857364427983839050 958.07203268131399909 3.184857364427983839050 220.02993578368608496
4.009497869018190385759 1006.49585842014096215 4.009497869018190385759 216.34641000516938902
5.009497869018190385759 1052.29592042571198363 5.009497869018190385759 214.04348547289575322
6.009497869018190385759 1089.10165652131081515 6.009497869018190385759 212.93775267352344827
7.009497869018204596614 1119.83103146098324032 7.009497869018204596614 212.43167648439626305
8.009497869018190385759 1146.16671577169745433 8.009497869018190385759 212.30426328210984366
9.009497869018204596614 1169.19021372630436417 9.009497869018204596614 212.34343347032748284
10.009497869018190385759 1189.59138437507658637 10.009497869018190385759 212.39669096161426864
11.009497869018190385759 1207.90584906096455597 11.009497869018190385759 212.41243708203319329
12.009497869018190385759 1224.47031971855039956 12.009497869018190385759 212.57607588079372363
13.009497869018190385759 1239.57369616126470646 13.009497869018190385759 212.64927312839461138
14.009497869018204596614 1253.46297781280031813 14.009497869018204596614 212.68503625032616355
15.009497869018190385759 1266.27460838830484136 15.009497869018190385759 212.81939282581211614
16.009497869018190385759 1278.14985546768707536 16.009497869018190385759 212.82020943947372871
17.009497869018190385759 1289.22648303711025619 17.009497869018190385759 212.66344174228760266
18.009497869018190385759 1299.57390464093646187 18.009497869018190385759 212.71937926403964525
19.009497869018204596614 1309.25658241263749915 19.009497869018204596614 212.71141297132376735
20.009497869018190385759 1318.36011805018256382 20.009497869018190385759 212.71484970840060669
21.009497869018204596614 1326.97681937359675430 21.009497869018204596614 212.59566404839674192
22.009497869018190385759 1335.12871938104808578 22.009497869018190385759 212.54081166537210379
23.009497869018190385759 1342.84801845460697223 23.009497869018190385759 212.84086177264802586
24.009497869018190385759 1350.15803645072151085 24.009497869018190385759 212.87789394819188260
25.009497869018190385759 1357.11117515008868395 25.009497869018190385759 212.87221317059135117
26.009497869018204596614 1363.76949715235969052 26.009497869018204596614 212.97799206638973146
27.009497869018190385759 1370.14003768312181819 27.009497869018190385759 212.91312256430791194
28.009497869018190385759 1376.22769309638397317 28.009497869018190385759 212.98881884494565497
29.009497869018190385759 1382.05085499203505606 29.009497869018190385759 213.23434951787308478
30.009497869018190385759 1387.61775593458582989 30.009497869018190385759 213.24781531211206698
31.009497869018190385759 1392.95684576993016890 31.009497869018190385759 213.16981883415053289
32.009497869018190385759 1398.09811370836746391 32.009497869018190385759 213.07282515250801680
33.009497869018190385759 1403.05585121812828220 33.009497869018190385759 212.98697134993216196
34.009497869018190385759 1407.83043946321049589 34.009497869018190385759 212.81916225468023640
35.009497869018190385759 1412.42564062713177009 35.009497869018190385759 212.77893961258274658
36.009497869018190385759 1416.85344866019408983 36.009497869018190385759 212.77305151689284912
37.009497869018190385759 1421.12067966810309372 37.009497869018190385759 212.69350858896436307
38.009497869018190385759 1425.23227978607087607 38.009497869018190385759 212.50511936786895717
39.009497869018190385759 1429.20510046109825453 39.009497869018190385759 212.20857190284399962
40.009497869018190385759 1433.05266801088851025 40.009497869018190385759 211.79587210566319300
41.009497869018190385759 1436.78593456224893998 41.009497869018190385759 211.55870603532565610
42.009497869018190385759 1440.40170856962481594 42.009497869018190385759 211.11189383923323248
43.009497869018190385759 1443.90253358573681908 43.009497869018190385759 210.81342699761555082
44.009497869018218807469 1447.28920599315415529 44.009497869018218807469 210.54772981132379073
46.009497869018190385759 1453.74899972771140710 46.009497869018190385759 209.82636791327530545
48.009497869018190385759 1459.79155748387893254 48.009497869018190385759 209.08914950190390414
50.009497869018190385759 1465.48519036474817767 50.009497869018190385759 208.43897364062675592
52.009497869018190385759 1470.88655849890369609 52.009497869018190385759 207.98034205078911896
54.009497869018190385759 1476.00475081980630421 54.009497869018190385759 207.54552432527682981
56.009497869018190385759 1480.85093766107661395 56.009497869018190385759 207.35554804420473829
58.009497869018218807469 1485.45898735994796880 58.009497869018218807469 207.18332645543017634
60.009497869018190385759 1489.88293274014449707 60.009497869018190385759 206.93997385970479286
62.009497869018190385759 1494.10839843148983164 62.009497869018190385759 206.66184943739810365
64.009497869018190385759 1498.14942103518683325 64.009497869018190385759 206.43539444480833822
66.009497869018190385759 1502.01540238405732453 66.009497869018190385759 206.18576736435784369
68.009497869018190385759 1505.71176448031451400 68.009497869018190385759 205.67152095693356273
70.009497869018190385759 1509.23842107206723995 70.009497869018190385759 205.27152429877315853
72.009497869018218807469 1512.61621966837128639 72.009497869018218807469 204.20259203704574702
74.009497869018190385759 1515.86141843305927068 74.009497869018190385759 203.26162492028265660
76.009497869018190385759 1518.98607520543851024 76.009497869018190385759 202.47651689937967490
78.009497869018190385759 1521.98515877050976997 78.009497869018190385759 201.44624692197342597
80.009497869018190385759 1524.85864889741083061 80.009497869018190385759 200.76742551504426615
82.009497869018218807469 1527.60936126005140068 82.009497869018218807469 200.14193895272995860
84.009497869018190385759 1530.24662050795222967 84.009497869018190385759 199.26399699918769670
86.009497869018190385759 1532.74884762580632014 86.009497869018190385759 198.30107594624016087
88.009497869018190385759 1535.14238402027513075 88.009497869018190385759 197.68211551903061718
91.009497869018218807469 1538.57343255329124077 91.009497869018218807469 197.13993688567651930
94.009497869018190385759 1541.86039641024262892 94.009497869018190385759 196.78882508442958965
97.009497869018190385759 1545.01447850125418881 97.009497869018190385759 196.77541080421065089
99.504748934509109403734 1547.53521749632659521 99.504748934509109403734 192.13355558558731673
nan nan nan nan

