Time Pressure difference Time.1 Pressure.1 difference.1
(hr) (psi) (hr) (psi)
0.000200000000006639311 0.16862370377970107 0.000200000000006639311 0.13466164203188627
0.000399999999999067768 0.33665262307084981 0.000399999999999067768 0.35016873408806959
0.000600000000005707079 0.50419013699431003 0.000600000000005707079 0.51125891899330234
0.000799999999998135536 0.67128404761232474 0.000799999999998135536 0.67462819432798660
0.001007140329434719206 0.84390763531057211 0.001007140329434719206 0.84547320785953528
0.001267914553963578328 1.06063478981707338 0.001267914553963578328 1.06117669582292851
0.001596209851982166583 1.33259115054432442 0.001596209851982166583 1.33114260155982489
0.002009509145210586212 1.67363848543996818 0.002009509145210586212 1.66864279202455146
0.002529822128138903281 2.10101357468561467 0.002529822128138903281 2.09000693107319524
0.003184857364445292660 2.63609705178470222 0.003184857364445292660 2.61523480361714489
0.004009497869020606231 3.30533402548877087 0.004009497869020606231 3.26868242855536506
0.005047658755842121536 4.14131850569625559 0.005047658755842121536 4.07980433393001185
0.006354625877804664924 5.18405526849417519 0.006354625877804664924 5.08391622315608416
0.008000000000009777068 6.48239460627222108 0.008000000000009777068 6.32291146920528391
0.010071403294347192059 8.09562279173064958 0.010071403294347192059 7.84582874951410858
0.012679145539692626699 10.09515619241282813 0.012679145539692626699 9.70908964216662262
0.015962098519750611558 12.56623812076973401 0.015962098519750611558 11.97617563964654863
0.020095091452091651263 15.60947976840430407 0.020095091452091651263 14.71642175350780057
0.025298221281346400247 19.34199509624712121 0.025298221281346400247 18.00246364415581724
0.031848573644282396344 23.89775711704470140 0.031848573644282396344 21.90577609698496175
0.040094978690191851456 29.42666582467298753 0.040094978690191851456 26.48963069729766318
0.050476587558421215363 36.09164504971517573 0.050476587558421215363 31.79935366540092900
0.063546258777947173257 44.06320332220133906 0.063546258777947173257 37.84854490025335139
0.079999999999998294697 53.51016032391619603 0.079999999999998294697 44.60239052459436948
0.100714032943542974863 64.58649754028712664 0.100714032943542974863 51.96025077987130913
0.126791455396897845276 77.41404411631476989 0.126791455396897845276 59.73681622683850634
0.159620985197506115583 92.06064074655647289 0.159620985197506115583 67.65394619339058124
0.200950914520774404082 108.51907809262219473 0.200950914520774404082 75.34279356318745613
0.252982212813464002465 126.68628700208792282 0.252982212813464002465 82.37083890147754062
0.318485736442795541734 146.35480501643297657 0.318485736442795541734 88.29294063834693418
0.400949786901819038576 167.21558332534826263 0.400949786901819038576 92.72424174525578167
0.504765875584169521062 188.88311435039810249 0.504765875584169521062 95.42284649824082976
0.635462587779443310865 210.93632543254159373 0.635462587779443310865 96.34889608773767122
0.799999999999997157829 232.97078977697660207 0.799999999999997157829 95.68299287284399668
1.007140329435330272645 254.64781865386396476 1.007140329435330272645 93.79121623696390486
1.267914553968893187630 275.73012630800076295 1.267914553968893187630 91.14393076404716965
1.596209851975103788391 296.09305516595520658 1.596209851975103788391 88.21400351980372534
2.009509145207687197399 315.71296585959140657 2.009509145207687197399 85.39832281567279892
2.529822128134711078928 334.64200397367068263 2.529822128134711078928 82.96900794498057508
3.184857364427983839050 352.97390677732624908 3.184857364427983839050 81.06366055188435382
4.009497869018190385759 370.81426362847298606 4.009497869018190385759 79.70657210716765917
5.009497869018190385759 387.68797068315706156 5.009497869018190385759 78.85812622685632789
6.009497869018190385759 401.24797871837762386 6.009497869018190385759 78.45075098498232080
7.009497869018204596614 412.56932738036221053 7.009497869018204596614 78.26430186267229772
8.009497869018190385759 422.27194791588851785 8.009497869018190385759 78.21736015656679797
9.009497869018204596614 430.75428926758581838 9.009497869018204596614 78.23179127854170645
10.009497869018190385759 438.27051003292297082 10.009497869018190385759 78.25141245954209523
11.009497869018190385759 445.01794439088172339 11.009497869018190385759 78.25721366180171401
12.009497869018190385759 451.12064410683439064 12.009497869018190385759 78.31750164029243422
13.009497869018190385759 456.68504595415015501 13.009497869018190385759 78.34446904730327788
14.009497869018204596614 461.80214972050538336 14.009497869018204596614 78.35764493433069333
15.009497869018190385759 466.52222414305970233 15.009497869018190385759 78.40714472529920442
16.009497869018190385759 470.89731517230569580 16.009497869018190385759 78.40744558296400157
17.009497869018190385759 474.97817796104061472 17.009497869018190385759 78.34968906294805890
18.009497869018190385759 478.79038592034498834 18.009497869018190385759 78.37029762359355800
19.009497869018204596614 482.35768825728746378 19.009497869018204596614 78.36736267364560149
20.009497869018190385759 485.71162243954086080 20.009497869018190385759 78.36862883993707385
21.009497869018204596614 488.88619661132503325 21.009497869018204596614 78.32471833361985603
22.009497869018190385759 491.88952819301772479 22.009497869018190385759 78.30450956092656156
23.009497869018190385759 494.73348048327630977 23.009497869018190385759 78.41505433729138019
24.009497869018190385759 497.42664500816056261 24.009497869018190385759 78.42869777038647783
25.009497869018190385759 499.98832768687475436 25.009497869018190385759 78.42660485232313761
26.009497869018204596614 502.44139368771146792 26.009497869018204596614 78.46557602445936652
27.009497869018190385759 504.78843493588703950 27.009497869018190385759 78.44167673421868869
28.009497869018190385759 507.03125535129930768 28.009497869018190385759 78.46956483761155710
29.009497869018190385759 509.17663078653924913 29.009497869018190385759 78.56002350658481248
30.009497869018190385759 511.22759429168957013 30.009497869018190385759 78.56498458867287127
31.009497869018190385759 513.19462738892161724 31.009497869018190385759 78.53624904416071217
32.009497869018190385759 515.08877873466167330 32.009497869018190385759 78.50051452987138134
33.009497869018190385759 516.91531360667886474 33.009497869018190385759 78.46888418155394618
34.009497869018190385759 518.67437243381448297 34.009497869018190385759 78.40705977804009308
35.009497869018190385759 520.36734128368016172 35.009497869018190385759 78.39224090989890215
36.009497869018190385759 521.99863898007140506 36.009497869018190385759 78.39007161148684588
37.009497869018190385759 523.57077671982756328 37.009497869018190385759 78.36076632225001504
38.009497869018190385759 525.08557676328928210 38.009497869018190385759 78.29135976710962552
39.009497869018190385759 526.54924753829936890 39.009497869018190385759 78.18210543788990208
40.009497869018190385759 527.96677242506416405 40.009497869018190385759 78.03005814419169894
41.009497869018190385759 529.34218641767074587 41.009497869018190385759 77.94268117090943804
42.009497869018190385759 530.67431368354607457 42.009497869018190385759 77.77806615129644285
43.009497869018190385759 531.96409132106100515 43.009497869018190385759 77.66810468333204653
44.009497869018218807469 533.21181273432000580 44.009497869018218807469 77.57021624627719802
46.009497869018190385759 535.59173674178850888 46.009497869018190385759 77.30445133646985312
48.009497869018190385759 537.81794223090275864 48.009497869018190385759 77.03284455333300684
50.009497869018190385759 539.91559645017048297 50.009497869018190385759 76.79330607812565290
52.009497869018190385759 541.90557418380660692 52.009497869018190385759 76.62433654502757463
54.009497869018190385759 543.79122398624440393 54.009497869018190385759 76.46414054089147783
56.009497869018190385759 545.57666124355444026 56.009497869018190385759 76.39414927944385170
58.009497869018218807469 547.27436376419132102 58.009497869018218807469 76.33069922042164990
60.009497869018190385759 548.90423837794799056 60.009497869018190385759 76.24104300094387554
62.009497869018190385759 550.46098889581207914 62.009497869018190385759 76.13857610851509605
64.009497869018190385759 551.94978669717420416 64.009497869018190385759 76.05514532177150500
66.009497869018190385759 553.37409561517904422 66.009497869018190385759 75.96317745002657773
68.009497869018190385759 554.73591322958964156 68.009497869018190385759 75.77371824729131333
70.009497869018190385759 556.03520776339325948 70.009497869018190385759 75.62635105744274711
72.009497869018218807469 557.27965987782101820 72.009497869018218807469 75.23253390838527821
74.009497869018190385759 558.47525942270601718 74.009497869018190385759 74.88586181273571185
76.009497869018190385759 559.62644875989838056 76.009497869018190385759 74.59661148924514862
78.009497869018190385759 560.73137428387201453 78.009497869018190385759 74.21703833967441710
80.009497869018190385759 561.79002854115140053 80.009497869018190385759 73.96694624238473637
82.009497869018218807469 562.80344888528213687 82.009497869018218807469 73.73650382468998998
84.009497869018190385759 563.77507071345610257 84.009497869018190385759 73.41305152601653106
86.009497869018190385759 564.69694386213916459 86.009497869018190385759 73.05829113808849229
88.009497869018190385759 565.57877306010141183 88.009497869018190385759 72.83025308595864544
91.009497869018218807469 566.84284357226511020 91.009497869018218807469 72.63050306314397631
94.009497869018190385759 568.05383025640514916 94.009497869018190385759 72.50114608373721126
97.009497869018190385759 569.21586050046209948 97.009497869018190385759 72.49620398049864889
99.504748934509109403734 570.14455381443599435 99.504748934509109403734 70.78604679469006555
nan nan nan nan

