Time Pressure difference Time.1 Pressure.1 difference.1
(hr) (psi) (hr) (psi)
0.000200000000006639311 0.39788548822894976 0.000200000000006639311 0.31774840656784986
0.000399999999999067768 0.79436751946274409 0.000399999999999067768 0.82626021491716906
0.000600000000005707079 1.18969002768608134 0.000600000000005707079 1.20636956747680690
0.000799999999998135536 1.58396580692760369 0.000799999999998135536 1.59185667528623442
0.001007140329434719206 1.99128944489538950 0.001007140329434719206 1.99498357913653890
0.001267914553963578328 2.50268011981467087 0.001267914553963578328 2.50395880442947139
0.001596209851982166583 3.14438995621049955 0.001596209851982166583 3.14097195146382324
0.002009509145210586212 3.94912726367362010 0.002009509145210586212 3.93733939595940940
0.002529822128138903281 4.95756405061285399 0.002529822128138903281 4.93159270928108651
0.003184857364445292660 6.22015018623089766 0.003184857364445292660 6.17092350213109597
0.004009497869020606231 7.79928570546365130 0.004009497869020606231 7.71280238067989998
0.005047658755842121536 9.77187962674141097 0.005047658755842121536 9.62673042341121032
0.006354625877804664924 12.23232745620054374 0.006354625877804664924 11.99603877286583398
0.008000000000009777068 15.29589663253396026 0.008000000000009777068 14.91957927955335528
0.010071403294347192059 19.10247939526591665 0.010071403294347192059 18.51306389663674068
0.012679145539692626699 23.82059022741746190 0.012679145539692626699 22.90962531328971252
0.015962098519750611558 29.65136975294927169 0.015962098519750611558 28.25905483443693100
0.020095091452091651263 36.83222073431360144 0.020095091452091651263 34.72495576320313404
0.025298221281346400247 45.63948596602152463 0.025298221281346400247 42.47871963325436440
0.031848573644282396344 56.38928896090843068 0.031848573644282396344 51.68899877071821436
0.040094978690191851456 69.43533463063232603 0.040094978690191851456 62.50508918229349575
0.050476587558421215363 85.16205900893383784 0.050476587558421215363 75.03394288535490375
0.063546258777947173257 103.97179503120413813 0.063546258777947173257 89.30765028187860821
0.079999999999998294697 126.26289061653132251 0.079999999999998294697 105.24406434128425758
0.100714032943542974863 152.39868138816518695 0.100714032943542974863 122.60571489437613479
0.126791455396897845276 182.66663611682156443 0.126791455396897845276 140.95534469288494961
0.159620985197506115583 217.22683210640667539 0.159620985197506115583 159.63665136272950917
0.200950914520774404082 256.06225815943861335 0.200950914520774404082 177.77930106781670361
0.252982212813464002465 298.92971169458184022 0.252982212813464002465 194.36271839314161980
0.318485736442795541734 345.33966306833195858 0.318485736442795541734 208.33654465895656926
0.400949786901819038576 394.56287888099416250 0.400949786901819038576 218.79266894570204727
0.504765875584169521062 445.68971317162896639 0.504765875584169521062 225.16031267318896880
0.635462587779443310865 497.72660040486414346 0.635462587779443310865 227.34542475875045398
0.799999999999997157829 549.71925272498424420 0.799999999999997157829 225.77415559651365129
1.007140329435330272645 600.86849820295981317 1.007140329435330272645 221.31030826357493879
1.267914553968893187630 650.61443596813978729 1.267914553968893187630 215.06375781270244829
1.596209851975103788391 698.66292327336225298 1.596209851975103788391 208.15028416741864703
2.009509145207687197399 744.95818052583388180 2.009509145207687197399 201.50638733353338239
2.529822128134711078928 789.62325075560715959 2.529822128134711078928 195.77416160416598245
3.184857364427983839050 832.87931697704073031 3.184857364427983839050 191.27829263227883416
4.009497869018190385759 874.97552846324413167 4.009497869018190385759 188.07609871592765671
5.009497869018190385759 914.79082737552823801 5.009497869018190385759 186.07410080130139818
6.009497869018190385759 946.78710249311757252 6.009497869018190385759 185.11285577244598244
7.009497869018204596614 973.50102372016510799 7.009497869018204596614 184.67290932128094028
8.009497869018190385759 996.39538449118526842 8.009497869018190385759 184.56214539406647646
9.009497869018204596614 1016.41036728656945343 9.009497869018204596614 184.59619715478561375
10.009497869018190385759 1034.14568623532068159 10.009497869018190385759 184.64249540946141792
11.009497869018190385759 1050.06697223267156005 11.009497869018190385759 184.65618396060600048
12.009497869018190385759 1064.46693855750572766 12.009497869018190385759 184.79843983103484106
13.009497869018190385759 1077.59673404944783215 13.009497869018190385759 184.86207228403088720
14.009497869018204596614 1089.67108234542911305 14.009497869018204596614 184.89316218494778354
15.009497869018190385759 1100.80859785480606661 15.009497869018190385759 185.00996218432669593
16.009497869018190385759 1111.13208851002195843 16.009497869018190385759 185.01067208985102752
17.009497869018190385759 1120.76131646964768152 17.009497869018190385759 184.87438946380356697
18.009497869018190385759 1129.75662490564172913 18.009497869018190385759 184.92301754532667246
19.009497869018204596614 1138.17405258739245255 19.009497869018204596614 184.91609222008000302
20.009497869018190385759 1146.08801551004989960 20.009497869018190385759 184.91907987354608167
21.009497869018204596614 1153.57875949174740526 21.009497869018204596614 184.81546838327048476
22.009497869018190385759 1160.66543844559350873 22.009497869018190385759 184.76778364376269792
23.009497869018190385759 1167.37604508122831248 23.009497869018190385759 185.02862575153974944
24.009497869018190385759 1173.73085201432968461 24.009497869018190385759 185.06081887692178611
25.009497869018190385759 1179.77541360597547282 25.009497869018190385759 185.05588041508758579
26.009497869018204596614 1185.56368264243246813 26.009497869018204596614 185.14783702323174452
27.009497869018190385759 1191.10177504576290630 27.009497869018190385759 185.09144411670322938
28.009497869018190385759 1196.39394735602149922 28.009497869018190385759 185.15724905032479342
29.009497869018190385759 1201.45618791503579814 29.009497869018190385759 185.37069586036517421
30.009497869018190385759 1206.29565352571080439 30.009497869018190385759 185.38240205898674162
31.009497869018190385759 1210.93707644972141679 31.009497869018190385759 185.31459749829056705
32.009497869018190385759 1215.40652716208364836 32.009497869018190385759 185.23027812713493745
33.009497869018190385759 1219.71642964334569115 33.009497869018190385759 185.15564297026770646
34.009497869018190385759 1223.86711525023201830 34.009497869018190385759 185.00976174227190540
35.009497869018190385759 1227.86185455607278527 35.009497869018190385759 184.97479505340677974
36.009497869018190385759 1231.71107424361684934 36.009497869018190385759 184.96967636405025814
37.009497869018190385759 1235.42069974777018615 37.009497869018190385759 184.90052743033379556
38.009497869018190385759 1238.99503088480582846 38.009497869018190385759 184.73675531253945792
39.009497869018190385759 1242.44871709776043645 39.009497869018190385759 184.47895815147418830
40.009497869018190385759 1245.79351720002841830 40.009497869018190385759 184.12018645846220011
41.009497869018190385759 1249.03895218750858476 41.009497869018190385759 183.91401123579126420
42.009497869018190385759 1252.18224755871187881 42.009497869018190385759 183.52558466241870860
43.009497869018190385759 1255.22561449649356291 43.009497869018190385759 183.26611893259138242
44.009497869018218807469 1258.16974531891264633 44.009497869018218807469 183.03514079786589264
46.009497869018190385759 1263.78542807545136384 46.009497869018190385759 182.40804034566039604
48.009497869018190385759 1269.03839570740115050 48.009497869018190385759 181.76715537461336680
50.009497869018190385759 1273.98803300311146813 50.009497869018190385759 181.20193897252309512
52.009497869018190385759 1278.68359622681487053 52.009497869018190385759 180.80323746339018953
54.009497869018190385759 1283.13298664734497834 54.009497869018190385759 180.42523802505917274
56.009497869018190385759 1287.34591495400286476 56.009497869018190385759 180.26008623080593907
58.009497869018218807469 1291.35182385737743971 58.009497869018218807469 180.11036909646290383
60.009497869018190385759 1295.19768563072443612 60.009497869018190385759 179.89881575099565225
62.009497869018190385759 1298.87100335514287508 62.009497869018190385759 179.65703426590508229
64.009497869018190385759 1302.38397944801181438 64.009497869018190385759 179.46017048831794227
66.009497869018190385759 1305.74478719049625397 66.009497869018190385759 179.24316255449619462
68.009497869018190385759 1308.95814008361298875 68.009497869018190385759 178.79611349976619294
70.009497869018190385759 1312.02396314613474715 70.009497869018190385759 178.44838500746340060
72.009497869018218807469 1314.96037971170562741 72.009497869018218807469 177.51913173456426875
74.009497869018190385759 1317.78152346539991413 74.009497869018190385759 176.70112220837640393
76.009497869018190385759 1320.49787663049914954 76.009497869018190385759 176.01860543521388536
78.009497869018190385759 1323.10506542844677824 78.009497869018190385759 175.12296238770466061
80.009497869018190385759 1325.60307227197790780 80.009497869018190385759 174.53284359656299785
82.009497869018218807469 1327.99434490665089470 82.009497869018218807469 173.98909030554929700
84.009497869018190385759 1330.28698951598744316 84.009497869018190385759 173.22587034956609386
86.009497869018190385759 1332.46224684711660302 86.009497869018190385759 172.38877564110535445
88.009497869018190385759 1334.54301623541164190 88.009497869018190385759 171.85069570529157090
91.009497869018218807469 1337.52572448825139872 91.009497869018218807469 171.37936437066977646
94.009497869018190385759 1340.38317582669014882 94.009497869018190385759 171.07413287738978624
97.009497869018190385759 1343.12510925971082543 97.009497869018190385759 171.06247146137368986
99.504748934509109403734 1345.31645949317680788 99.504748934509109403734 167.02717445643614269
nan nan nan nan

