Time Pressure difference Time.1 Pressure.1 difference.1
(hr) (psi) (hr) (psi)
0.000200000000006639311 0.71436642980563003 0.000200000000006639311 0.57048774456858220
0.000399999999999067768 1.42621308296025040 0.000399999999999067768 1.48347345475733894
0.000600000000005707079 2.13597792027146127 0.000600000000005707079 2.16592448440512308
0.000799999999998135536 2.84386345293891285 0.000799999999998135536 2.85803077400033745
0.001007140329434719206 3.57517520377877851 0.001007140329434719206 3.58180767861675031
0.001267914553963578328 4.49332965144178864 0.001267914553963578328 4.49562541087546030
0.001596209851982166583 5.64546004664098078 0.001596209851982166583 5.63932333665738650
0.002009509145210586212 7.09029112058311739 0.002009509145210586212 7.06912709921731164
0.002529822128138903281 8.90084568586024005 0.002529822128138903281 8.85421655528545770
0.003184857364445292660 11.16770179573814659 0.003184857364445292660 11.07931985768839844
0.004009497869020606231 14.00289291586375739 0.004009497869020606231 13.84762014067790048
0.005047658755842121536 17.54450204383635281 0.005047658755842121536 17.28390013389068969
0.006354625877804664924 21.96200754140389932 0.006354625877804664924 21.53777316213907511
0.008000000000009777068 27.46236138617788214 0.008000000000009777068 26.78671853949036574
0.010071403294347192059 34.29672709797220875 0.010071403294347192059 33.23848632799081315
0.012679145539692626699 42.76765677573907709 0.012679145539692626699 41.13210390277485118
0.015962098519750611558 53.23627972345798298 0.015962098519750611558 50.73650763594104518
0.020095091452091651263 66.12883054594927046 0.020095091452091651263 62.34543205919560904
0.025298221281346400247 81.94145705799272150 0.025298221281346400247 76.26659474864040078
0.031848573644282396344 101.24172965841597716 0.031848573644282396344 92.80279528771954745
0.040094978690191851456 124.66469265625009655 0.040094978690191851456 112.22208078658123043
0.050476587558421215363 152.90056523524654608 0.050476587558421215363 134.71647365637832650
0.063546258777947173257 186.67169880341452881 0.063546258777947173257 160.34358923260040797
0.079999999999998294697 226.69329004220654156 0.079999999999998294697 188.95594015345398020
0.100714032943542974863 273.61767430860555805 0.100714032943542974863 220.12717079157303601
0.126791455396897845276 327.96097507404283533 0.126791455396897845276 253.07222637970994583
0.159620985197506115583 390.01059626619985465 0.159620985197506115583 286.61277697692560196
0.200950914520774404082 459.73599586036988285 0.200950914520774404082 319.18621903616360669
0.252982212813464002465 536.70052621574200202 0.252982212813464002465 348.96020421315614612
0.318485736442795541734 620.02528233562725291 0.318485736442795541734 374.04891107871111444
0.400949786901819038576 708.40099339802713985 0.400949786901819038576 392.82191084197023656
0.504765875584169521062 800.19447458789340999 0.504765875584169521062 404.25442358860647118
0.635462587779443310865 893.62187129057031143 0.635462587779443310865 408.17758933721376025
0.799999999999997157829 986.96984831625570678 0.799999999999997157829 405.35652153027501754
1.007140329435330272645 1078.80356671095069032 1.007140329435330272645 397.34209834378793857
1.267914553968893187630 1168.11777647724466078 1.267914553968893187630 386.12699732551999432
1.596209851975103788391 1254.38437163902199245 1.596209851975103788391 373.71449767010449250
2.009509145207687197399 1337.50320511945142243 2.009509145207687197399 361.78599813536266083
2.529822128134711078928 1417.69518924806311588 2.529822128134711078928 351.49431937282412264
3.184857364427983839050 1495.35743757882050886 3.184857364427983839050 343.42240430847556354
4.009497869018190385759 1570.93727448515664946 4.009497869018190385759 337.67316262149847717
5.009497869018190385759 1642.42194476608415243 5.009497869018190385759 334.07876135515488158
6.009497869018190385759 1699.86828422563917229 6.009497869018190385759 332.35293520731426042
7.009497869018204596614 1747.83064801532782440 7.009497869018204596614 331.56305222609938710
8.009497869018190385759 1788.93534585056227115 8.009497869018190385759 331.36418588496275106
9.009497869018204596614 1824.87038803016639577 9.009497869018204596614 331.42532265786138623
10.009497869018190385759 1856.71250555819574402 10.009497869018190385759 331.50844687293698598
11.009497869018190385759 1885.29769544905570910 11.009497869018190385759 331.53302339482496564
12.009497869018190385759 1911.15149720136741962 12.009497869018190385759 331.78843059434228735
13.009497869018190385759 1934.72482522447853626 13.009497869018190385759 331.90267675212226095
14.009497869018204596614 1956.40319586026930665 14.009497869018204596614 331.95849578090832210
15.009497869018190385759 1976.39957026123829564 15.009497869018190385759 332.16819932885374556
16.009497869018190385759 1994.93443866099960360 16.009497869018190385759 332.16947389827117831
17.009497869018190385759 2012.22282288913766024 17.009497869018190385759 331.92479110411494503
18.009497869018190385759 2028.37306350490985096 18.009497869018190385759 332.01209830684956614
19.009497869018204596614 2043.48577291264655287 19.009497869018204596614 331.99966452874497236
20.009497869018190385759 2057.69455811825218916 20.009497869018190385759 332.00502858298460751
21.009497869018204596614 2071.14349303319977480 21.009497869018204596614 331.81900377789690992
22.009497869018190385759 2083.86696672904054140 22.009497869018190385759 331.73339025811253578
23.009497869018190385759 2095.91523751535760312 23.009497869018190385759 332.20170802990435277
24.009497869018190385759 2107.32470299023725602 24.009497869018190385759 332.25950779572593774
25.009497869018190385759 2118.17715177690797645 25.009497869018190385759 332.25064124629500384
26.009497869018204596614 2128.56945109079742906 26.009497869018204596614 332.41574079327619984
27.009497869018190385759 2138.51258150178728101 27.009497869018190385759 332.31449256861122876
28.009497869018190385759 2148.01418523210577405 28.009497869018190385759 332.43263921352678381
29.009497869018190385759 2157.10296786415619863 29.009497869018190385759 332.81586313134454258
30.009497869018190385759 2165.79177877267466101 30.009497869018190385759 332.83688052344172092
31.009497869018190385759 2174.12502243582548545 31.009497869018190385759 332.71514373388288277
32.009497869018190385759 2182.14950596950302497 32.009497869018190385759 332.56375613640091160
33.009497869018190385759 2189.88753547657051968 33.009497869018190385759 332.42975564599208838
34.009497869018190385759 2197.33970587724297729 34.009497869018190385759 332.16783945376585052
35.009497869018190385759 2204.51188918209345502 35.009497869018190385759 332.10506001237962437
36.009497869018190385759 2211.42280553133696230 36.009497869018190385759 332.09586988117581541
37.009497869018190385759 2218.08309349286537326 37.009497869018190385759 331.97171939475379077
38.009497869018190385759 2224.50047298733397838 38.009497869018190385759 331.67768177199150159
39.009497869018190385759 2230.70124572875556623 39.009497869018190385759 331.21483091913944463
40.009497869018190385759 2236.70652357416338418 40.009497869018190385759 330.57068967490079103
41.009497869018190385759 2242.53340058717640204 41.009497869018190385759 330.20052121666077483
42.009497869018190385759 2248.17689540812580162 42.009497869018190385759 329.50313738972874944
43.009497869018190385759 2253.64097801040588820 43.009497869018190385759 329.03729077667765068
44.009497869018218807469 2258.92689138677405936 44.009497869018218807469 328.62259099408072416
46.009497869018190385759 2269.00932806866057945 46.009497869018190385759 327.49669039095601875
48.009497869018190385759 2278.44054344126288925 48.009497869018190385759 326.34604096485907121
50.009497869018190385759 2287.32715737510625331 50.009497869018190385759 325.33124742457175671
52.009497869018190385759 2295.75760491661912965 52.009497869018190385759 324.61541590504293708
54.009497869018190385759 2303.74607205995152981 54.009497869018190385759 323.93675303037764479
56.009497869018190385759 2311.30999344560041209 56.009497869018190385759 323.64023832670790171
58.009497869018218807469 2318.50223072514563682 58.009497869018218807469 323.37143512099811460
60.009497869018190385759 2325.40711825140488145 60.009497869018190385759 322.99161074291492923
62.009497869018190385759 2332.00221896747962091 62.009497869018190385759 322.55751454838906511
64.009497869018190385759 2338.30944118014667765 64.009497869018190385759 322.20406392474620816
66.009497869018190385759 2344.34345925642310249 66.009497869018190385759 321.81444634001405802
68.009497869018190385759 2350.11273584949321958 68.009497869018190385759 321.01181129394348090
70.009497869018190385759 2355.61713633752788155 70.009497869018190385759 320.38749709064410354
72.009497869018218807469 2360.88919948239436053 72.009497869018218807469 318.71910916852874607
74.009497869018190385759 2365.95430100259727624 74.009497869018190385759 317.25044905888040603
76.009497869018190385759 2370.83126075621976270 76.009497869018190385759 316.02505359975776855
78.009497869018190385759 2375.51222603019687085 78.009497869018190385759 314.41700971487688321
80.009497869018190385759 2379.99716524822724750 80.009497869018190385759 313.35750624852647661
82.009497869018218807469 2384.29047311006252130 82.009497869018218807469 312.38124773021377223
84.009497869018190385759 2388.40670351513426795 84.009497869018190385759 311.01095720381385945
86.009497869018190385759 2392.31217596768328804 86.009497869018190385759 309.50803142244382116
88.009497869018190385759 2396.04800409698100339 88.009497869018190385759 308.54195888632727929
91.009497869018218807469 2401.40317966575412356 91.009497869018218807469 307.69572726258041939
94.009497869018190385759 2406.53346808132209844 94.009497869018190385759 307.14771247297539958
97.009497869018190385759 2411.45635482954367035 97.009497869018190385759 307.12677548388597870
99.504748934509109403734 2415.39072059317732055 99.504748934509109403734 299.88177459819434034
nan nan nan nan

