Time Pressure difference Time.1 Pressure.1 difference.1
(hr) (psi) (hr) (psi)
0.000200000000006639311 0.50919374589633870 0.000200000000006639311 0.40663835746574523
0.000399999999999067768 1.01659141843562018 0.000399999999999067768 1.05740607879796356
0.000600000000005707079 1.52250519200744860 0.000600000000005707079 1.54385082434923304
0.000799999999998135536 2.02707941471110864 0.000799999999998135536 2.03717774937465901
0.001007140329434719206 2.54835162780975732 0.001007140329434719206 2.55307919417682339
0.001267914553963578328 3.20280357713234443 0.001267914553963578328 3.20443997310076423
0.001596209851982166583 4.02403140533828019 0.001596209851982166583 4.01965721554764865
0.002009509145210586212 5.05389355455517553 0.002009509145210586212 5.03880803700024682
0.002529822128138903281 6.34444000631665883 0.002529822128138903281 6.31120319580230760
0.003184857364445292660 7.96023395440405057 0.003184857364445292660 7.89723613111975276
0.004009497869020606231 9.98113181095870239 0.004009497869020606231 9.87045482120413098
0.005047658755842121536 12.50555785217637705 0.005047658755842121536 12.31980323497092300
0.006354625877804664924 15.65431467776812724 0.006354625877804664924 15.35192435859447890
0.008000000000009777068 19.57491573224074699 0.008000000000009777068 19.09332379617162090
0.010071403294347192059 24.44638803611275080 0.010071403294347192059 23.69208385937018946
0.012679145539692626699 30.48438791107912849 0.012679145539692626699 29.31858103767556400
0.015962098519750611558 37.94632496567412261 0.015962098519750611558 36.16451067538589115
0.020095091452091651263 47.13601526124058694 0.020095091452091651263 44.43924401428709814
0.025298221281346400247 58.40710834482505476 0.025298221281346400247 54.36211928013555195
0.031848573644282396344 72.16416311698719710 0.031848573644282396344 66.14896919926985674
0.040094978690191851456 88.85983325381548070 0.040094978690191851456 79.99085525834220789
0.050476587558421215363 108.98610056884434982 0.050476587558421215363 96.02464924576733551
0.063546258777947173257 133.05785042615477209 0.063546258777947173257 114.29141883672564006
0.079999999999998294697 161.58486836729375113 0.079999999999998294697 134.68603641170614083
0.100714032943542974863 195.03213296648280561 0.100714032943542974863 156.90459964562123218
0.126791455396897845276 233.76753223300963214 0.126791455396897845276 180.38752880321183625
0.159620985197506115583 277.99592501300060121 0.159620985197506115583 204.29492126378536909
0.200950914520774404082 327.69554123535669987 0.200950914520774404082 227.51296775484686918
0.252982212813464002465 382.55514252354629434 0.252982212813464002465 248.73558742170311575
0.318485736442795541734 441.94825357179018965 0.318485736442795541734 266.61858429215112665
0.400949786901819038576 504.94163831743094306 0.400949786901819038576 279.99980389084623766
0.504765875584169521062 570.37117781671929606 0.504765875584169521062 288.14879262769278512
0.635462587779443310865 636.96535709432509975 0.635462587779443310865 290.94518867873495083
0.799999999999997157829 703.50292676495894284 0.799999999999997157829 288.93435778844025208
1.007140329435330272645 768.96114696954987267 1.007140329435330272645 283.22175149388607451
1.267914553968893187630 832.62348486110579415 1.267914553968893187630 275.22773181458575209
1.596209851975103788391 894.11351141246575480 1.596209851975103788391 266.38021752531858510
2.009509145207687197399 953.35984271886468377 2.009509145207687197399 257.87769401974099992
2.529822128134711078928 1010.51994303379387929 2.529822128134711078928 250.54188113435020568
3.184857364427983839050 1065.87687120443820277 3.184857364427983839050 244.78829516406457856
4.009497869018190385759 1119.74947588302438817 4.009497869018190385759 240.69028917090531650
5.009497869018190385759 1170.70308388559260493 5.009497869018190385759 238.12823338454646205
6.009497869018190385759 1211.65030026781028027 6.009497869018190385759 236.89808056056239138
7.009497869018204596614 1245.83742701557662258 7.009497869018204596614 236.33505931930108090
8.009497869018190385759 1275.13647326324962705 8.009497869018190385759 236.19330924125833349
9.009497869018204596614 1300.75063704940930620 9.009497869018204596614 236.23688696426634692
10.009497869018190385759 1323.44740221764413945 10.009497869018190385759 236.29613713152369314
11.009497869018190385759 1343.82265966310569638 11.009497869018190385759 236.31365504770664643
12.009497869018190385759 1362.25100905167232668 12.009497869018190385759 236.49570692364164870
13.009497869018190385759 1379.05385797977373841 13.009497869018190385759 236.57714052215226275
14.009497869018204596614 1394.50599890970352135 14.009497869018204596614 236.61692780662420432
15.009497869018190385759 1408.75922856992906418 15.009497869018190385759 236.76640254486900972
16.009497869018190385759 1421.97071034789860278 16.009497869018190385759 236.76731104609328327
17.009497869018190385759 1434.29370980353655796 17.009497869018190385759 236.59290342653775951
18.009497869018190385759 1445.80545107966258911 18.009497869018190385759 236.65513518848695185
19.009497869018204596614 1456.57764976215366914 19.009497869018204596614 236.64627250711703255
20.009497869018190385759 1466.70553968196327332 20.009497869018190385759 236.65009595508087159
21.009497869018204596614 1476.29181538296688814 21.009497869018204596614 236.51749920447767295
22.009497869018190385759 1485.36098907546738701 22.009497869018190385759 236.45647468398021829
23.009497869018190385759 1493.94888441501666421 23.009497869018190385759 236.79028723526906219
24.009497869018190385759 1502.08144527094782461 24.009497869018190385759 236.83148637067444042
25.009497869018190385759 1509.81696981307482019 25.009497869018190385759 236.82516637671957938
26.009497869018204596614 1517.22450409146358652 26.009497869018204596614 236.94284779799801299
27.009497869018190385759 1524.31187495418112121 27.009497869018190385759 236.87067900530081488
28.009497869018190385759 1531.08452970614052902 28.009497869018190385759 236.95489283475802722
29.009497869018190385759 1537.56292941945071107 29.009497869018190385759 237.22805127850489271
30.009497869018190385759 1543.75623300889492384 30.009497869018190385759 237.24303228008110977
31.009497869018190385759 1549.69609157344302730 31.009497869018190385759 237.15625942891884392
32.009497869018190385759 1555.41586878988982789 32.009497869018190385759 237.04835175769042621
33.009497869018190385759 1560.93146424085784929 33.009497869018190385759 236.95283745464323033
34.009497869018190385759 1566.24330197994186165 34.009497869018190385759 236.76614602925403119
35.009497869018190385759 1571.35556752165462058 35.009497869018190385759 236.72139742742874091
36.009497869018190385759 1576.28160440780197860 36.009497869018190385759 236.71484678739622609
37.009497869018190385759 1581.02899571061198003 37.009497869018190385759 236.62635347556286547
38.009497869018190385759 1585.60324411771603081 38.009497869018190385759 236.41676619329160758
39.009497869018190385759 1590.02309724619431108 39.009497869018190385759 236.08685041096799750
40.009497869018190385759 1594.30360343135134826 40.009497869018190385759 235.62771252408626310
41.009497869018190385759 1598.45694716271987090 41.009497869018190385759 235.36385989048025635
42.009497869018190385759 1602.47957777346641706 42.009497869018190385759 234.86677118593459568
43.009497869018190385759 1606.37432502369620124 43.009497869018190385759 234.53472005360859498
44.009497869018218807469 1610.14207490708440673 44.009497869018218807469 234.23912590624590280
46.009497869018190385759 1617.32874198382432951 46.009497869018190385759 233.43659442983258145
48.009497869018190385759 1624.05122456917933960 48.009497869018190385759 232.61642222262631208
50.009497869018190385759 1630.38552031504650586 50.009497869018190385759 231.89308682704938747
52.009497869018190385759 1636.39466489986943998 52.009497869018190385759 231.38284877882711044
54.009497869018190385759 1642.08876996831418182 54.009497869018190385759 230.89910419490868776
56.009497869018190385759 1647.48026276994528416 56.009497869018190385759 230.68775127240925826
58.009497869018218807469 1652.60682259827217422 58.009497869018218807469 230.49615084787421893
60.009497869018190385759 1657.52856219547811634 60.009497869018190385759 230.22541556442658361
62.009497869018190385759 1662.22948863612214154 62.009497869018190385759 229.91599583507266402
64.009497869018190385759 1666.72521795747661599 64.009497869018190385759 229.66405951845283084
66.009497869018190385759 1671.02620991184585364 66.009497869018190385759 229.38634372840533615
68.009497869018190385759 1675.13849659969673667 68.009497869018190385759 228.81423293393876861
70.009497869018190385759 1679.06198206384260629 70.009497869018190385759 228.36922757740097722
72.009497869018218807469 1682.81985963105535120 72.009497869018218807469 227.18001618640479933
74.009497869018190385759 1686.43021687743248549 74.009497869018190385759 226.13316892220194632
76.009497869018190385759 1689.90646842274736628 76.009497869018190385759 225.25971843796685334
78.009497869018190385759 1693.24301692617518711 78.009497869018190385759 224.11351971537152394
80.009497869018190385759 1696.43983988042259625 80.009497869018190385759 223.35831550040316529
82.009497869018218807469 1699.50006978659075685 82.009497869018218807469 222.66244751002446378
84.009497869018190385759 1702.43408052881090953 84.009497869018190385759 221.68571716969520935
86.009497869018190385759 1705.21786496301137959 86.009497869018190385759 220.61444565343961699
88.009497869018190385759 1707.88072850168532568 88.009497869018190385759 219.92583813641698498
91.009497869018218807469 1711.69784783151999363 91.009497869018218807469 219.32265210693230983
94.009497869018190385759 1715.35466969052413333 94.009497869018190385759 218.93203226271384665
97.009497869018190385759 1718.86365757036082869 97.009497869018190385759 218.91710857165358561
99.504748934509109403734 1721.66803688792765570 99.504748934509109403734 213.75293933568968896
nan nan nan nan

