Time Pressure difference Time.1 Pressure.1 difference.1
(hr) (psi) (hr) (psi)
0.000200000000006639311 0.31731160021598914 0.000200000000006639311 0.25340269584325392
0.000399999999999067768 0.63350395080327404 0.000399999999999067768 0.65893820897360866
0.000600000000005707079 0.94877158784150961 0.000600000000005707079 0.96207343377064780
0.000799999999998135536 1.26320446397984254 0.000799999999998135536 1.26949739031177788
0.001007140329434719206 1.58804293935289920 0.001007140329434719206 1.59098899212976597
0.001267914553963578328 1.99587433354739896 0.001267914553963578328 1.99689407785398365
0.001596209851982166583 2.50763457885680774 0.001596209851982166583 2.50490873791060631
0.002009509145210586212 3.14940838146831492 0.002009509145210586212 3.14000761848955046
0.002529822128138903281 3.95363145581233866 0.002529822128138903281 3.93291944665005166
0.003184857364445292660 4.96053730926973468 0.003184857364445292660 4.92127928562438122
0.004009497869020606231 6.21988964402320388 0.004009497869020606231 6.15091964388250911
0.005047658755842121536 7.79302300086684507 0.005047658755842121536 7.67726726877470345
0.006354625877804664924 9.75521730327475467 0.006354625877804664924 9.56677831155479907
0.008000000000009777068 12.19839773199994326 0.008000000000009777068 11.89828660707595454
0.010071403294347192059 15.23412761793649572 0.010071403294347192059 14.76407183406103307
0.012679145539692626699 18.99679638178177399 0.012679145539692626699 18.27030661727906136
0.015962098519750611558 23.64681262134994100 0.015962098519750611558 22.53644874061567549
0.020095091452091651263 29.37350380064258459 0.020095091452091651263 27.69297098443339777
0.025298221281346400247 36.39725185599211699 0.025298221281346400247 33.87655720230306855
0.031848573644282396344 44.97016363897081703 0.031848573644282396344 41.22170674408007329
0.040094978690191851456 55.37431697056690894 0.040094978690191851456 49.84748239590003749
0.050476587558421215363 67.91629758123742988 0.050476587558421215363 59.83917783341455277
0.063546258777947173257 82.91696388709807763 0.063546258777947173257 71.22238498471321577
0.079999999999998294697 100.69399627456149915 0.079999999999998294697 83.93159202165048782
0.100714032943542974863 121.53715300684572753 0.100714032943542974863 97.77741772369871853
0.126791455396897845276 145.67568892823766191 0.126791455396897845276 112.41115171749906665
0.159620985197506115583 173.23726485312599266 0.159620985197506115583 127.30939628509952399
0.200950914520774404082 204.20831444030383750 0.200950914520774404082 141.77806473466802117
0.252982212813464002465 238.39488490048071867 0.252982212813464002465 155.00325349933211783
0.318485736442795541734 275.40657889791816615 0.318485736442795541734 166.14730701403217950
0.400949786901819038576 314.66183660237948061 0.400949786901819038576 174.48601156003795154
0.504765875584169521062 355.43522010764564811 0.504765875584169521062 179.56417419866011187
0.635462587779443310865 396.93436608488121919 0.635462587779443310865 181.30678968234377635
0.799999999999997157829 438.39823494977866858 0.799999999999997157829 180.05371072623844952
1.007140329435330272645 479.18949125998045702 1.007140329435330272645 176.49381577596162174
1.267914553968893187630 518.86161699338072140 1.267914553968893187630 171.51222439342868142
1.596209851975103788391 557.18003484430971639 1.596209851975103788391 165.99876524416268353
2.009509145207687197399 594.10026087863991506 2.009509145207687197399 160.70029219500989370
2.529822128134711078928 629.72042127065128625 2.529822128134711078928 156.12887209351023898
3.184857364427983839050 664.21690831989462822 3.184857364427983839050 152.54344005329960510
4.009497869018190385759 697.78841727131373318 4.009497869018190385759 149.98970711792142652
5.009497869018190385759 729.54091034958617001 5.009497869018190385759 148.39312422984787077
6.009497869018190385759 755.05777276069090931 6.009497869018190385759 147.62653633627215299
7.009497869018204596614 776.36198551378515731 7.009497869018204596614 147.27568133763949731
8.009497869018190385759 794.62011873827304953 8.009497869018190385759 147.18734768378578792
9.009497869018204596614 810.58196305525996195 9.009497869018204596614 147.21450378523610425
10.009497869018190385759 824.72578735259389759 10.009497869018190385759 147.25142640169991637
11.009497869018190385759 837.42292983899915271 11.009497869018190385759 147.26234294979434480
12.009497869018190385759 848.90682782665385275 12.009497869018190385759 147.37579126399856477
13.009497869018190385759 859.37777120436135192 13.009497869018190385759 147.42653781315198103
14.009497869018204596614 869.00700095188699379 14.009497869018204596614 147.45133184686858385
15.009497869018190385759 877.88911144161977518 15.009497869018190385759 147.54447923676994492
16.009497869018190385759 886.12204135872309507 16.009497869018190385759 147.54504538272044556
17.009497869018190385759 893.80130039959362875 17.009497869018190385759 147.43636069973476310
18.009497869018190385759 900.97501192892502786 18.009497869018190385759 147.47514134094944893
19.009497869018204596614 907.68786657282669239 19.009497869018204596614 147.46961843020994820
20.009497869018190385759 913.99921069903757598 20.009497869018190385759 147.47200106825593480
21.009497869018204596614 919.97303992870035927 21.009497869018204596614 147.38937144553096914
22.009497869018190385759 925.62462940755051477 22.009497869018190385759 147.35134311465000678
23.009497869018190385759 930.97630317542632383 23.009497869018190385759 147.55936333421334439
24.009497869018190385759 936.04422853752384981 24.009497869018190385759 147.58503718368294244
25.009497869018190385759 940.86473485904502922 25.009497869018190385759 147.58109878614499166
26.009497869018204596614 945.48084920544715715 26.009497869018204596614 147.65443370119942301
27.009497869018190385759 949.89744899265440381 27.009497869018190385759 147.60946065256916881
28.009497869018190385759 954.11792878914457106 28.009497869018190385759 147.66193974368283648
29.009497869018190385759 958.15503921407866983 29.009497869018190385759 147.83216246066697863
30.009497869018190385759 962.01448778042072263 30.009497869018190385759 147.84149809297062461
31.009497869018190385759 965.71599833777361255 31.009497869018190385759 147.78742430970146415
32.009497869018190385759 969.28036195389540808 32.009497869018190385759 147.72018005128506957
33.009497869018190385759 972.71748668843019914 33.009497869018190385759 147.66065890321974052
34.009497869018190385759 976.02763679663598850 34.009497869018190385759 147.54431938527739021
35.009497869018190385759 979.21342054367391938 35.009497869018190385759 147.51643363340582482
36.009497869018190385759 982.28315315461713908 36.009497869018190385759 147.51235150535947582
37.009497869018190385759 985.24156013287722544 37.009497869018190385759 147.45720559162322161
38.009497869018190385759 988.09207055949025289 38.009497869018190385759 147.32659818244272287
39.009497869018190385759 990.84636728881935142 39.009497869018190385759 147.12100629198982915
40.009497869018190385759 993.51382791317496412 40.009497869018190385759 146.83488773931640026
41.009497869018190385759 996.10204537709466877 41.009497869018190385759 146.67046407530742158
42.009497869018190385759 998.60880703012094273 42.009497869018190385759 146.36069591032139670
43.009497869018190385759 1001.03587627904084911 43.009497869018190385759 146.15377334498936079
44.009497869018218807469 1003.38380524389276616 44.009497869018218807469 145.96956948806840160
46.009497869018190385759 1007.86228293282351842 46.009497869018190385759 145.46946015040137468
48.009497869018190385759 1012.05149720297947624 48.009497869018190385759 144.95835773090252019
50.009497869018190385759 1015.99880711312846415 50.009497869018190385759 144.50760060021673326
52.009497869018190385759 1019.74349427691686287 52.009497869018190385759 144.18963822758882998
54.009497869018190385759 1023.29185991500185082 54.009497869018190385759 143.88818564837703207
56.009497869018190385759 1026.65164825141778238 56.009497869018190385759 143.75647795442142751
58.009497869018218807469 1029.84633969419269306 58.009497869018218807469 143.63707932118754229
60.009497869018190385759 1032.91339438608906676 60.009497869018190385759 143.46836663231803755
62.009497869018190385759 1035.84284609950827871 62.009497869018190385759 143.27554715986582323
64.009497869018190385759 1038.64442619862325046 64.009497869018190385759 143.11854932471285906
66.009497869018190385759 1041.32465283250439825 66.009497869018190385759 142.94548663009925349
68.009497869018190385759 1043.88728499361195645 68.009497869018190385759 142.58896734219348446
70.009497869018190385759 1046.33226288480909716 70.009497869018190385759 142.31165568444887981
72.009497869018218807469 1048.67403977008666516 72.009497869018218807469 141.57058104927671138
74.009497869018190385759 1050.92388718952543059 74.009497869018190385759 140.91822272150267281
76.009497869018190385759 1053.09016466148364088 76.009497869018190385759 140.37391915710168178
78.009497869018190385759 1055.16938412038985007 78.009497869018190385759 139.65964850125925523
80.009497869018190385759 1057.16153154049175100 80.009497869018190385759 139.18903184527570716
82.009497869018218807469 1059.06855898609728683 82.009497869018218807469 138.75539143365307382
84.009497869018190385759 1060.89693109625727629 84.009497869018190385759 138.14672750215919450
86.009497869018190385759 1062.63168746471501436 86.009497869018190385759 137.47914884113203016
88.009497869018190385759 1064.29109019191491825 88.009497869018190385759 137.05003290067097055
91.009497869018218807469 1066.66978445618383375 91.009497869018218807469 136.67414862128572395
94.009497869018190385759 1068.94858698495954741 94.009497869018190385759 136.43072809846114524
97.009497869018190385759 1071.13526458707633537 97.009497869018190385759 136.42142818005166305
99.504748934509109403734 1072.88285496115577189 99.504748934509109403734 133.20329987966306362
nan nan nan nan

