Time Pressure difference Time.1 Pressure.1 difference.1
(hr) (psi) (hr) (psi)
0.000200000000006639311 0.12293747861771306 0.000200000000006639311 0.09817696069319787
0.000399999999999067768 0.24544132125362450 0.000399999999999067768 0.25529543174893737
0.000600000000005707079 0.36758689790718169 0.000600000000005707079 0.37274049266506770
0.000799999999998135536 0.48940905934297568 0.000799999999998135536 0.49184715645587196
0.001007140329434719206 0.61526270948751072 0.001007140329434719206 0.61640411213404545
0.001267914553963578328 0.77327068420161016 0.001267914553963578328 0.77366576838321877
0.001596209851982166583 0.97154428709635487 0.001596209851982166583 0.97048820212243392
0.002009509145210586212 1.22018963470500164 0.002009509145210586212 1.21654745428390942
0.002529822128138903281 1.53177344361315759 0.002529822128138903281 1.52374889556075321
0.003184857364445292660 1.92188356484795997 0.003184857364445292660 1.90667364992777055
0.004009497869020606231 2.40980017621841380 0.004009497869020606231 2.38307881490735918
0.005047658755842121536 3.01928639824160472 0.005047658755842121536 2.97443862769281653
0.006354625877804664924 3.77950827456718219 0.006354625877804664924 3.70650049767044543
0.008000000000009777068 4.72608079669107806 0.008000000000009777068 4.60980737656345863
0.010071403294347192059 5.90222745406963689 0.010071403294347192059 5.72011160063097623
0.012679145539692626699 7.36001535210393421 0.012679145539692626699 7.07854811350078883
0.015962098519750611558 9.16159232450207028 0.015962098519750611558 8.73139898851078478
0.020095091452091651263 11.38031037302382842 0.020095091452091651263 10.72921388925691843
0.025298221281346400247 14.10155307509642242 0.025298221281346400247 13.12494886371951175
0.031848573644282396344 17.42299533656461108 0.031848573644282396344 15.97071360765406034
0.040094978690191851456 21.45392385247094680 0.040094978690191851456 19.31263715862095864
0.050476587558421215363 26.31312052885638408 0.050476587558421215363 23.18376523388836219
0.063546258777947173257 32.12489700337831522 0.063546258777947173257 27.59401303072658251
0.079999999999998294697 39.01233363517042818 0.079999999999998294697 32.51799900315254632
0.100714032943542974863 47.08769278799258728 0.100714032943542974863 37.88235032227070320
0.126791455396897845276 56.43979571041667498 0.126791455396897845276 43.55196453976403603
0.159620985197506115583 67.11810261325301497 0.159620985197506115583 49.32405929370347764
0.200950914520774404082 79.11735742713342745 0.200950914520774404082 54.92972141552582599
0.252982212813464002465 92.36241613945325923 0.252982212813464002465 60.05361653900826013
0.318485736442795541734 106.70202533217772611 0.318485736442795541734 64.37120795308052834
0.400949786901819038576 121.91086863128838047 0.400949786901819038576 67.60191023792047815
0.504765875584169521062 137.70788632442815924 0.504765875584169521062 69.56936591989972385
0.635462587779443310865 153.78608947791209971 0.635462587779443310865 70.24451537431120585
0.799999999999997157829 169.85062505907654895 0.799999999999997157829 69.75902928660548241
1.007140329435330272645 185.65456729444269968 1.007140329435330272645 68.37980297079140257
1.267914553968893187630 201.02491967282813334 1.267914553968893187630 66.44976233043833247
1.596209851975103788391 215.87079884020380405 1.596209851975103788391 64.31365773857612567
2.009509145207687197399 230.17497018334742620 2.009509145207687197399 62.26084619073682092
2.529822128134711078928 243.97545117292250438 2.529822128134711078928 60.48972007811391904
3.184857364427983839050 257.34058228100633414 3.184857364427983839050 59.10059981122602579
4.009497869018190385759 270.34734491139903412 4.009497869018190385759 58.11119542788578229
5.009497869018190385759 282.64935793648896833 5.009497869018190385759 57.49262404716618846
6.009497869018190385759 292.53547216906349604 6.009497869018190385759 57.19562140777036063
7.009497869018204596614 300.78946035612619880 7.009497869018204596614 57.05968805751477646
8.009497869018190385759 307.86329207660838847 8.009497869018190385759 57.02546454764475214
9.009497869018204596614 314.04746212612167255 9.009497869018204596614 57.03598575972498708
10.009497869018190385759 319.52726839838720707 10.009497869018190385759 57.05029085720310889
11.009497869018190385759 324.44658014704680227 11.009497869018190385759 57.05452030515592554
12.009497869018190385759 328.89583905325855540 12.009497869018190385759 57.09847410228216802
13.009497869018190385759 332.95264434095673778 13.009497869018190385759 57.11813506896987747
14.009497869018204596614 336.68334068293006567 14.009497869018204596614 57.12774113438888435
15.009497869018190385759 340.12457720774801828 15.009497869018190385759 57.16382965194227239
16.009497869018190385759 343.31429874631157872 16.009497869018190385759 57.16404899644665960
17.009497869018190385759 346.28950905533997684 17.009497869018190385759 57.12194079466163998
18.009497869018190385759 349.06885278921708959 18.009497869018190385759 57.13696575513225184
19.009497869018204596614 351.66964464078097308 19.009497869018204596614 57.13482598866772832
20.009497869018190385759 354.11487744360618990 20.009497869018190385759 57.13574910497874981
21.009497869018204596614 356.42934531269020226 21.009497869018204596614 57.10373553387063339
22.009497869018190385759 358.61896636732325305 22.009497869018190385759 57.08900204441936665
23.009497869018190385759 360.69238971194528176 23.009497869018190385759 57.16959626561145313
24.009497869018190385759 362.65587911925007347 24.009497869018190385759 57.17954320205516439
25.009497869018190385759 364.52350984067714990 25.009497869018190385759 57.17801733075774706
26.009497869018204596614 366.31195204818374123 26.009497869018204596614 57.20642981093590151
27.009497869018190385759 368.02309542123782649 27.009497869018190385759 57.18900569785402865
28.009497869018190385759 369.65825513296704230 28.009497869018190385759 57.20933791116507905
29.009497869018190385759 371.22237121383153635 29.009497869018190385759 57.27528807376626929
30.009497869018190385759 372.71765495157660553 30.009497869018190385759 57.27890502031322484
31.009497869018190385759 374.15174804709550926 31.009497869018190385759 57.25795496815658936
32.009497869018190385759 375.53270567847260963 32.009497869018190385759 57.23190221882248352
33.009497869018190385759 376.86436657038655085 33.009497869018190385759 57.20884166931026726
34.009497869018190385759 378.14683310445582265 34.009497869018190385759 57.16376771995039974
35.009497869018190385759 379.38111581273227557 35.009497869018190385759 57.15296381608393261
36.009497869018190385759 380.57043630074173279 36.009497869018190385759 57.15138225862095567
37.009497869018190385759 381.71662539179538953 37.009497869018190385759 57.13001682607390563
38.009497869018190385759 382.82101163037839342 38.009497869018190385759 57.07941500262178636
39.009497869018190385759 383.88812135797189740 39.009497869018190385759 56.99976160003794945
40.009497869018190385759 384.92158777787932422 40.009497869018190385759 56.88890938591316626
41.009497869018190385759 385.92435265918851428 41.009497869018190385759 56.82520597682068342
42.009497869018190385759 386.89555874465418128 42.009497869018190385759 56.70519108567425803
43.009497869018190385759 387.83588923900009604 43.009497869018190385759 56.62502213366079928
44.009497869018218807469 388.74555805260769148 44.009497869018218807469 56.55365519433016885
46.009497869018190385759 390.48067506297877571 46.009497869018190385759 56.35989555565289777
48.009497869018190385759 392.10372142942662776 48.009497869018190385759 56.16187681720830938
50.009497869018190385759 393.63304568780898762 50.009497869018190385759 55.98723792887978590
52.009497869018190385759 395.08386689262749769 52.009497869018190385759 55.86404831854226671
54.009497869018190385759 396.45862635450333755 54.009497869018190385759 55.74725517266963948
56.009497869018190385759 397.76032445342889332 56.009497869018190385759 55.69622706087531583
58.009497869018218807469 398.99805831083898511 58.009497869018218807469 55.64996790454385689
60.009497869018190385759 400.18634128047438026 60.009497869018190385759 55.58460277901326663
62.009497869018190385759 401.32131210138021515 62.009497869018190385759 55.50989785251346120
64.009497869018190385759 402.40674104030426861 64.009497869018190385759 55.44907146611911486
66.009497869018190385759 403.44515345343097579 66.009497869018190385759 55.38202099804892242
68.009497869018190385759 404.43800570433137409 68.009497869018190385759 55.24389310639957529
70.009497869018190385759 405.38527462552809766 70.009497869018190385759 55.13645298769223757
72.009497869018218807469 406.29255991092367140 72.009497869018218807469 54.84933506621192834
74.009497869018190385759 407.16422854463297654 74.009497869018190385759 54.59658890780733032
76.009497869018190385759 408.00351929293083231 76.009497869018190385759 54.38570689856295814
78.009497869018190385759 408.80908075868501328 78.009497869018190385759 54.10897376488578203
80.009497869018190385759 409.58090750783446765 80.009497869018190385759 53.92664061021153543
82.009497869018218807469 410.31975583754558556 82.009497869018218807469 53.75863333031585256
84.009497869018190385759 411.02813037237194749 84.009497869018190385759 53.52281589088889291
86.009497869018190385759 411.70023493397337688 86.009497869018190385759 53.26417284944382402
88.009497869018190385759 412.34314489110840896 88.009497869018190385759 53.09791850601911278
91.009497869018218807469 413.26473324480417659 91.009497869018218807469 52.95228794751383816
94.009497869018190385759 414.14762008841364604 94.009497869018190385759 52.85797842558180548
97.009497869018190385759 414.99481455206102964 97.009497869018190385759 52.85437531583153259
99.504748934509109403734 415.67189145091890623 99.504748934509109403734 51.60756120992181195
nan nan nan nan

