Time Pressure difference Time.1 Pressure.1 difference.1
(hr) (psi) (hr) (psi)
0.000200000000006639311 0.17111567969762767 0.000200000000006639311 0.13665171555945108
0.000399999999999067768 0.34162778498815299 0.000399999999999067768 0.35534364148838582
0.000600000000005707079 0.51164122276269886 0.000600000000005707079 0.51881446952029686
0.000799999999998135536 0.68120450151792555 0.000799999999998135536 0.68459806912101107
0.001007140329434719206 0.85637917671910280 0.001007140329434719206 0.85796788580819838
0.001267914553963578328 1.07630919557791693 0.001267914553963578328 1.07685911004691270
0.001596209851982166583 1.35228461582330461 0.001596209851982166583 1.35081465971095538
0.002009509145210586212 1.69837205911642108 0.002009509145210586212 1.69330253771949546
0.002529822128138903281 2.13206303638047601 0.002529822128138903281 2.12089373301023754
0.003184857364445292660 2.67505415107216082 0.003184857364445292660 2.65388359381838379
0.004009497869020606231 3.35418132635806288 0.004009497869020606231 3.31698808020889224
0.005047658755842121536 4.20252025701196352 0.005047658755842121536 4.14009700881567699
0.006354625877804664924 5.26066692270837510 0.006354625877804664924 5.15904799000075531
0.008000000000009777068 6.57819354134028345 0.008000000000009777068 6.41635351062211079
0.010071403294347192059 8.21526253742125157 0.010071403294347192059 7.96177695763500815
0.012679145539692626699 10.24434569279331342 0.012679145539692626699 9.85257372554839606
0.015962098519750611558 12.75194607329342489 0.015962098519750611558 12.15316345698122902
0.020095091452091651263 15.84016173542505790 0.020095091452091651263 14.93390581883057600
0.025298221281346400247 19.62783738830988511 0.025298221281346400247 18.26850990490688886
0.031848573644282396344 24.25092594143452374 0.031848573644282396344 22.22950677822118948
0.040094978690191851456 29.86154265952037079 0.040094978690191851456 26.88110307213457517
0.050476587558421215363 36.62501911448929093 0.050476587558421215363 32.26929485257434038
0.063546258777947173257 44.71438366686440702 0.063546258777947173257 38.40788300222753548
0.079999999999998294697 54.30095087057505765 0.079999999999998294697 45.26153915303665087
0.100714032943542974863 65.54097779950319591 0.100714032943542974863 52.72813625937679660
0.126791455396897845276 78.55809402936375818 0.126791455396897845276 60.61962631886075314
0.159620985197506115583 93.42114282655485624 0.159620985197506115583 68.65375820610078961
0.200950914520774404082 110.12280831073977083 0.200950914520774404082 76.45623386215081041
0.252982212813464002465 128.55849814004980658 0.252982212813464002465 83.58814193943041460
0.318485736442795541734 148.51768390830144995 0.318485736442795541734 89.59776242117965239
0.400949786901819038576 169.68674958138788611 0.400949786901819038576 94.09455073656496893
0.504765875584169521062 191.67449042454188657 0.504765875584169521062 96.83303634796853032
0.635462587779443310865 214.05361103006683265 0.635462587779443310865 97.77277139937910988
0.799999999999997157829 236.41370785249844744 0.799999999999997157829 97.09702725027518966
1.007140329435330272645 258.41108690983242013 1.007140329435330272645 95.17729332420967125
1.267914553968893187630 279.80495576082830667 1.267914553968893187630 92.49088540588037688
1.596209851975103788391 300.46881460190525104 1.596209851975103788391 89.51765874423432479
2.009509145207687197399 320.37867471465926883 2.009509145207687197399 86.66036699521477260
2.529822128134711078928 339.58745230825695671 2.529822128134711078928 84.19515091953694252
3.184857364427983839050 358.19026993167096862 3.184857364427983839050 82.26164568319298098
4.009497869018190385759 376.29427737667703013 4.009497869018190385759 80.88450174421940631
5.009497869018190385759 393.41734956024811254 5.009497869018190385759 80.02351725483941891
6.009497869018190385759 407.17775180288560932 6.009497869018190385759 79.61012168919387477
7.009497869018204596614 418.66641103622970377 7.009497869018204596614 79.42091716113543498
8.009497869018190385759 428.51242005257654455 8.009497869018190385759 79.37328173523526686
9.009497869018204596614 437.12011620257476352 9.009497869018204596614 79.38792612502261647
10.009497869018190385759 444.74741412207941949 10.009497869018190385759 79.40783727421514016
11.009497869018190385759 451.59456425872730279 11.009497869018190385759 79.41372420852783875
12.009497869018190385759 457.78745165521121407 12.009497869018190385759 79.47490314236570441
13.009497869018190385759 463.43408604214249635 13.009497869018190385759 79.50226908248509972
14.009497869018204596614 468.62681203164589760 14.009497869018204596614 79.51563968705480079
15.009497869018190385759 473.41664124862222707 15.009497869018190385759 79.56587100202774820
16.009497869018190385759 477.85638879554176128 16.009497869018190385759 79.56617630586495693
17.009497869018190385759 481.99755990135156480 17.009497869018190385759 79.50756624121822824
18.009497869018190385759 485.86610590931559273 18.009497869018190385759 79.52847936187325217
19.009497869018204596614 489.48612700000597897 19.009497869018204596614 79.52550103828076544
20.009497869018190385759 492.88962671204643584 20.009497869018190385759 79.52678591638934336
21.009497869018204596614 496.11111577306883191 21.009497869018204596614 79.48222648633344534
22.009497869018190385759 499.15883156532839848 22.009497869018190385759 79.46171906182695466
23.009497869018190385759 502.04481270716706831 23.009497869018190385759 79.57389750483756075
24.009497869018190385759 504.77777769301030730 24.009497869018190385759 79.58774256502273658
25.009497869018190385759 507.37731775121278588 25.009497869018190385759 79.58561871713578739
26.009497869018204596614 509.86663595895839762 26.009497869018204596614 79.62516581792429804
27.009497869018190385759 512.24836254577701311 27.009497869018190385759 79.60091333620222542
28.009497869018190385759 514.52432809048116269 28.009497869018190385759 79.62921357905408115
29.009497869018190385759 516.70140858141417084 29.009497869018190385759 79.72100907564765748
30.009497869018190385759 518.78268189205937233 30.009497869018190385759 79.72604347421976456
31.009497869018190385759 520.77878444393036261 31.009497869018190385759 79.69688326648821430
32.009497869018190385759 522.70092817409022246 32.009497869018190385759 79.66062065592858232
33.009497869018190385759 524.55445617229486288 33.009497869018190385759 79.62852286403996516
34.009497869018190385759 526.33951094268854831 34.009497869018190385759 79.56578479939042836
35.009497869018190385759 528.05749903664093381 35.009497869018190385759 79.55074693319791379
36.009497869018190385759 529.71290458076214236 36.009497869018190385759 79.54854557618861577
37.009497869018190385759 531.30827588317458776 37.009497869018190385759 79.51880720385962320
38.009497869018190385759 532.84546213417536364 38.009497869018190385759 79.44837493608167733
39.009497869018190385759 534.33076351177169272 39.009497869018190385759 79.33750601086363474
40.009497869018190385759 535.76923704218336297 40.009497869018190385759 79.18321171282507009
41.009497869018190385759 537.16497734995152769 41.009497869018190385759 79.09454345422338406
42.009497869018190385759 538.51679122566736169 42.009497869018190385759 78.92749570033038253
43.009497869018190385759 539.82562961644612187 43.009497869018190385759 78.81590918604139517
44.009497869018218807469 541.09179026241338306 44.009497869018218807469 78.71657412183793667
46.009497869018190385759 543.50688556063255419 46.009497869018190385759 78.44688165178713746
48.009497869018190385759 545.76599063825608482 48.009497869018190385759 78.17126097530345419
50.009497869018190385759 547.89464467357186095 50.009497869018190385759 77.92818252262998158
52.009497869018190385759 549.91403094514373606 52.009497869018190385759 77.75671590283586454
54.009497869018190385759 551.82754749343030198 54.009497869018190385759 77.59415247006720051
56.009497869018190385759 553.63937052301582753 56.009497869018190385759 77.52312685500211842
58.009497869018218807469 555.36216224346514991 58.009497869018218807469 77.45873911037861603
60.009497869018190385759 557.01612367417374116 60.009497869018190385759 77.36775792214008618
62.009497869018190385759 558.59588035732656408 62.009497869018190385759 77.26377674066063150
64.009497869018190385759 560.10668009663970679 64.009497869018190385759 77.17911298662525610
66.009497869018190385759 561.55203791491067022 66.009497869018190385759 77.08578598377080482
68.009497869018190385759 562.93398091278550055 68.009497869018190385759 76.89352689133994545
70.009497869018190385759 564.25247684364046563 70.009497869018190385759 76.74398186124732035
72.009497869018218807469 565.51531987601538276 72.009497869018218807469 76.34434475432200884
74.009497869018190385759 566.72858837969192791 74.009497869018190385759 75.99254942573180927
76.009497869018190385759 567.89679036718757743 76.009497869018190385759 75.69902446691871489
78.009497869018190385759 569.01804483979128690 78.009497869018190385759 75.31384186193561447
80.009497869018190385759 570.09234423387772495 80.009497869018190385759 75.06005382232144996
82.009497869018218807469 571.12074123334048181 82.009497869018218807469 74.82620585165584259
84.009497869018190385759 572.10672200478791183 84.009497869018190385759 74.49797346975076096
86.009497869018190385759 573.04221889458449368 86.009497869018190385759 74.13797031746911159
88.009497869018190385759 573.93708005113740001 88.009497869018190385759 73.90656224486444614
91.009497869018218807469 575.21983140830843695 91.009497869018218807469 73.70386025126924778
94.009497869018190385759 576.44871444738657829 94.009497869018190385759 73.57259159236386381
97.009497869018190385759 577.62791755219302559 97.009497869018190385759 73.56757645311687099
99.504748934509109403734 578.57033539790063514 99.504748934509109403734 71.83214600840469188
nan nan nan nan

