Time Pressure difference Time.1 Pressure.1 difference.1
(hr) (psi) (hr) (psi)
0.000200000000006639311 0.87385288855293353 0.000200000000006639311 0.69785245033273080
0.000399999999999067768 1.74462344566765504 0.000399999999999067768 1.81466752837758194
0.000600000000005707079 2.61284740944834581 0.000600000000005707079 2.64947971813277849
0.000799999999998135536 3.47877250289736750 0.000799999999998135536 3.49610276075390081
0.001007140329434719206 4.37335385392473786 0.001007140329434719206 4.38146706733118751
0.001267914553963578328 5.49649162013576920 0.001267914553963578328 5.49929992121044631
0.001596209851982166583 6.90584182449571138 0.001596209851982166583 6.89833505832973337
0.002009509145210586212 8.67323983587609071 0.002009509145210586212 8.64735082369373487
0.002529822128138903281 10.88801123433136375 0.002529822128138903281 10.83097187925616289
0.003184857364445292660 13.66095615013550102 0.003184857364445292660 13.55284243056766691
0.004009497869020606231 17.12912017149845667 0.004009497869020606231 16.93918184650366143
0.005047658755842121536 21.46141412804167814 0.005047658755842121536 21.14263132657326238
0.006354625877804664924 26.86515341111267574 0.006354625877804664924 26.34620624019803259
0.008000000000009777068 33.59349323053388048 0.008000000000009777068 32.76700919016728619
0.010071403294347192059 41.95367082217066468 0.010071403294347192059 40.65917164772828585
0.012679145539692626699 52.31578480009012821 0.012679145539692626699 50.31508523920830811
0.015962098519750611558 65.12158868497418496 0.015962098519750611558 62.06372794536044779
0.020095091452091651263 80.89247643527748721 0.020095091452091651263 76.26441223985324314
0.025298221281346400247 100.23536375000971077 0.025298221281346400247 93.29355543670897077
0.031848573644282396344 123.84453441936466334 0.031848573644282396344 113.52155888683832075
0.040094978690191851456 152.49681008648266811 0.040094978690191851456 137.27631277614355554
0.050476587558421215363 187.03650538078997556 0.050476587558421215363 164.79270963547674000
0.063546258777947173257 228.34724086185124747 0.063546258777947173257 196.14122775894841766
0.079999999999998294697 277.30388502837359965 0.079999999999998294697 231.14145237375998931
0.100714032943542974863 334.70441089843382088 0.100714032943542974863 269.27184147992426233
0.126791455396897845276 401.18016950917802887 0.126791455396897845276 309.57207226913357090
0.159620985197506115583 477.08272938609565017 0.159620985197506115583 350.60074579037876674
0.200950914520774404082 562.37472981989435539 0.200950914520774404082 390.44639816981873537
0.252982212813464002465 656.52203904530290401 0.252982212813464002465 426.86759864213979654
0.318485736442795541734 758.44953141520920781 0.318485736442795541734 457.55750518000479587
0.400949786901819038576 866.55563378456338341 0.400949786901819038576 480.52168628575896037
0.504765875584169521062 978.84254333309752383 0.504765875584169521062 494.50657397117907976
0.635462587779443310865 1093.12814953218594383 0.635462587779443310865 499.30560928226611850
0.799999999999997157829 1207.31660514965233233 0.799999999999997157829 495.85472168587136821
1.007140329435330272645 1319.65273509293069765 1.007140329435330272645 486.05103192751732877
1.267914553968893187630 1428.90686145821086939 1.267914553968893187630 472.33209440284542779
1.596209851975103788391 1534.43297553982688441 1.596209851975103788391 457.14843203366268654
2.009509145207687197399 1636.10857184379392493 2.009509145207687197399 442.55682562604823715
2.529822128134711078928 1734.20388266158397528 2.529822128134711078928 429.96746974443135514
3.184857364427983839050 1829.20467945688255895 3.184857364427983839050 420.09345271222827023
4.009497869018190385759 1921.65815437021478829 4.009497869018190385759 413.06065939280978228
5.009497869018190385759 2009.10219289990777725 5.009497869018190385759 408.66378714607321854
6.009497869018190385759 2079.37376163415410701 6.009497869018190385759 406.55266027685416930
7.009497869018204596614 2138.04400199084284395 7.009497869018204596614 405.58643132774017204
8.009497869018190385759 2188.32556259859484271 8.009497869018190385759 405.34316691974515834
9.009497869018204596614 2232.28331186945933950 9.009497869018204596614 405.41795283263974170
10.009497869018190385759 2271.23436726421141429 10.009497869018190385759 405.51963501201123563
11.009497869018190385759 2306.20136699117028911 11.009497869018190385759 405.54969838529751769
12.009497869018190385759 2337.82718029748639310 12.009497869018190385759 405.86212672703271664
13.009497869018190385759 2366.66339085599020109 13.009497869018190385759 406.00187900375885874
14.009497869018204596614 2393.18158377325926267 14.009497869018204596614 406.07015995525068774
15.009497869018190385759 2417.64226501723578622 15.009497869018190385759 406.32668103948157068
16.009497869018190385759 2440.31515054810643051 16.009497869018190385759 406.32824016393169586
17.009497869018190385759 2461.46326706903801096 17.009497869018190385759 406.02893051340572583
18.009497869018190385759 2481.21914279902921407 18.009497869018190385759 406.13572955675084586
19.009497869018204596614 2499.70585244663288904 19.009497869018204596614 406.12051986539495374
20.009497869018190385759 2517.08683155860626357 20.009497869018190385759 406.12708147593002650
21.009497869018204596614 2533.53831938479788732 21.009497869018204596614 405.89952555156691005
22.009497869018190385759 2549.10238255691956510 22.009497869018190385759 405.79479831573769388
23.009497869018190385759 2563.84049984436751402 23.009497869018190385759 406.36767075285979445
24.009497869018190385759 2577.79719482061545932 24.009497869018190385759 406.43837465244621399
25.009497869018190385759 2591.07251589454290297 25.009497869018190385759 406.42752859430504486
26.009497869018204596614 2603.78495645060320385 26.009497869018204596614 406.62948757503085062
27.009497869018190385759 2615.94794853474422780 27.009497869018190385759 406.50563509555701103
28.009497869018190385759 2627.57084053973858317 28.009497869018190385759 406.65015866584906234
29.009497869018190385759 2638.68874673615391657 29.009497869018190385759 407.11893955136565637
30.009497869018190385759 2649.31738519634154727 30.009497869018190385759 407.14464919844260749
31.009497869018190385759 2659.51107395638200614 31.009497869018190385759 406.99573396284279170
32.009497869018190385759 2669.32707009292698785 32.009497869018190385759 406.81054820406251338
33.009497869018190385759 2678.79265967599076248 33.009497869018190385759 406.64663132509730303
34.009497869018190385759 2687.90857044518588737 34.009497869018190385759 406.32624082018804756
35.009497869018190385759 2696.68198537158377803 35.009497869018190385759 406.24944550351557382
36.009497869018190385759 2705.13580397554278534 36.009497869018190385759 406.23820362208942925
37.009497869018190385759 2713.28303994708630853 37.009497869018190385759 406.08633581776859955
38.009497869018190385759 2721.13313672404137833 38.009497869018190385759 405.72665258620355644
39.009497869018190385759 2728.71826803098974779 39.009497869018190385759 405.16046758945896045
40.009497869018190385759 2736.06425906979075080 40.009497869018190385759 404.37251806743682891
41.009497869018190385759 2743.19202025315053106 41.009497869018190385759 403.91970734875241078
42.009497869018190385759 2750.09545810389363396 42.009497869018190385759 403.06662852790083207
43.009497869018190385759 2756.77942891505472289 43.009497869018190385759 402.49677895007545203
44.009497869018218807469 2763.24545318475156819 44.009497869018218807469 401.98949502996850924
46.009497869018190385759 2775.57885247468675516 46.009497869018190385759 400.61223057126250069
48.009497869018190385759 2787.11564151187076277 48.009497869018190385759 399.20469197096713287
50.009497869018190385759 2797.98624367280444858 50.009497869018190385759 397.96333987284822342
52.009497869018190385759 2808.29883764218993747 52.009497869018190385759 397.08769480477343450
54.009497869018190385759 2818.07077651984764088 54.009497869018190385759 396.25751649762474926
56.009497869018190385759 2827.32338733112965201 56.009497869018190385759 395.89480316243810876
58.009497869018218807469 2836.12133339866659298 58.009497869018218807469 395.56598807824417463
60.009497869018190385759 2844.56777720985837732 60.009497869018190385759 395.10136569947269436
62.009497869018190385759 2852.63527250440529315 62.009497869018190385759 394.57035500570384556
64.009497869018190385759 2860.35061874594657638 64.009497869018190385759 394.13799447538724507
66.009497869018190385759 2867.73176643925307872 66.009497869018190385759 393.66139249964510327
68.009497869018190385759 2874.78906757403092342 68.009497869018190385759 392.67956451305644805
70.009497869018190385759 2881.52235747334816551 70.009497869018190385759 391.91586853413673452
72.009497869018218807469 2887.97143936683596621 72.009497869018218807469 389.87500330847933583
74.009497869018190385759 2894.16735424968828738 74.009497869018190385759 388.07845629063041315
76.009497869018190385759 2900.13312362272472456 76.009497869018190385759 386.57948417086646486
78.009497869018190385759 2905.85914160903121228 78.009497869018190385759 384.61243513959351503
80.009497869018190385759 2911.34536958271564799 80.009497869018190385759 383.31639136447654437
82.009497869018218807469 2916.59718338579705232 82.009497869018218807469 382.12217745602896457
84.009497869018190385759 2921.63238616037324391 84.009497869018190385759 380.44596160280485719
86.009497869018190385759 2926.40977804418889718 86.009497869018190385759 378.60749890280339969
88.009497869018190385759 2930.97965152328424665 88.009497869018190385759 377.42574505629801251
91.009497869018218807469 2937.53040117252703567 91.009497869018218807469 376.39058730259836238
94.009497869018190385759 2943.80605630412946994 94.009497869018190385759 375.72022502508150410
97.009497869018190385759 2949.82800614032566955 97.009497869018190385759 375.69461373145117022
99.504748934509109403734 2954.64074193491023834 99.504748934509109403734 366.83212427593070970
nan nan nan nan

