Time Pressure difference Time.1 Pressure.1 difference.1
(hr) (psi) (hr) (psi)
0.000200000000006639311 0.89461935453565533 0.000200000000006639311 0.71443639639577095
0.000399999999999067768 1.78608312831184834 0.000399999999999067768 1.85779175671355135
0.000600000000005707079 2.67493979085158617 0.000600000000005707079 2.71244263919106698
0.000799999999998135536 3.56144295211070805 0.000799999999998135536 3.57918505069577098
0.001007140329434719206 4.47728336566249308 0.001007140329434719206 4.48558938357004688
0.001267914553963578328 5.62711166814279728 0.001267914553963578328 5.62998670641031485
0.001596209851982166583 7.06995403515387899 0.001596209851982166583 7.06226887625581945
0.002009509145210586212 8.87935294984653112 0.002009509145210586212 8.85284870448493599
0.002529822128138903281 11.14675674845520703 0.002529822128138903281 11.08836189539818129
0.003184857364445292660 13.98559864419765653 0.003184857364445292660 13.87491568224465688
0.004009497869020606231 17.53618101207589319 0.004009497869020606231 17.34172894361639194
0.005047658755842121536 21.97142872233924749 0.005047658755842121536 21.64507028395380672
0.006354625877804664924 27.50358386289767054 0.006354625877804664924 26.97230429723695622
0.008000000000009777068 34.39181768943439721 0.008000000000009777068 33.54569286864084887
0.010071403294347192059 42.95066870292566819 0.010071403294347192059 41.62540671540244119
0.012679145539692626699 53.55903063659416574 0.012679145539692626699 51.51078593405641470
0.015962098519750611558 66.66915495600493102 0.015962098519750611558 63.53862642314943088
0.020095091452091651263 82.81482616045042278 0.020095091452091651263 78.07677945087635862
0.025298221281346400247 102.61738285053274922 0.025298221281346400247 95.51060760963456175
0.031848573644282396344 126.78760795594652677 0.031848573644282396344 116.21931456380691827
0.040094978690191851456 156.12078371021087264 0.040094978690191851456 140.53858256645116853
0.050476587558421215363 191.48128925390761879 0.050476587558421215363 168.70888619525516106
0.063546258777947173257 233.77374373404356334 0.063546258777947173257 200.80237860873330646
0.079999999999998294697 283.89380625053075846 0.079999999999998294697 236.63435761077900565
0.100714032943542974863 342.65841305856764620 0.100714032943542974863 275.67088714246995096
0.126791455396897845276 410.71391878458621250 0.126791455396897845276 316.92882303598554472
0.159620985197506115583 488.42024671941544511 0.159620985197506115583 358.93251256296383644
0.200950914520774404082 575.73914830420744693 0.200950914520774404082 399.72506732784671613
0.252982212813464002465 672.12379852831872995 0.252982212813464002465 437.01179062508037987
0.318485736442795541734 776.47352218077969610 0.318485736442795541734 468.43102003694411906
0.400949786901819038576 887.14868591822698818 0.400949786901819038576 491.94092788000233440
0.504765875584169521062 1002.10401061762934205 0.504765875584169521062 506.25815605224323690
0.635462587779443310865 1119.10552951156296331 0.635462587779443310865 511.17123687927818310
0.799999999999997157829 1236.00758911233401705 0.799999999999997157829 507.63834149779791005
1.007140329435330272645 1351.01330389266763632 1.007140329435330272645 497.60167432123205344
1.267914553968893187630 1462.86377356510752179 1.267914553968893187630 483.55671641812216421
1.596209851975103788391 1570.89763750607744441 1.596209851975103788391 468.01222557058429175
2.009509145207687197399 1674.98947896935942481 2.009509145207687197399 453.07386045556461340
2.529822128134711078928 1775.41595211646949792 2.529822128134711078928 440.18532786573439353
3.184857364427983839050 1872.67437240975527857 3.184857364427983839050 430.07666213980024850
4.009497869018190385759 1967.32493560524858367 4.009497869018190385759 422.87673970157425174
5.009497869018190385759 2056.84701687566621331 5.009497869018190385759 418.37537904593233407
6.009497869018190385759 2128.78853733838786866 6.009497869018190385759 416.21408281195050449
7.009497869018204596614 2188.85303245640488967 7.009497869018204596614 415.22489214826629222
8.009497869018190385759 2240.32949707099487568 8.009497869018190385759 414.97584674198242283
9.009497869018204596614 2285.33186966103403392 9.009497869018204596614 415.05240988664735369
10.009497869018190385759 2325.20856800718229351 10.009497869018190385759 415.15650846761991488
11.009497869018190385759 2361.00653255654970053 11.009497869018190385759 415.18728627468192371
12.009497869018190385759 2393.38390986729382348 12.009497869018190385759 415.50713924431005353
13.009497869018190385759 2422.90539158925957963 13.009497869018190385759 415.65021263027404075
14.009497869018204596614 2450.05376969943017684 14.009497869018204596614 415.72011622795150743
15.009497869018190385759 2475.09574089692250709 15.009497869018190385759 415.98273334555290148
16.009497869018190385759 2498.30743074174006324 16.009497869018190385759 415.98432952143957664
17.009497869018190385759 2519.95811657162948904 17.009497869018190385759 415.67790699899046558
18.009497869018190385759 2540.18347604045129629 18.009497869018190385759 415.78724404241506818
19.009497869018204596614 2559.10950863595417104 19.009497869018204596614 415.77167290402121580
20.009497869018190385759 2576.90353382948569561 20.009497869018190385759 415.77839044636556309
21.009497869018204596614 2593.74597906599547059 21.009497869018204596614 415.54542682418019695
22.009497869018190385759 2609.67991065950764096 22.009497869018190385759 415.43821082324097915
23.009497869018190385759 2624.76826837679118398 23.009497869018190385759 416.02469714907789466
24.009497869018190385759 2639.05663386102924051 24.009497869018190385759 416.09708127441496117
25.009497869018190385759 2652.64743309736013543 25.009497869018190385759 416.08597746774387360
26.009497869018204596614 2665.66197537766129244 26.009497869018204596614 416.29273585390512835
27.009497869018190385759 2678.11401195049438684 27.009497869018190385759 416.16594011208638904
28.009497869018190385759 2690.01311336625303738 28.009497869018190385759 416.31389817787015772
29.009497869018190385759 2701.39522836011155960 29.009497869018190385759 416.79381929355594139
30.009497869018190385759 2712.27644853275660353 30.009497869018190385759 416.82013991133339914
31.009497869018190385759 2722.71238274812094460 31.009497869018190385759 416.66768581557192874
32.009497869018190385759 2732.76164875483118522 32.009497869018190385759 416.47809925453930191
33.009497869018190385759 2742.45218105612366344 33.009497869018190385759 416.31028701248084190
34.009497869018190385759 2751.78472468580366694 34.009497869018190385759 415.98228266477423176
35.009497869018190385759 2760.76663331292365910 35.009497869018190385759 415.90366236434050506
36.009497869018190385759 2769.42135064796548249 36.009497869018190385759 415.89215332793759217
37.009497869018190385759 2777.76219964164602061 37.009497869018190385759 415.73667649784863443
38.009497869018190385759 2785.79884814809111049 38.009497869018190385759 415.36844566097073539
39.009497869018190385759 2793.56423447659290105 39.009497869018190385759 414.78880569757347985
40.009497869018190385759 2801.08479754578365828 40.009497869018190385759 413.98213113938163588
41.009497869018190385759 2808.38194468882420551 41.009497869018190385759 413.51855970970188991
42.009497869018190385759 2815.44943762157163292 42.009497869018190385759 412.64520810318362010
43.009497869018190385759 2822.29224804326395315 43.009497869018190385759 412.06181647265321999
44.009497869018218807469 2828.91193258553039414 44.009497869018218807469 411.54247732630807377
46.009497869018190385759 2841.53842596505501206 46.009497869018190385759 410.13248319890658422
48.009497869018190385759 2853.34937823981408656 48.009497869018190385759 408.69149548738749900
50.009497869018190385759 2864.47831220115040196 50.009497869018190385759 407.42064357705089606
52.009497869018190385759 2875.03597731999889220 52.009497869018190385759 406.52418945317583621
54.009497869018190385759 2885.04013907973012465 54.009497869018190385759 405.67428257408920445
56.009497869018190385759 2894.51263132664143995 56.009497869018190385759 405.30294962542376425
58.009497869018218807469 2903.51965405928103792 58.009497869018218807469 404.96632049455223523
60.009497869018190385759 2912.16682134507345836 60.009497869018190385759 404.49065670944116846
62.009497869018190385759 2920.42603468369225084 62.009497869018190385759 403.94702694024999801
64.009497869018190385759 2928.32473040816012144 64.009497869018190385759 403.50439168250198918
66.009497869018190385759 2935.88128560368386388 66.009497869018190385759 403.01646361418039533
68.009497869018190385759 2943.10629826732974834 68.009497869018190385759 402.01130321346175833
70.009497869018190385759 2949.99959980874155008 70.009497869018190385759 401.22945856584152580
72.009497869018218807469 2956.60193935178904212 72.009497869018218807469 399.14009369128547178
74.009497869018190385759 2962.94509555790364175 74.009497869018190385759 397.30085306559789160
76.009497869018190385759 2969.05263701680087252 76.009497869018190385759 395.76625898481290733
78.009497869018190385759 2974.91472957502537611 78.009497869018190385759 393.75246449177018349
80.009497869018190385759 2980.53133368876842724 80.009497869018190385759 392.42562119728256675
82.009497869018218807469 2985.90795295294992684 82.009497869018218807469 391.20302768074441246
84.009497869018190385759 2991.06281358813930638 84.009497869018190385759 389.48697780059012530
86.009497869018190385759 2995.95373664790122348 86.009497869018190385759 387.60482539764188914
88.009497869018190385759 3000.63220978191702670 88.009497869018190385759 386.39498804717965186
91.009497869018218807469 3007.33863313955498597 91.009497869018218807469 385.33523053697564364
94.009497869018190385759 3013.76342456230713651 94.009497869018190385759 384.64893759697031328
97.009497869018190385759 3019.92848157141679621 97.009497869018190385759 384.62271766993620759
99.504748934509109403734 3024.85558846378125963 99.504748934509109403734 375.54961772355267158
nan nan nan nan

