Time Pressure difference Time.1 Pressure.1 difference.1
(hr) (psi) (hr) (psi)
0.000200000000006639311 0.21680190485961565 0.000200000000006639311 0.17313639689813948
0.000399999999999067768 0.43283908680537830 0.000399999999999067768 0.45021694382751798
0.000600000000005707079 0.64824446184982720 0.000600000000005707079 0.65733289584853150
0.000799999999998135536 0.86307948978727467 0.000799999999998135536 0.86737910699312559
0.001007140329434719206 1.08502410254216408 0.001007140329434719206 1.08703698153368800
0.001267914553963578328 1.36367330119338015 0.001267914553963578328 1.36437003748662211
0.001596209851982166583 1.71333147927127438 0.001596209851982166583 1.71146905914834635
0.002009509145210586212 2.15182090985138785 0.002009509145210586212 2.14539787546013772
0.002529822128138903281 2.70130316745293309 0.002529822128138903281 2.68715176852267934
0.003184857364445292660 3.38926763800890285 0.003184857364445292660 3.36244474750775790
0.004009497869020606231 4.24971517562841949 0.004009497869020606231 4.20259169385689724
0.005047658755842121536 5.32455236446661395 0.005047658755842121536 5.24546271505287187
0.006354625877804664924 6.66521391663536900 0.006354625877804664924 6.53646371548639316
0.008000000000009777068 8.33450735092142736 0.008000000000009777068 8.12945760326393696
0.010071403294347192059 10.40865787508226425 0.010071403294347192059 10.08749410651813960
0.012679145539692626699 12.97948653310220735 0.012679145539692626699 12.48311525421422807
0.015962098519750611558 16.15659186956108684 0.015962098519750611558 15.39794010811699110
0.020095091452091651263 20.06933113080553355 0.020095091452091651263 18.92111368308145813
0.025298221281346400247 24.86827940946058391 0.025298221281346400247 23.14602468534319613
0.031848573644282396344 30.72568772191461406 0.031848573644282396344 28.16456926755209267
0.040094978690191851456 37.83428463172241152 0.040094978690191851456 34.05809661081127615
0.050476587558421215363 46.40354363534807902 0.050476587558421215363 40.88488328408691075
0.063546258777947173257 56.65268998568743086 0.063546258777947173257 48.66241487175431502
0.079999999999998294697 68.79877755932082550 0.079999999999998294697 57.34593067447847403
0.100714032943542974863 83.03978255179772816 0.100714032943542974863 66.80603671697738832
0.126791455396897845276 99.53234243526185310 0.126791455396897845276 76.80447800593523766
0.159620985197506115583 118.36368095985834259 0.159620985197506115583 86.98364510578788611
0.200950914520774404082 139.52452897622853811 0.200950914520774404082 96.86930600981244766
0.252982212813464002465 162.88236900268447016 0.252982212813464002465 105.90536430189970929
0.318485736442795541734 188.17046359255667198 0.318485736442795541734 113.51949510644605823
0.400949786901819038576 214.99146427544775406 0.400949786901819038576 119.21688224390027244
0.504765875584169521062 242.84971845051180139 0.504765875584169521062 122.68651692630963623
0.635462587779443310865 271.20384698469632667 0.635462587779443310865 123.87715211280557526
0.799999999999997157829 299.53387257039850056 0.799999999999997157829 123.02099083651370393
1.007140329435330272645 327.40433826925374206 1.007140329435330272645 120.58870659038215933
1.267914553968893187630 354.51016239600096469 1.267914553968893187630 117.18505383948922827
1.596209851975103788391 380.69107092765671041 1.596209851975103788391 113.41800452546193867
2.009509145207687197399 405.91667039090322078 2.009509145207687197399 109.79784362015075772
2.529822128134711078928 430.25400510900516338 2.529822128134711078928 106.67443878640359856
3.184857364427983839050 453.82359442799088356 3.184857364427983839050 104.22470642385130191
4.009497869018190385759 476.76119609375098207 4.009497869018190385759 102.47987842350127607
5.009497869018190385759 498.45596230691620576 5.009497869018190385759 101.38901943452957255
6.009497869018190385759 515.89025835219979399 6.009497869018190385759 100.86525126640583494
7.009497869018204596614 530.44627806046571550 7.009497869018204596614 100.62553096629295624
8.009497869018190385759 542.92107589185661709 8.009497869018190385759 100.56517734415730558
9.009497869018204596614 553.82694334403879566 9.009497869018204596614 100.58373164383932874
10.009497869018190385759 563.49065575661518324 10.009497869018190385759 100.60895887655412650
11.009497869018190385759 572.16592850256222391 11.009497869018190385759 100.61641756517362012
12.009497869018190385759 580.01225670878704932 12.009497869018190385759 100.69393068037597061
13.009497869018190385759 587.16648765533591359 13.009497869018190385759 100.72860306081850013
14.009497869018204596614 593.74562106922121529 14.009497869018204596614 100.74554348699660977
15.009497869018190385759 599.81428818393385427 15.009497869018190385759 100.80918607538467313
16.009497869018190385759 605.43940522153593520 16.009497869018190385759 100.80957289238229180
17.009497869018190385759 610.68622880705220268 17.009497869018190385759 100.73531450950464716
18.009497869018190385759 615.58763904044360515 18.009497869018190385759 100.76181123033457254
19.009497869018204596614 620.17417061651246968 19.009497869018204596614 100.75803772325863861
20.009497869018190385759 624.48637170798110674 20.009497869018190385759 100.75966565134764608
21.009497869018204596614 628.56796707170371974 21.009497869018204596614 100.70320928608266797
22.009497869018190385759 632.42939339102281338 22.009497869018190385759 100.67722657833415667
23.009497869018190385759 636.08590347849815316 23.009497869018190385759 100.81935557651749491
24.009497869018190385759 639.54854358192085328 24.009497869018190385759 100.83689713335404292
25.009497869018190385759 642.84213559741033350 25.009497869018190385759 100.83420623870117083
26.009497869018204596614 645.99607759848618116 26.009497869018204596614 100.88431203144776305
27.009497869018190385759 649.01370206042611244 27.009497869018190385759 100.85358437256689967
28.009497869018190385759 651.89732830881348491 28.009497869018190385759 100.88944050550057341
29.009497869018190385759 654.65566815412182677 29.009497869018190385759 101.00574450846619357
30.009497869018190385759 657.29262123217222324 30.009497869018190385759 101.01212304257940389
31.009497869018190385759 659.82166378575630006 31.009497869018190385759 100.97517734249235843
32.009497869018190385759 662.25700123027934296 32.009497869018190385759 100.92923296697748015
33.009497869018190385759 664.60540320858706309 33.009497869018190385759 100.88856537628365118
34.009497869018190385759 666.86705027204709495 34.009497869018190385759 100.80907685748010749
35.009497869018190385759 669.04372450758876312 35.009497869018190385759 100.79002402701289043
36.009497869018190385759 671.14110726009187147 36.009497869018190385759 100.78723492905452019
37.009497869018190385759 673.16242721120670467 37.009497869018190385759 100.74955670003575392
38.009497869018190385759 675.11002726708625232 38.009497869018190385759 100.66031970056951650
39.009497869018190385759 676.99188969209910738 39.009497869018190385759 100.51984984871558026
40.009497869018190385759 678.81442168936814596 40.009497869018190385759 100.32436047110361699
41.009497869018190385759 680.58281110843381612 41.009497869018190385759 100.21201864831215289
42.009497869018190385759 682.29554616455914129 42.009497869018190385759 100.00037076595258156
43.009497869018190385759 683.95383169850697413 43.009497869018190385759 99.85899173571263532
44.009497869018218807469 685.55804494412575423 44.009497869018218807469 99.73313517378495874
46.009497869018190385759 688.61794723944228735 46.009497869018190385759 99.39143743260410702
48.009497869018190385759 691.48021143973210201 48.009497869018190385759 99.04222871142816587
50.009497869018190385759 694.17719543593341314 50.009497869018190385759 98.73425067187584148
52.009497869018190385759 696.73573823632295898 52.009497869018190385759 98.51700412932116535
54.009497869018190385759 699.16014512517142521 54.009497869018190385759 98.31103783828902465
56.009497869018190385759 701.45570731314148816 56.009497869018190385759 98.22104907357066850
58.009497869018218807469 703.63846769681742899 58.009497869018218807469 98.13947042625639483
60.009497869018190385759 705.73402077164735147 60.009497869018190385759 98.02419814407069509
62.009497869018190385759 707.73555715175825753 62.009497869018190385759 97.89245499666226635
64.009497869018190385759 709.64972575350952866 64.009497869018190385759 97.78518684227763913
66.009497869018190385759 711.48098007665873865 66.009497869018190385759 97.66694243574845302
68.009497869018190385759 713.23188843804382486 68.009497869018190385759 97.42335203223167639
70.009497869018190385759 714.90240998150557061 70.009497869018190385759 97.23387993099781568
72.009497869018218807469 716.50241984291267272 72.009497869018218807469 96.72754359649536582
74.009497869018190385759 718.03961925776491171 74.009497869018190385759 96.28182233066021922
76.009497869018190385759 719.51971983415512568 76.009497869018190385759 95.90992905760090537
78.009497869018190385759 720.94033836497828815 78.009497869018190385759 95.42190643672425665
80.009497869018190385759 722.30146526719465783 80.009497869018190385759 95.10035945449466510
82.009497869018218807469 723.60443428107703312 82.009497869018218807469 94.80407634602998712
84.009497869018190385759 724.85366234587206691 84.009497869018190385759 94.38820910487838489
86.009497869018190385759 726.03892782275033824 86.009497869018190385759 93.93208860611376565
88.009497869018190385759 727.17270822013028919 88.009497869018190385759 93.63889682480397880
91.009497869018218807469 728.79794173576954108 91.009497869018218807469 93.38207536689940014
94.009497869018190385759 730.35492461537796771 94.009497869018190385759 93.21575925051925537
97.009497869018190385759 731.84896350059409542 97.009497869018190385759 93.20940511778398729
99.504748934509109403734 733.04299776141783695 99.504748934509109403734 91.01063159317293128
nan nan nan nan

