Time Pressure difference Time.1 Pressure.1 difference.1
(hr) (psi) (hr) (psi)
0.000200000000006639311 0.67698679103673076 0.000200000000006639311 0.54063664165510983
0.000399999999999067768 1.35158565420070231 0.000399999999999067768 1.40584984375259459
0.000600000000005707079 2.02421163374562862 0.000600000000005707079 2.05259122650020398
0.000799999999998135536 2.69505664435489978 0.000799999999998135536 2.70848265210497097
0.001007140329434719206 3.38810208265081902 0.001007140329434719206 3.39438750938680389
0.001267914553963578328 4.25821356502913684 0.001267914553963578328 4.26038919751569800
0.001596209851982166583 5.35005806745627854 0.001596209851982166583 5.34424246439043049
0.002009509145210586212 6.71928751543632607 0.002009509145210586212 6.69923091379315050
0.002529822128138903281 8.43510376043732002 0.002529822128138903281 8.39091452622982104
0.003184857364445292660 10.58334530642626703 0.003184857364445292660 10.49958800466981756
0.004009497869020606231 13.27018340282437414 0.004009497869020606231 13.12303536587498698
0.005047658755842121536 16.62647577410072941 0.005047658755842121536 16.37951001060571343
0.006354625877804664924 20.81283272819090158 0.006354625877804664924 20.41079665946900690
0.008000000000009777068 26.02537736015694492 0.008000000000009777068 25.38508791823796429
0.010071403294347192059 32.50213091261320386 0.010071403294347192059 31.49926320617733211
0.012679145539692626699 40.52981427003179959 0.012679145539692626699 38.97984265204825505
0.015962098519750611558 50.45066043560262159 0.015962098519750611558 48.08169037592087847
0.020095091452091651263 62.66860104063798076 0.020095091452091651263 59.08317107935397416
0.025298221281346400247 77.65382267705125230 0.025298221281346400247 72.27590083737433702
0.031848573644282396344 95.94419729256863150 0.031848573644282396344 87.94683506917607474
0.040094978690191851456 118.14154013353933692 0.040094978690191851456 106.34999516402756115
0.050476587558421215363 144.89995426363481101 0.050476587558421215363 127.66735584877710608
0.063546258777947173257 176.90399363346841710 0.063546258777947173257 151.95351770298759675
0.079999999999998294697 214.83143184232363865 0.079999999999998294697 179.06871072681974510
0.100714032943542974863 259.30047042036460425 0.100714032943542974863 208.60888859899074532
0.126791455396897845276 310.80022637830808208 0.126791455396897845276 239.83007499937627927
0.159620985197506115583 369.60306506622430334 0.159620985197506115583 271.61559678627253334
0.200950914520774404082 435.68004258860639766 0.200950914520774404082 302.48461455171320722
0.252982212813464002465 508.61735914631356081 0.252982212813464002465 330.70065864386305066
0.318485736442795541734 587.58209895760035124 0.318485736442795541734 354.47658433622046914
0.400949786901819038576 671.33349955743267401 0.400949786901819038576 372.26727597233229972
0.504765875584169521062 758.32383347573625088 0.504765875584169521062 383.10157584269109066
0.635462587779443310865 846.86258732769158541 0.635462587779443310865 386.81945966259212355
0.799999999999997157829 935.32607718342831049 0.799999999999997157829 384.14600586880720812
1.007140329435330272645 1022.35454287142431440 1.007140329435330272645 376.55094203510140005
1.267914553968893187630 1106.99533468483059551 1.267914553968893187630 365.92267769802185740
1.596209851975103788391 1188.74798009977075708 1.596209851975103788391 354.15966930364550080
2.009509145207687197399 1267.51757229343365907 2.009509145207687197399 342.85533544223318358
2.529822128134711078928 1343.51346422926917512 2.529822128134711078928 333.10217475447865354
3.184857364427983839050 1417.11199026364965903 3.184857364427983839050 325.45262733884601403
4.009497869018190385759 1488.73706826209604515 4.009497869018190385759 320.00421806572239802
5.009497869018190385759 1556.48126160971924037 5.009497869018190385759 316.59789593540841679
6.009497869018190385759 1610.92168795801853776 6.009497869018190385759 314.96237464414082297
7.009497869018204596614 1656.37439317731650590 7.009497869018204596614 314.21382274915231392
8.009497869018190385759 1695.32826380024221180 8.009497869018190385759 314.02536220493561814
9.009497869018204596614 1729.38298400533221866 9.009497869018204596614 314.08329996064770739
10.009497869018190385759 1759.55894422084816142 10.009497869018190385759 314.16207465284145428
11.009497869018190385759 1786.64839743137235928 11.009497869018190385759 314.18536519393296658
12.009497869018190385759 1811.14938397571449968 12.009497869018190385759 314.42740806324303549
13.009497869018190385759 1833.48922390459301823 13.009497869018190385759 314.53567622439493334
14.009497869018204596614 1854.03326119316216136 14.009497869018204596614 314.58857449004688078
15.009497869018190385759 1872.98331367780133405 15.009497869018190385759 314.78730517792536148
16.009497869018190385759 1890.54833431245901920 16.009497869018190385759 314.78851305475694744
17.009497869018190385759 1906.93209378447340896 17.009497869018190385759 314.55663343006244759
18.009497869018190385759 1922.23726367035078511 18.009497869018190385759 314.63937223265395460
19.009497869018204596614 1936.55919177186842717 19.009497869018204596614 314.62758905921759833
20.009497869018190385759 1950.02449403066930245 20.009497869018190385759 314.63267243620049385
21.009497869018204596614 1962.76970560704398849 21.009497869018204596614 314.45638148719297078
22.009497869018190385759 1974.82741614438168654 22.009497869018190385759 314.37524774460666777
23.009497869018190385759 1986.24525415699599762 23.009497869018190385759 314.81906051671165869
24.009497869018190385759 1997.05771271749176776 24.009497869018190385759 314.87383587618217007
25.009497869018190385759 2007.34230081183727634 25.009497869018190385759 314.86543327410515758
26.009497869018204596614 2017.19081702209291507 26.009497869018204596614 315.02189389130239761
27.009497869018190385759 2026.61366735343790424 27.009497869018190385759 314.92594353885834835
28.009497869018190385759 2035.61809414437902888 28.009497869018190385759 315.03790809188876665
29.009497869018190385759 2044.23130094103157717 29.009497869018190385759 315.40107959540210913
30.009497869018190385759 2052.46546476712774165 30.009497869018190385759 315.42099724023836416
31.009497869018190385759 2060.36266661069521433 31.009497869018190385759 315.30563039897037925
32.009497869018190385759 2067.96726437807546972 32.009497869018190385759 315.16216424554272635
33.009497869018190385759 2075.30039699233111605 33.009497869018190385759 315.03517540870183211
34.009497869018190385759 2082.36262824413188355 34.009497869018190385759 314.78696413351065075
35.009497869018190385759 2089.15952288768085054 35.009497869018190385759 314.72746966289463444
36.009497869018190385759 2095.70882152097647122 36.009497869018190385759 314.71876041064916762
37.009497869018190385759 2102.02060604265670918 37.009497869018190385759 314.60110617060968252
38.009497869018190385759 2108.10219242404309625 38.009497869018190385759 314.32245423741056811
39.009497869018190385759 2113.97850612666979941 39.009497869018190385759 313.88382232453335519
40.009497869018190385759 2119.66955431737551407 40.009497869018190385759 313.27338614540019535
41.009497869018190385759 2125.19153660296342423 41.009497869018190385759 312.92258696695176923
42.009497869018190385759 2130.53973227630558540 42.009497869018190385759 312.26169415421969688
43.009497869018190385759 2135.71790357962890994 43.009497869018190385759 311.82022323603752056
44.009497869018218807469 2140.72722846537317309 44.009497869018218807469 311.42722286066953075
46.009497869018190385759 2150.28209578599762608 46.009497869018190385759 310.36023566119672523
48.009497869018190385759 2159.21981733096436074 48.009497869018190385759 309.26979463530250314
50.009497869018190385759 2167.64143402408353722 50.009497869018190385759 308.30810075700691186
52.009497869018190385759 2175.63075349656401158 52.009497869018190385759 307.62972553791860264
54.009497869018190385759 2183.20121945216351378 54.009497869018190385759 306.98657409274159136
56.009497869018190385759 2190.36935425367937569 56.009497869018190385759 306.70557469333363088
58.009497869018218807469 2197.18525353603899930 58.009497869018218807469 306.45083677164353730
60.009497869018190385759 2203.72883880801737178 60.009497869018190385759 306.09088692497169859
62.009497869018190385759 2209.97884704476246043 62.009497869018190385759 305.67950506620587703
64.009497869018190385759 2215.95604018816220560 64.009497869018190385759 305.34454895193977109
66.009497869018190385759 2221.67432476044768919 66.009497869018190385759 304.97531833385050959
68.009497869018190385759 2227.14172060155442523 68.009497869018190385759 304.21468163321389966
70.009497869018190385759 2232.35810013382024408 70.009497869018190385759 303.62303503357554746
72.009497869018218807469 2237.35429950947809630 72.009497869018218807469 302.04194647947781505
74.009497869018190385759 2242.15436664781009313 74.009497869018190385759 300.65013486393900166
76.009497869018190385759 2246.77613664688306017 76.009497869018190385759 299.48885893465416075
78.009497869018190385759 2251.21216769140755787 78.009497869018190385759 297.96495688095887999
80.009497869018190385759 2255.46242985733215392 80.009497869018190385759 296.96089254947565905
82.009497869018218807469 2259.53108788918689243 82.009497869018218807469 296.03571732572584096
84.009497869018190385759 2263.43193414515644690 84.009497869018190385759 294.73712804780029728
86.009497869018190385759 2267.13305048100210115 86.009497869018190385759 293.31284373173457425
88.009497869018190385759 2270.67339923144163549 88.009497869018190385759 292.39732150274039668
91.009497869018218807469 2275.74836212510399491 91.009497869018218807469 291.59536944070123354
94.009497869018190385759 2280.61020521660202576 94.009497869018190385759 291.07602984357544074
97.009497869018190385759 2285.27549905357909665 97.009497869018190385759 291.05618839461283187
99.504748934509109403734 2289.00399684120884558 99.504748934509109403734 284.19028639247483170
nan nan nan nan

