Time Pressure difference Time.1 Pressure.1 difference.1
(hr) (psi) (hr) (psi)
0.000200000000006639311 0.52165362548597172 0.000200000000006639311 0.41658872510356931
0.000399999999999067768 1.04146722802213643 0.000399999999999067768 1.08328061579954515
0.000600000000005707079 1.55976062084939260 0.000600000000005707079 1.58162857698420622
0.000799999999998135536 2.07668168423911315 0.000799999999998135536 2.08702712333978146
0.001007140329434719206 2.61070933485241019 0.001007140329434719206 2.61555258392013856
0.001267914553963578328 3.28117560593656199 0.001267914553963578328 3.28285204422068455
0.001596209851982166583 4.12249873173318093 0.001596209851982166583 4.11801750630330066
0.002009509145210586212 5.17756142293743959 0.002009509145210586212 5.16210676547496750
0.002529822128138903281 6.49968731479096551 0.002529822128138903281 6.46563720548752041
0.003184857364445292660 8.15501945084134405 0.003184857364445292660 8.09048008212594638
0.004009497869020606231 10.22536831530516288 0.004009497869020606231 10.11198307947177000
0.005047658755842121536 12.81156660875491760 0.005047658755842121536 12.62126660939924960
0.006354625877804664924 16.03737294883912412 0.006354625877804664924 15.72758319281783734
0.008000000000009777068 20.05391040758106058 0.008000000000009777068 19.56053400325575709
0.010071403294347192059 25.04458676456575716 0.010071403294347192059 24.27182489997468195
0.012679145539692626699 31.23033541298155669 0.012679145539692626699 30.03600145458442583
0.015962098519750611558 38.87486472829257877 0.015962098519750611558 37.04944976205927532
0.020095091452091651263 48.28942509634435254 0.020095091452091651263 45.52666434090097880
0.025298221281346400247 59.83631980513887072 0.025298221281346400247 55.69235058389089943
0.031848573644282396344 73.93000723893631232 0.031848573644282396344 67.76762260545100958
0.040094978690191851456 91.03421742805238637 0.040094978690191851456 81.94821713252675011
0.050476587558421215363 111.65297089271491870 0.050476587558421215363 98.37435518163439951
0.063546258777947173257 136.31375214947013319 0.063546258777947173257 117.08810934659658187
0.079999999999998294697 165.53882110058805210 0.079999999999998294697 137.98177955391756200
0.100714032943542974863 199.80453426256312355 0.100714032943542974863 160.74402704314869084
0.126791455396897845276 239.48778179825455936 0.126791455396897845276 184.80157926332304896
0.159620985197506115583 284.79843541299243270 0.159620985197506115583 209.29398132733638249
0.200950914520774404082 335.71419232594450932 0.200950914520774404082 233.08016924966364058
0.252982212813464002465 391.91619821335569895 0.252982212813464002465 254.82210261146747143
0.318485736442795541734 452.76264803113252810 0.318485736442795541734 273.14269320631467508
0.400949786901819038576 517.29746959762906044 0.400949786901819038576 286.85134884739227346
0.504765875584169521062 584.32805818743838699 0.504765875584169521062 295.19974187633124529
0.635462587779443310865 652.55178508195137965 0.635462587779443310865 298.06456523694214411
0.799999999999997157829 720.71751714256799914 0.799999999999997157829 296.00452967559618855
1.007140329435330272645 787.77748824939203587 1.007140329435330272645 290.15213693011492069
1.267914553968893187630 852.99763212524374012 1.267914553968893187630 281.96250502375181668
1.596209851975103788391 915.99230859221609080 1.596209851975103788391 272.89849364747163918
2.009509145207687197399 976.68838699420405192 2.009509145207687197399 264.18791491745082567
2.529822128134711078928 1035.24718470672496551 2.529822128134711078928 256.67259600713202872
3.184857364427983839050 1091.95868697616197096 3.184857364427983839050 250.77822082060777120
4.009497869018190385759 1147.14954462404443802 4.009497869018190385759 246.57993735616403796
5.009497869018190385759 1199.34997827104757562 5.009497869018190385759 243.95518852446193137
6.009497869018190385759 1241.29916569035049179 6.009497869018190385759 242.69493408162017545
7.009497869018204596614 1276.32284529491380454 7.009497869018204596614 242.11813581161678144
8.009497869018190385759 1306.33883394668964684 8.009497869018190385759 241.97291713460072060
9.009497869018204596614 1332.57977172435403190 9.009497869018204596614 242.01756119667089706
10.009497869018190385759 1355.83192266342666699 10.009497869018190385759 242.07826120488886090
11.009497869018190385759 1376.70575900233370703 11.009497869018190385759 242.09620778133731278
12.009497869018190385759 1395.58504679355655753 12.009497869018190385759 242.28271443400808494
13.009497869018190385759 1412.79905841973550196 13.009497869018190385759 242.36614069806137195
14.009497869018204596614 1428.62931046540597890 14.009497869018204596614 242.40690157024471318
15.009497869018190385759 1443.23131409774123313 15.009497869018190385759 242.56003392851178546
16.009497869018190385759 1456.76607846407864599 16.009497869018190385759 242.56096466059801742
17.009497869018190385759 1469.39061950509108101 17.009497869018190385759 242.38228931788859200
18.009497869018190385759 1481.18405102451561106 18.009497869018190385759 242.44604387988547956
19.009497869018204596614 1492.21984347574652929 19.009497869018204596614 242.43696433029279547
20.009497869018190385759 1502.59556104449120539 20.009497869018190385759 242.44088133734226176
21.009497869018204596614 1512.41641119168548357 21.009497869018204596614 242.30503996804563371
22.009497869018190385759 1521.70750593702018705 22.009497869018190385759 242.24252218848218376
23.009497869018190385759 1530.50554553447045691 23.009497869018190385759 242.58450307299992232
24.009497869018190385759 1538.83710869519632070 24.009497869018190385759 242.62671034385570579
25.009497869018190385759 1546.76192013476520515 25.009497869018190385759 242.62023570078287094
26.009497869018204596614 1554.35071544769857610 26.009497869018204596614 242.74079676532258532
27.009497869018190385759 1561.61151300363076189 27.009497869018190385759 242.66686201521844168
28.009497869018190385759 1568.54989340204929249 28.009497869018190385759 242.75313654197071855
29.009497869018190385759 1575.18681839382566068 29.009497869018190385759 243.03297912381901824
30.009497869018190385759 1581.53167101074404854 30.009497869018190385759 243.04832670781556203
31.009497869018190385759 1587.61687684848652680 31.009497869018190385759 242.95943054055629773
32.009497869018190385759 1593.47661598703234631 32.009497869018190385759 242.84888238797651638
33.009497869018190385759 1599.12717706893749892 33.009497869018190385759 242.75103086707332523
34.009497869018190385759 1604.56899452431252939 34.009497869018190385759 242.55977113600576445
35.009497869018190385759 1609.80635628645859470 35.009497869018190385759 242.51392754392372808
36.009497869018190385759 1614.85293241125555141 36.009497869018190385759 242.50721661090511816
37.009497869018190385759 1619.71649152734789823 37.009497869018190385759 242.41655788361092050
38.009497869018190385759 1624.40267097214632486 38.009497869018190385759 242.20184203815190926
39.009497869018190385759 1628.93067711355638494 39.009497869018190385759 241.86385327583673188
40.009497869018190385759 1633.31592651694722917 40.009497869018190385759 241.39348036725314728
41.009497869018190385759 1637.57090182412412105 41.009497869018190385759 241.12317130704991541
42.009497869018190385759 1641.69196548407330738 42.009497869018190385759 240.61391893110427986
43.009497869018190385759 1645.68201650062201225 43.009497869018190385759 240.27374256715529555
44.009497869018218807469 1649.54196254755152040 44.009497869018218807469 239.97091528404962446
46.009497869018190385759 1656.90448607804501080 46.009497869018190385759 239.14874600641906000
48.009497869018190385759 1663.79146660594551577 48.009497869018190385759 238.30850433247849196
50.009497869018190385759 1670.28076143205430526 50.009497869018190385759 237.56746904957097399
52.009497869018190385759 1676.43694870655463092 52.009497869018190385759 237.04474556786854578
54.009497869018190385759 1682.27038750424367208 54.009497869018190385759 236.54916384078737224
56.009497869018190385759 1687.79380916725222050 56.009497869018190385759 236.33263915020066293
58.009497869018218807469 1693.04581499464120498 58.009497869018218807469 236.13635029765907802
60.009497869018190385759 1698.08798867660743781 60.009497869018190385759 235.85899017040765102
62.009497869018190385759 1702.90394594369445258 62.009497869018190385759 235.54199899580038391
64.009497869018190385759 1707.50968495480492493 64.009497869018190385759 235.28389784272167162
66.009497869018190385759 1711.91592141050455211 66.009497869018190385759 234.99938639712652844
68.009497869018190385759 1716.12883501567625899 68.009497869018190385759 234.41327615418197183
70.009497869018190385759 1720.14832746507863703 70.009497869018190385759 233.95738159642382925
72.009497869018218807469 1723.99815962202728770 72.009497869018218807469 232.73907041608845248
74.009497869018190385759 1727.69686166236147074 74.009497869018190385759 231.66660698718243339
76.009497869018190385759 1731.25817645919300958 76.009497869018190385759 230.77178332633474156
78.009497869018190385759 1734.67636970577177635 78.009497869018190385759 229.59753732667752502
80.009497869018190385759 1737.95141834405444570 80.009497869018190385759 228.82385340008676167
82.009497869018218807469 1741.08653152688248156 82.009497869018218807469 228.11095764485375526
84.009497869018190385759 1744.09233698547018321 84.009497869018190385759 227.11032688836635884
86.009497869018190385759 1746.94424012523836609 86.009497869018190385759 226.01284155034269929
88.009497869018190385759 1749.67226345686526656 88.009497869018190385759 225.30738393094594585
91.009497869018218807469 1753.58278701173662739 91.009497869018218807469 224.68943804755872407
94.009497869018190385759 1757.32909064543082422 94.009497869018190385759 224.28925980584713784
97.009497869018190385759 1760.92394282901568658 97.009497869018190385759 224.27397093474462508
99.504748934509109403734 1763.79694480525063227 99.504748934509109403734 218.98343540426282061
nan nan nan nan

