Time Pressure difference Time.1 Pressure.1 difference.1
(hr) (psi) (hr) (psi)
0.000200000000006639311 0.46350752073435070 0.000200000000006639311 0.37015367612705680
0.000399999999999067768 0.92538011661839503 0.000399999999999067768 0.96253277645883151
0.000600000000005707079 1.38590195292032026 0.000600000000005707079 1.40533239802099841
0.000799999999998135536 1.84520442644175953 0.000799999999998135536 1.85439671150254437
0.001007140329434719206 2.31970670198669593 0.001007140329434719206 2.32401009845133322
0.001267914553963578328 2.91543947151688121 0.001267914553963578328 2.91692904566105415
0.001596209851982166583 3.66298454189031020 0.001596209851982166583 3.65900281611025768
0.002009509145210586212 4.60044470382020876 0.002009509145210586212 4.58671269925960434
0.002529822128138903281 5.77519987524420220 0.002529822128138903281 5.74494516028986624
0.003184857364445292660 7.24602046746730899 0.003184857364445292660 7.18867497743037909
0.004009497869020606231 9.08559796168834488 0.004009497869020606231 8.98485120755612598
0.005047658755842121536 11.38352574472172662 0.005047658755842121536 11.21443752873372723
0.006354625877804664924 14.24976768384113335 0.006354625877804664924 13.97450863310884195
0.008000000000009777068 17.81860192265960308 0.008000000000009777068 17.38021970352979650
0.010071403294347192059 22.25299269845173455 0.010071403294347192059 21.56636671048705622
0.012679145539692626699 27.74924707077023811 0.012679145539692626699 26.68803950900973021
0.015962098519750611558 34.54167916940645711 0.015962098519750611558 32.91973402425011841
0.020095091452091651263 42.90684586586011307 0.020095091452091651263 40.45203615003622133
0.025298221281346400247 53.16666632367435597 0.025298221281346400247 49.48460449969924468
0.031848573644282396344 65.68940133650710322 0.031848573644282396344 60.21390670993896066
0.040094978690191851456 80.88709128161343642 0.040094978690191851456 72.81386171966549625
0.050476587558421215363 99.20757604798555462 0.050476587558421215363 87.40906081425477225
0.063546258777947173257 121.11954410733174825 0.063546258777947173257 104.03688696719886764
0.079999999999998294697 147.08704167854796196 0.079999999999998294697 122.60164489026431056
0.100714032943542974863 177.53332821418825915 0.100714032943542974863 142.82669918802062625
0.126791455396897845276 212.79328382711150880 0.126791455396897845276 164.20267711613738015
0.159620985197506115583 253.05338687969714329 0.159620985197506115583 185.96503436409824417
0.200950914520774404082 298.29382056986793259 0.200950914520774404082 207.09989560718520352
0.252982212813464002465 348.23127166091160234 0.252982212813464002465 226.41836505923384948
0.318485736442795541734 402.29547388753491077 0.318485736442795541734 242.69685160688467818
0.400949786901819038576 459.63692362337110353 0.400949786901819038576 254.87747238351093415
0.504765875584169521062 519.19594979074940966 0.504765875584169521062 262.29531204935165078
0.635462587779443310865 579.81512113969563416 0.635462587779443310865 264.84080796530849966
0.799999999999997157829 640.38276204705891814 0.799999999999997157829 263.01039420220172360
1.007140329435330272645 699.96789561012860759 1.007140329435330272645 257.81033822771360065
1.267914553968893187630 757.91827822593313613 1.267914553968893187630 250.53356338097694334
1.596209851975103788391 813.89125508671429543 1.596209851975103788391 242.47987174409104227
2.009509145207687197399 867.82184704262078867 2.009509145207687197399 234.74021739480505744
2.529822128134711078928 919.85339023304550210 2.529822128134711078928 228.06259326748354965
3.184857364427983839050 970.24354670811840151 3.184857364427983839050 222.82523442340624342
4.009497869018190385759 1019.28255716595037939 4.009497869018190385759 219.09491249162343252
5.009497869018190385759 1065.66447113892445486 5.009497869018190385759 216.76273120485632262
6.009497869018190385759 1102.93779371849609561 6.009497869018190385759 215.64295098335040279
7.009497869018204596614 1134.05755999134066769 7.009497869018204596614 215.13044551414355965
8.009497869018190385759 1160.72781742396932714 8.009497869018190385759 215.00141363233629477
9.009497869018204596614 1184.04380990794538775 9.009497869018204596614 215.04108144544960624
10.009497869018190385759 1204.70416058310820517 10.009497869018190385759 215.09501552918467837
11.009497869018190385759 1223.25129541927094579 11.009497869018190385759 215.11096169106085085
12.009497869018190385759 1240.02620399809643459 12.009497869018190385759 215.27667938563141092
13.009497869018190385759 1255.32145636658015064 13.009497869018190385759 215.35080654381886234
14.009497869018204596614 1269.38718987212814682 14.009497869018204596614 215.38702400668239534
15.009497869018190385759 1282.36158163461732329 15.009497869018190385759 215.52308747151207058
16.009497869018190385759 1294.38769392190442886 16.009497869018190385759 215.52391445957593419
17.009497869018190385759 1305.60504089783580639 17.009497869018190385759 215.36515515825132638
18.009497869018190385759 1316.08391794853446299 18.009497869018190385759 215.42180332002564569
19.009497869018204596614 1325.88960614564734897 19.009497869018204596614 215.41373582213913096
20.009497869018190385759 1335.10879468602888664 20.009497869018190385759 215.41721622012255466
21.009497869018204596614 1343.83496408433211400 21.009497869018204596614 215.29651640472846452
22.009497869018190385759 1352.09042724977280159 22.009497869018190385759 215.24096716747303049
23.009497869018190385759 1359.90779364368563620 23.009497869018190385759 215.54482916358909961
24.009497869018190385759 1367.31067938203750600 24.009497869018190385759 215.58233180234313409
25.009497869018190385759 1374.35215196687727257 25.009497869018190385759 215.57657885515419594
26.009497869018204596614 1381.09506245193597351 26.009497869018204596614 215.68370158447450535
27.009497869018190385759 1387.54653543953190820 27.009497869018190385759 215.61800796893612642
28.009497869018190385759 1393.71152948780832048 28.009497869018190385759 215.69466590831157760
29.009497869018190385759 1399.60866984674316882 29.009497869018190385759 215.94331584568632820
30.009497869018190385759 1405.24629366878207293 30.009497869018190385759 215.95695271172147045
31.009497869018190385759 1410.65321223161708986 31.009497869018190385759 215.87796535291468558
32.009497869018190385759 1415.85979573370082107 32.009497869018190385759 215.77973944664154260
33.009497869018190385759 1420.88051720456542171 33.009497869018190385759 215.69279494239953010
34.009497869018190385759 1425.71576265058342869 34.009497869018190385759 215.52285397116435206
35.009497869018190385759 1430.36934205070701864 35.009497869018190385759 215.48212033361377848
36.009497869018190385759 1434.85340172847213580 36.009497869018190385759 215.47615743453033588
37.009497869018190385759 1439.17484438257997681 37.009497869018190385759 215.39560397938674896
38.009497869018190385759 1443.33867898480502845 38.009497869018190385759 215.20482142880376841
39.009497869018190385759 1447.36197106586701011 39.009497869018190385759 214.90450657311606619
40.009497869018190385759 1451.25841878416667896 40.009497869018190385759 214.48656376580774463
41.009497869018190385759 1455.03911340423769616 41.009497869018190385759 214.24638469639148752
42.009497869018190385759 1458.70082283457463745 42.009497869018190385759 213.79389612031241086
43.009497869018190385759 1462.24612294163534898 43.009497869018190385759 213.49163750393736905
44.009497869018218807469 1465.67582022537226294 44.009497869018218807469 213.22256485429889494
46.009497869018190385759 1472.21768030501448266 46.009497869018190385759 212.49203864901565453
48.009497869018190385759 1478.33700376770320872 48.009497869018190385759 211.74545448650158619
50.009497869018190385759 1484.10296955268518104 50.009497869018190385759 211.08701867780351336
52.009497869018190385759 1489.57295760869033074 52.009497869018190385759 210.62256055234180963
54.009497869018190385759 1494.75617233657339966 54.009497869018190385759 210.18221882668689204
56.009497869018190385759 1499.66392597981962354 56.009497869018190385759 209.98982905384070818
58.009497869018218807469 1504.33051714491989514 58.009497869018218807469 209.81541953199644013
60.009497869018190385759 1508.81066509800461972 60.009497869018190385759 209.56897534249597470
62.009497869018190385759 1513.08981184169010703 62.009497869018190385759 209.28731757907101496
64.009497869018190385759 1517.18217230060690781 64.009497869018190385759 209.05798566280049045
66.009497869018190385759 1521.09726775009789890 66.009497869018190385759 208.80518727642768795
68.009497869018190385759 1524.84058907443841235 68.009497869018190385759 208.28440779304705188
70.009497869018190385759 1528.41204892597738763 70.009497869018190385759 207.87932950765048190
72.009497869018218807469 1531.83275966415817493 72.009497869018218807469 206.79681734423147077
74.009497869018190385759 1535.11918599935938801 74.009497869018190385759 205.84389601727355057
76.009497869018190385759 1538.28353895577993171 76.009497869018190385759 205.04881384728469129
78.009497869018190385759 1541.32072340098829955 78.009497869018190385759 204.00545514058288177
80.009497869018190385759 1544.23071884710566337 80.009497869018190385759 203.31800986822997857
82.009497869018218807469 1547.01637673885443292 82.009497869018218807469 202.68457701565031925
84.009497869018190385759 1549.68714018772652707 84.009497869018190385759 201.79548153456758541
86.009497869018190385759 1552.22115603484553503 86.009497869018190385759 200.82032736479496293
88.009497869018190385759 1554.64510033269243650 88.009497869018190385759 200.19350355647748074
91.009497869018218807469 1558.11973750405900319 91.009497869018218807469 199.64443699130217169
94.009497869018190385759 1561.44845952253240284 94.009497869018190385759 199.28886460455842666
97.009497869018190385759 1564.64261162195975885 97.009497869018190385759 199.27527990698646931
99.504748934509109403734 1567.19537452441045389 99.504748934509109403734 194.57445375092143536
nan nan nan nan

