Time Pressure difference Time.1 Pressure.1 difference.1
(hr) (psi) (hr) (psi)
0.000200000000006639311 0.66369625280778877 0.000200000000006639311 0.53002291617476416
0.000399999999999067768 1.32505145730841867 0.000399999999999067768 1.37825033761757432
0.000600000000005707079 1.98447250964755528 0.000600000000005707079 2.01229495702289896
0.000799999999998135536 2.64214755685836167 0.000799999999998135536 2.65530998654217365
0.001007140329434719206 3.32158719513865597 0.001007140329434719206 3.32774922699393416
0.001267914553963578328 4.17461673430463875 0.001267914553963578328 4.17674965498778228
0.001596209851982166583 5.24502625263504996 0.001596209851982166583 5.23932482091773455
0.002009509145210586212 6.58737512249524482 0.002009509145210586212 6.56771227008678160
0.002529822128138903281 8.26950663139806075 0.002529822128138903281 8.22618491589892997
0.003184857364445292660 10.37557411022648779 0.003184857364445292660 10.29346112359654697
0.004009497869020606231 13.00966446485481676 0.004009497869020606231 12.86540522372283846
0.005047658755842121536 16.30006643375028474 0.005047658755842121536 16.05794907788216364
0.006354625877804664924 20.40423723904850206 0.006354625877804664924 20.01009390296409762
0.008000000000009777068 25.51444970646061350 0.008000000000009777068 24.88673036401488758
0.010071403294347192059 31.86405226892999920 0.010071403294347192059 30.88087276286587368
0.012679145539692626699 39.73413693466921615 0.012679145539692626699 38.21459420734547052
0.015962098519750611558 49.46021802214293928 0.015962098519750611558 47.13775535013592588
0.020095091452091651263 61.43829721652729603 0.020095091452091651263 57.92325606429917428
0.025298221281346400247 76.12933045271648780 0.025298221281346400247 70.85698744670196447
0.031848573644282396344 94.06063022915623151 0.031848573644282396344 86.22027143591617460
0.040094978690191851456 115.82219701435327863 0.040094978690191851456 104.26214249823070190
0.050476587558421215363 142.05529258483952049 0.050476587558421215363 125.16100285051892627
0.063546258777947173257 173.43103179526536906 0.063546258777947173257 148.97038115912525313
0.079999999999998294697 210.61388226014307179 0.079999999999998294697 175.55325137512758715
0.100714032943542974863 254.20990903787892989 0.100714032943542974863 204.51349937496146936
0.126791455396897845276 304.69862684204679226 0.126791455396897845276 235.12175450859098191
0.159620985197506115583 362.34705397289968687 0.159620985197506115583 266.28326605181814557
0.200950914520774404082 427.12681475864599179 0.200950914520774404082 296.54626629057526088
0.252982212813464002465 498.63223307718345723 0.252982212813464002465 324.20837577478107505
0.318485736442795541734 576.04674486763508412 0.318485736442795541734 347.51753482777934323
0.400949786901819038576 658.15394619188805336 0.400949786901819038576 364.95896135201655852
0.504765875584169521062 743.43649441363572805 0.504765875584169521062 375.58056331080996415
0.635462587779443310865 830.23706414089031114 0.635462587779443310865 379.22545800050437492
0.799999999999997157829 916.96384744731199135 0.799999999999997157829 376.60448918917410310
1.007140329435330272645 1002.28377883959262817 1.007140329435330272645 369.15853090312396034
1.267914553968893187630 1085.26291093641657426 1.267914553968893187630 358.73891960824477110
1.596209851975103788391 1165.41059644137044415 1.596209851975103788391 347.20684144001563709
2.009509145207687197399 1242.63379173307157544 2.009509145207687197399 336.12443315134271415
2.529822128134711078928 1317.13773977814230420 2.529822128134711078928 326.56274555684473171
3.184857364427983839050 1389.29138677381115485 3.184857364427983839050 319.06337330520000251
4.009497869018190385759 1459.51032827167455252 4.009497869018190385759 313.72192666811315576
5.009497869018190385759 1525.92457426523401409 5.009497869018190385759 310.38247711949856011
6.009497869018190385759 1579.29623150730913039 6.009497869018190385759 308.77906422167922074
7.009497869018204596614 1623.85661367935676935 7.009497869018204596614 308.04520782401561974
8.009497869018190385759 1662.04574573790614522 8.009497869018190385759 307.86044711870374613
9.009497869018204596614 1695.43190701872435966 9.009497869018204596614 307.91724744608291076
10.009497869018190385759 1725.01545574534679872 10.009497869018190385759 307.99447564125193821
11.009497869018190385759 1751.57309146952957235 11.009497869018190385759 308.01730894472689215
12.009497869018190385759 1775.59307705103765329 12.009497869018190385759 308.25460005218548076
13.009497869018190385759 1797.49434343530037950 13.009497869018190385759 308.36074270342521686
14.009497869018204596614 1817.63506220041290362 14.009497869018204596614 308.41260247551838347
15.009497869018190385759 1836.21308911480150527 15.009497869018190385759 308.60743170203971886
16.009497869018190385759 1853.43327498853341240 16.009497869018190385759 308.60861586595194694
17.009497869018190385759 1869.49539010281500850 17.009497869018190385759 308.38128847928817322
18.009497869018190385759 1884.50009039584074344 18.009497869018190385759 308.46240296182884322
19.009497869018204596614 1898.54085181070308863 19.009497869018204596614 308.45085111449674287
20.009497869018190385759 1911.74180457730631133 20.009497869018190385759 308.45583469512177999
21.009497869018204596614 1924.23680341107751701 21.009497869018204596614 308.28300467272049445
22.009497869018190385759 1936.05779815872483596 22.009497869018190385759 308.20346373980453336
23.009497869018190385759 1947.25148229624528540 23.009497869018190385759 308.63856362313208592
24.009497869018190385759 1957.85167173162722065 24.009497869018190385759 308.69226363812214231
25.009497869018190385759 1967.93435380203413843 25.009497869018190385759 308.68402599510437767
26.009497869018204596614 1977.58952490877550190 26.009497869018204596614 308.83741499282285758
27.009497869018190385759 1986.82738676735812078 27.009497869018190385759 308.74334832827952368
28.009497869018190385759 1995.65503953540974180 28.009497869018190385759 308.85311480419522923
29.009497869018190385759 2004.09915270169858559 29.009497869018190385759 309.20915656040034492
30.009497869018190385759 2012.17166423182243307 30.009497869018190385759 309.22868318398826659
31.009497869018190385759 2019.91382898398228463 31.009497869018190385759 309.11558121322377701
32.009497869018190385759 2027.36913403445691984 32.009497869018190385759 308.97493157323759760
33.009497869018190385759 2034.55830330904609582 33.009497869018190385759 308.85043576877643545
34.009497869018190385759 2041.48188953013641367 34.009497869018190385759 308.60709735297547240
35.009497869018190385759 2048.14534820522385417 35.009497869018190385759 308.54877087196666707
36.009497869018190385759 2054.56607165062587228 36.009497869018190385759 308.54023259890635700
37.009497869018190385759 2060.75394383813863897 37.009497869018190385759 308.42488813535851477
38.009497869018190385759 2066.71613711265081292 38.009497869018190385759 308.15170666955953038
39.009497869018190385759 2072.47708760148316287 39.009497869018190385759 307.72168593534001957
40.009497869018190385759 2078.05640969274008967 40.009497869018190385759 307.12323377935553026
41.009497869018190385759 2083.46998496413243629 41.009497869018190385759 306.77932145594405711
42.009497869018190385759 2088.71318538499099304 42.009497869018190385759 306.13140322603874210
43.009497869018190385759 2093.78969933757480248 43.009497869018190385759 305.69859922158769905
44.009497869018218807469 2098.70068164887516104 44.009497869018218807469 305.31331419101218216
46.009497869018190385759 2108.06796875216241460 46.009497869018190385759 304.26727397950446630
48.009497869018190385759 2116.83022582508056075 48.009497869018190385759 303.19824038479350747
50.009497869018190385759 2125.08651016594149041 50.009497869018190385759 302.25542638631719683
52.009497869018190385759 2132.91898410276598952 52.009497869018190385759 301.59036896294105645
54.009497869018190385759 2140.34082741383872417 54.009497869018190385759 300.95984380380434686
56.009497869018190385759 2147.36823809655197692 56.009497869018190385759 300.68436095702281818
58.009497869018218807469 2154.05032831324524523 58.009497869018218807469 300.43462402520634669
60.009497869018190385759 2160.46545056147988362 60.009497869018190385759 300.08174067859192746
62.009497869018190385759 2166.59275925001884389 62.009497869018190385759 299.67843502809631673
64.009497869018190385759 2172.45260872434528210 64.009497869018190385759 299.35005473938633713
66.009497869018190385759 2178.05863249521189573 66.009497869018190385759 298.98807282054787038
68.009497869018190385759 2183.41869295784272254 68.009497869018190385759 298.24236886495447152
70.009497869018190385759 2188.53266503916847796 70.009497869018190385759 297.66233741328449014
72.009497869018218807469 2193.43077951910800039 72.009497869018218807469 296.11228863448195625
74.009497869018190385759 2198.13661221055190254 74.009497869018190385759 294.74780092795981545
76.009497869018190385759 2202.66764807467370701 76.009497869018190385759 293.60932305372841711
78.009497869018190385759 2207.01659139317098379 78.009497869018190385759 292.11533809556584629
80.009497869018190385759 2211.18341282945812054 80.009497869018190385759 291.13098545647983428
82.009497869018218807469 2215.17219536620905274 82.009497869018218807469 290.22397318190786564
84.009497869018190385759 2218.99646059138649434 84.009497869018190385759 288.95087768121777572
86.009497869018190385759 2222.62491697462610318 86.009497869018190385759 287.55455477503790007
88.009497869018190385759 2226.09576194591591047 88.009497869018190385759 286.65700598857614523
91.009497869018218807469 2231.07109366620625224 91.009497869018218807469 285.87079777069970987
94.009497869018190385759 2235.83748953136819182 94.009497869018190385759 285.36165379756664606
97.009497869018190385759 2240.41119477768052093 97.009497869018190385759 285.34220187398238977
99.504748934509109403734 2244.06649506273106454 99.504748934509109403734 278.61109058599680566
nan nan nan nan

