Time Pressure difference Time.1 Pressure.1 difference.1
(hr) (psi) (hr) (psi)
0.000200000000006639311 0.26414944730022133 0.000200000000006639311 0.21094779392187110
0.000399999999999067768 0.52736716323413901 0.000399999999999067768 0.54854018443352770
0.000600000000005707079 0.78981509144921469 0.000600000000005707079 0.80088835586142926
0.000799999999998135536 1.05156811399369099 0.000799999999998135536 1.05680672806058995
0.001007140329434719206 1.32198338930424586 0.001007140329434719206 1.32443586255828682
0.001267914553963578328 1.66148701064940552 0.001267914553963578328 1.66233590774232121
0.001596209851982166583 2.08750731957189739 0.001596209851982166583 2.08523816401982431
0.002009509145210586212 2.62175880970398989 0.002009509145210586212 2.61393304366407575
0.002529822128138903281 3.29124293965529802 0.002529822128138903281 3.27400100532648253
0.003184857364445292660 4.12945252447061772 0.003184857364445292660 4.09677176133129084
0.004009497869020606231 5.17781389214497079 0.004009497869020606231 5.12039907527392035
0.005047658755842121536 6.48738563946506996 0.005047658755842121536 6.39102353788051136
0.006354625877804664924 8.12083534670516194 0.006354625877804664924 7.96396728553514688
0.008000000000009777068 10.15468711721461226 0.008000000000009777068 9.90485639018364772
0.010071403294347192059 12.68181304320367886 0.010071403294347192059 12.29051006081520647
0.012679145539692626699 15.81408704033142598 0.012679145539692626699 15.20931283846791082
0.015962098519750611558 19.68504296751120819 0.015962098519750611558 18.76070863747587580
0.020095091452091651263 24.45228850419984923 0.020095091452091651263 23.05331092421419115
0.025298221281346400247 30.29928295865312649 0.025298221281346400247 28.20090363961354640
0.031848573644282396344 37.43589538532125971 0.031848573644282396344 34.31545221104047982
0.040094978690191851456 46.09694449382271131 0.040094978690191851456 41.49607173271260052
0.050476587558421215363 56.53765086605628909 0.050476587558421215363 49.81376584038174826
0.063546258777947173257 69.02511653428584282 0.063546258777947173257 59.28983880926386973
0.079999999999998294697 83.82379794583916066 0.079999999999998294697 69.86975461488182759
0.100714032943542974863 101.17490747690300168 0.100714032943542974863 81.39586082758165730
0.126791455396897845276 121.26929078319258792 0.126791455396897845276 93.57786975435786303
0.159620985197506115583 144.21322047982738468 0.159620985197506115583 105.98007334728180240
0.200950914520774404082 169.99540312046235613 0.200950914520774404082 118.02467169011630688
0.252982212813464002465 198.45438062396038958 0.252982212813464002465 129.03412202300424383
0.318485736442795541734 229.26516253805752399 0.318485736442795541734 138.31110898026761902
0.400949786901819038576 261.94362314020071381 0.400949786901819038576 145.25275307877507203
0.504765875584169521062 295.88586385924429578 0.504765875584169521062 149.48012407113589006
0.635462587779443310865 330.43227333767600840 0.635462587779443310865 150.93078303399300921
0.799999999999997157829 364.94931600531316462 0.799999999999997157829 149.88764400770634211
1.007140329435330272645 398.90643513265393949 1.007140329435330272645 146.92417124805183448
1.267914553968893187630 431.93192199972537537 1.267914553968893187630 142.77719203432022255
1.596209851975103788391 463.83050021070812363 1.596209851975103788391 138.18745378964328552
2.009509145207687197399 494.56513863719249002 2.009509145207687197399 133.77668303144804440
2.529822128134711078928 524.21752346614425733 2.529822128134711078928 129.97115530297449482
3.184857364427983839050 552.93449436054061152 3.184857364427983839050 126.98642391871538848
4.009497869018190385759 580.88145730962764901 4.009497869018190385759 124.86054152748431534
5.009497869018190385759 607.31416097164515122 5.009497869018190385759 123.53144896620842985
6.009497869018190385759 628.55594695785259773 6.009497869018190385759 122.89329464642551670
7.009497869018204596614 646.29086752194677956 7.009497869018204596614 122.60122163709257848
8.009497869018190385759 661.49004648892878322 8.009497869018190385759 122.52768733885831409
9.009497869018204596614 674.77765510882898070 9.009497869018204596614 122.55029372697664769
10.009497869018190385759 686.55183345058867417 10.009497869018190385759 122.58103035534179526
11.009497869018190385759 697.12170599162755025 11.009497869018190385759 122.59011795297017500
12.009497869018190385759 706.68160012794749036 12.009497869018190385759 122.68455921976843115
13.009497869018190385759 715.39824932719091066 13.009497869018190385759 122.72680372927311510
14.009497869018204596614 723.41420498089019020 14.009497869018204596614 122.74744378875448092
15.009497869018190385759 730.80821318962068744 15.009497869018190385759 122.82498533322731760
16.009497869018190385759 737.66180406302078154 16.009497869018190385759 122.82545662750025883
17.009497869018190385759 744.05448567296014062 17.009497869018190385759 122.73498089663785038
18.009497869018190385759 750.02631883088531595 18.009497869018190385759 122.76726425764901762
19.009497869018204596614 755.61450672816454244 19.009497869018204596614 122.76266665132659739
20.009497869018190385759 760.86845288558629363 20.009497869018190385759 122.76465010394080934
21.009497869018204596614 765.84143114483435966 21.009497869018204596614 122.69586418764095015
22.009497869018190385759 770.54615746492436301 22.009497869018190385759 122.66420709544162548
23.009497869018190385759 775.00121573242290651 23.009497869018190385759 122.83737575989485435
24.009497869018190385759 779.22006459406429713 24.009497869018190385759 122.85874823144285983
25.009497869018190385759 783.23294681983338705 25.009497869018190385759 122.85546967014163044
26.009497869018204596614 787.07568075217852765 26.009497869018204596614 122.91651810728117766
27.009497869018190385759 790.75232664833538365 27.009497869018190385759 122.87907981025391280
28.009497869018190385759 794.26571035326696801 28.009497869018190385759 122.92276659290874363
29.009497869018190385759 797.62644625674613508 29.009497869018190385759 123.06447032065997860
30.009497869018190385759 800.83928563919835142 30.009497869018190385759 123.07224186797029120
31.009497869018190385759 803.92064783092155267 31.009497869018190385759 123.02722756671482784
32.009497869018190385759 806.88784057942086747 32.009497869018190385759 122.97124936206452617
33.009497869018190385759 809.74911195529000452 33.009497869018190385759 122.92170034351802599
34.009497869018190385759 812.50468194065513217 34.009497869018190385759 122.82485226313667681
35.009497869018190385759 815.15672181384377382 35.009497869018190385759 122.80163846969385588
36.009497869018190385759 817.71215367321531176 36.009497869018190385759 122.79824025838824753
37.009497869018190385759 820.17491131480358035 37.009497869018190385759 122.75233345061825219
38.009497869018190385759 822.54784931392111957 38.009497869018190385759 122.64360791103869985
39.009497869018190385759 824.84069318807473792 39.009497869018190385759 122.47246073521668563
40.009497869018190385759 827.06124941463247069 40.009497869018190385759 122.23427827513773991
41.009497869018190385759 829.21583882176992120 41.009497869018190385759 122.09740203127687153
42.009497869018190385759 831.30261946486507441 42.009497869018190385759 121.83953219759739284
43.009497869018190385759 833.32305931082453299 43.009497869018190385759 121.66727728719011736
44.009497869018218807469 835.27761797790026321 44.009497869018218807469 121.51393480943914938
46.009497869018190385759 839.00577479748142196 46.009497869018190385759 121.09761342363256631
48.009497869018190385759 842.49313117944370788 48.009497869018190385759 120.67214072886649490
50.009497869018190385759 845.77911168056255065 50.009497869018190385759 120.29690311745791576
52.009497869018190385759 848.89641670172670729 52.009497869018190385759 120.03221192767865944
54.009497869018190385759 851.85029176170303344 54.009497869018190385759 119.78126449262799724
56.009497869018190385759 854.64718362290807363 56.009497869018190385759 119.67162300917804885
58.009497869018218807469 857.30663880301892732 58.009497869018218807469 119.57222833543882246
60.009497869018190385759 859.85984139993809094 60.009497869018190385759 119.43178164679878250
62.009497869018190385759 862.29849492053313043 62.009497869018190385759 119.27126700742758203
64.009497869018190385759 864.63070034335646596 64.009497869018190385759 119.14057247449919430
66.009497869018190385759 866.86188377156111073 66.009497869018190385759 118.99650457688890981
68.009497869018190385759 868.99517441876594148 68.009497869018190385759 118.69971626915584295
70.009497869018190385759 871.03052250620226005 70.009497869018190385759 118.46886520328467896
72.009497869018218807469 872.97995980860628151 72.009497869018218807469 117.85194966929320515
74.009497869018190385759 874.85286944049516933 74.009497869018190385759 117.30888697758601324
76.009497869018190385759 876.65621037264872939 76.009497869018190385759 116.85577563339879248
78.009497869018190385759 878.38707892744480432 78.009497869018190385759 116.26117335968702093
80.009497869018190385759 880.04546342899573119 80.009497869018190385759 115.86940347329235124
82.009497869018218807469 881.63298889418581439 82.009497869018218807469 115.50841485838137146
84.009497869018190385759 883.15503688117757974 84.009497869018190385759 115.00172603582883823
86.009497869018190385759 884.59915343921306885 86.009497869018190385759 114.44599301434551819
88.009497869018190385759 885.98054104981395085 88.009497869018190385759 114.08877084401403579
91.009497869018218807469 887.96071062059274936 91.009497869018218807469 113.77586194127972874
94.009497869018190385759 889.85772424402387060 94.009497869018190385759 113.57322391442578180
97.009497869018190385759 891.67804748348237354 97.009497869018190385759 113.56548209752990886
99.504748934509109403734 893.13284784724476140 99.504748934509109403734 110.88651665375091682
nan nan nan nan

