Time Pressure difference Time.1 Pressure.1 difference.1
(hr) (psi) (hr) (psi)
0.000200000000006639311 0.69443062246221710 0.000200000000006639311 0.55456715634806364
0.000399999999999067768 1.38641178762182471 0.000399999999999067768 1.44207419555480865
0.000600000000005707079 2.07636923412435070 0.000600000000005707079 2.10548008018916644
0.000799999999998135536 2.76449982169410591 0.000799999999998135536 2.77827177565614170
0.001007140329434719206 3.47540287251053348 0.001007140329434719206 3.48185025502744550
0.001267914553963578328 4.36793440535504107 0.001267914553963578328 4.37016609708358761
0.001596209851982166583 5.48791232440913834 0.001596209851982166583 5.48194687144834347
0.002009509145210586212 6.89242253117149506 0.002009509145210586212 6.87184913365775873
0.002529822128138903281 8.65244999230134937 0.002529822128138903281 8.60712213978911755
0.003184857364445292660 10.85604500143847773 0.003184857364445292660 10.77012953607848900
0.004009497869020606231 13.61211450890941954 0.004009497869020606231 13.46117492744967947
0.005047658755842121536 17.05488803331068581 0.005047658755842121536 16.80155873480536854
0.006354625877804664924 21.34911430769030005 0.006354625877804664924 20.93671902738170587
0.008000000000009777068 26.69596990563338323 0.008000000000009777068 26.03918220815575069
0.010071403294347192059 33.33960913244740709 0.010071403294347192059 32.31090066302362374
0.012679145539692626699 41.57414077269519481 0.012679145539692626699 39.98423123572066373
0.015962098519750611558 51.75061610326845596 0.015962098519750611558 49.32060509726362341
0.020095091452091651263 64.28337480978325402 0.020095091452091651263 60.60555953661340567
0.025298221281346400247 79.65471872149061028 0.025298221281346400247 74.13822466263184197
0.031848573644282396344 98.41637906329738428 0.031848573644282396344 90.21294983782968302
0.040094978690191851456 121.18567797747101622 0.040094978690191851456 109.09030178788594867
0.050476587558421215363 148.63357271705362450 0.050476587558421215363 130.95694415899100704
0.063546258777947173257 181.46225604610995674 0.063546258777947173257 155.86888441680690676
0.079999999999998294697 220.36696566893567706 0.079999999999998294697 183.68275112591572906
0.100714032943542974863 265.98183223487706073 0.100714032943542974863 213.98408695552913628
0.126791455396897845276 318.80857576965092903 0.126791455396897845276 246.00974564353199980
0.159620985197506115583 379.12657962621290153 0.159620985197506115583 278.61428087524399189
0.200950914520774404082 446.90615411542933089 0.200950914520774404082 310.27869664445671560
0.252982212813464002465 521.72283711204670453 0.252982212813464002465 339.22177990953321114
0.318485736442795541734 602.72225120067946591 0.318485736442795541734 363.61033681604942558
0.400949786901819038576 688.63166334971003835 0.400949786901819038576 381.85943891149668161
0.504765875584169521062 777.86346599474290997 0.504765875584169521062 392.97290479078492353
0.635462587779443310865 868.68358651036840001 0.635462587779443310865 396.78658684408219415
0.799999999999997157829 959.42650371208105753 0.799999999999997157829 394.04424651082547371
1.007140329435330272645 1048.69742066320327467 1.007140329435330272645 386.25348164582175059
1.267914553968893187630 1135.51914085462385628 1.267914553968893187630 375.35136019085439330
1.596209851975103788391 1219.37829615142140938 1.596209851975103788391 363.28525587465964009
2.009509145207687197399 1300.17753427890829698 2.009509145207687197399 351.68964469902692827
2.529822128134711078928 1378.13160257137292319 2.529822128134711078928 341.68517557637323989
3.184857364427983839050 1453.62653234406252523 3.184857364427983839050 333.83852325800648941
4.009497869018190385759 1527.09716449952429684 4.009497869018190385759 328.24972552508461376
5.009497869018190385759 1596.58691374935642671 5.009497869018190385759 324.75563313129009657
6.009497869018190385759 1652.43009954957483387 6.009497869018190385759 323.07796957362177181
7.009497869018204596614 1699.05397876838833326 7.009497869018204596614 322.31012983839434582
8.009497869018190385759 1739.01156875705828497 8.009497869018190385759 322.11681325561494305
9.009497869018204596614 1773.94377255025483464 9.009497869018204596614 322.17624388601416285
10.009497869018190385759 1804.89727284494369997 10.009497869018190385759 322.25704835555268346
11.009497869018190385759 1832.68473650629130134 11.009497869018190385759 322.28093902101591084
12.009497869018190385759 1857.81703681435237741 12.009497869018190385759 322.52921857775601211
13.009497869018190385759 1880.73250452053935078 13.009497869018190385759 322.64027647066768623
14.009497869018204596614 1901.80589737114542004 14.009497869018204596614 322.69453775911557614
15.009497869018190385759 1921.24423341673855248 15.009497869018190385759 322.89838911502528163
16.009497869018190385759 1939.26184967511130708 16.009497869018190385759 322.89962811506359230
17.009497869018190385759 1956.06776736665005956 17.009497869018190385759 322.66177367795359032
18.009497869018190385759 1971.76730359314501584 18.009497869018190385759 322.74664440061189907
19.009497869018204596614 1986.45826297089820400 19.009497869018204596614 322.73455761166366074
20.009497869018190385759 2000.27052393820804355 20.009497869018190385759 322.73977197136639461
21.009497869018204596614 2013.34413973925006758 21.009497869018204596614 322.55893855618813859
22.009497869018190385759 2025.71253975055583396 22.009497869018190385759 322.47571425090939101
23.009497869018190385759 2037.42457972423130741 23.009497869018190385759 322.93096268953496519
24.009497869018190385759 2048.51564151143929848 24.009497869018190385759 322.98714943863598137
25.009497869018190385759 2059.06523126220326958 25.009497869018190385759 322.97853032779374871
26.009497869018204596614 2069.16751292082199143 26.009497869018204596614 323.13902244555680454
27.009497869018190385759 2078.83316062266749213 27.009497869018190385759 323.04059975274299177
28.009497869018190385759 2088.06960331865184344 28.009497869018190385759 323.15544928198653452
29.009497869018190385759 2096.90474550515637020 29.009497869018190385759 323.52797857884189625
30.009497869018190385759 2105.35107796971624339 30.009497869018190385759 323.54840943906663142
31.009497869018190385759 2113.45176599575597720 31.009497869018190385759 323.43006995526286573
32.009497869018190385759 2121.25231045407508645 32.009497869018190385759 323.28290712794324691
33.009497869018190385759 2128.77439495164298933 33.009497869018190385759 323.15264618610399339
34.009497869018190385759 2136.01859780625045460 34.009497869018190385759 322.89803928296311142
35.009497869018190385759 2142.99062715840682358 35.009497869018190385759 322.83701182598764490
36.009497869018190385759 2149.70868072581106389 36.009497869018190385759 322.82807816356159947
37.009497869018190385759 2156.18310018608735845 37.009497869018190385759 322.70739234187692546
38.009497869018190385759 2162.42139002024532601 38.009497869018190385759 322.42156042021497342
39.009497869018190385759 2168.44911794097652091 39.009497869018190385759 321.97162633534952647
40.009497869018190385759 2174.28680663720979283 40.009497869018190385759 321.34546112583382182
41.009497869018190385759 2179.95107312892969276 41.009497869018190385759 320.98562295014926349
42.009497869018190385759 2185.43707507115504995 42.009497869018190385759 320.30770099745728885
43.009497869018190385759 2190.74867164732449965 43.009497869018190385759 319.85485475500291841
44.009497869018218807469 2195.88707116202704128 44.009497869018218807469 319.45172798959475813
46.009497869018190385759 2205.68813751790685274 46.009497869018190385759 318.35724786841768719
48.009497869018190385759 2214.85615618243718927 48.009497869018190385759 317.23870958909560613
50.009497869018190385759 2223.49477158789386522 50.009497869018190385759 316.25223586853718416
52.009497869018190385759 2231.68995082592300605 52.009497869018190385759 315.55638104257661780
54.009497869018190385759 2239.45548400246480014 54.009497869018190385759 314.89665759697174963
56.009497869018190385759 2246.80831920990885919 56.009497869018190385759 314.60841772224165425
58.009497869018218807469 2253.79984289095500571 58.009497869018218807469 314.34711600134232867
60.009497869018190385759 2260.51203588159796709 60.009497869018190385759 313.97789137334524412
62.009497869018190385759 2266.92308727536374136 62.009497869018190385759 313.55590949122466782
64.009497869018190385759 2273.05429398442174715 64.009497869018190385759 313.21232260591608565
66.009497869018190385759 2278.91992085856963968 66.009497869018190385759 312.83357807006012763
68.009497869018190385759 2284.52819438392589291 68.009497869018190385759 312.05334214155436712
70.009497869018190385759 2289.87898369555068712 70.009497869018190385759 311.44645066020751756
72.009497869018218807469 2295.00391949683898929 72.009497869018218807469 309.82462240103490103
74.009497869018190385759 2299.92766934671089984 74.009497869018190385759 308.39694815491162672
76.009497869018190385759 2304.66852789790664247 76.009497869018190385759 307.20574977836918151
78.009497869018190385759 2309.21886158284269186 78.009497869018190385759 305.64258153678730423
80.009497869018190385759 2313.57863970641665219 80.009497869018190385759 304.61264560903271104
82.009497869018218807469 2317.75213432559530702 82.009497869018218807469 303.66363151448683766
84.009497869018190385759 2321.75349318447933911 84.009497869018190385759 302.33158165393996342
86.009497869018190385759 2325.54997570811974583 86.009497869018190385759 300.87059798739886674
88.009497869018190385759 2329.18154816869355273 88.009497869018190385759 299.93148561508093053
91.009497869018218807469 2334.38727697740750955 91.009497869018218807469 299.10886975757819073
94.009497869018190385759 2339.37439455347157491 94.009497869018190385759 298.57614840396206546
97.009497869018190385759 2344.15989841569580676 97.009497869018190385759 298.55579570294031555
99.504748934509109403734 2347.98446792546064898 99.504748934509109403734 291.51298088847727286
nan nan nan nan

