Time Pressure difference Time.1 Pressure.1 difference.1
(hr) (psi) (hr) (psi)
0.000200000000006639311 0.17859160745140751 0.000200000000006639311 0.14262193614214555
0.000399999999999067768 0.35655327074006260 0.000399999999999067768 0.37086836368933473
0.000600000000005707079 0.53399448006786532 0.000600000000005707079 0.54148112110128077
0.000799999999998135536 0.71096586323472821 0.000799999999998135536 0.71450769350008436
0.001007140329434719206 0.89379380094469463 0.001007140329434719206 0.89545191965418758
0.001267914553963578328 1.12333241286044716 0.001267914553963578328 1.12390635271886508
0.001596209851982166583 1.41136501166024519 0.001596209851982166583 1.40983083416434662
0.002009509145210586212 1.77257278014577935 0.002009509145210586212 1.76728177480432791
0.002529822128138903281 2.22521142146506001 0.002529822128138903281 2.21355413882136443
0.003184857364445292660 2.79192544893453665 0.003184857364445292660 2.76982996442209961
0.004009497869020606231 3.50072322896593935 0.004009497869020606231 3.46190503516947512
0.005047658755842121536 4.38612551095908820 0.005047658755842121536 4.32097503347267242
0.006354625877804664924 5.49050188535097483 0.006354625877804664924 5.38444329053476878
0.008000000000009777068 6.86559034654447053 0.008000000000009777068 6.69667963487259144
0.010071403294347192059 8.57418177449305219 0.010071403294347192059 8.30962158199770329
0.012679145539692626699 10.69191419393476927 0.012679145539692626699 10.28302597569371279
0.015962098519750611558 13.30906993086449575 0.015962098519750611558 12.68412690898526130
0.020095091452091651263 16.53220763648731761 0.020095091452091651263 15.58635801479890226
0.025298221281346400247 20.48536426449818038 0.025298221281346400247 19.06664868716010020
0.031848573644282396344 25.31043241460399429 0.031848573644282396344 23.20069882192988686
0.040094978690191851456 31.16617316406252414 0.040094978690191851456 28.05552019664530761
0.050476587558421215363 38.22514130881163652 0.050476587558421215363 33.67911841409458162
0.063546258777947173257 46.66792470085363220 0.063546258777947173257 40.08589730815010199
0.079999999999998294697 56.67332251055163539 0.079999999999998294697 47.23898503836349505
0.100714032943542974863 68.40441857715138951 0.100714032943542974863 55.03179269789325900
0.126791455396897845276 81.99024376851070883 0.126791455396897845276 63.26805659492748646
0.159620985197506115583 97.50264906654996366 0.159620985197506115583 71.65319424423140049
0.200950914520774404082 114.93399896509247071 0.200950914520774404082 79.79655475904090167
0.252982212813464002465 134.17513155393550051 0.252982212813464002465 87.24005105328903653
0.318485736442795541734 155.00632058390681323 0.318485736442795541734 93.51222776967777861
0.400949786901819038576 177.10024834950678496 0.400949786901819038576 98.20547771049255914
0.504765875584169521062 200.04861864697335250 0.504765875584169521062 101.06360589715161780
0.635462587779443310865 223.40546782264257786 0.635462587779443310865 102.04439733430344006
0.799999999999997157829 246.74246207906392669 0.799999999999997157829 101.33913038256875438
1.007140329435330272645 269.70089167773767258 1.007140329435330272645 99.33552458594698464
1.267914553968893187630 292.02944411931116520 1.267914553968893187630 96.53174933137999858
1.596209851975103788391 313.59609290975549811 1.596209851975103788391 93.42862441752612312
2.009509145207687197399 334.37580127986285561 2.009509145207687197399 90.44649953384066521
2.529822128134711078928 354.42379731201577897 2.529822128134711078928 87.87357984320603066
3.184857364427983839050 373.83935939470512722 3.184857364427983839050 85.85560107711889088
4.009497869018190385759 392.73431862128916237 4.009497869018190385759 84.41829065537461929
5.009497869018190385759 410.60548619152103811 5.009497869018190385759 83.51969033878872040
6.009497869018190385759 424.96707105640979307 6.009497869018190385759 83.08823380182856511
7.009497869018204596614 436.95766200383195610 7.009497869018204596614 82.89076305652484677
8.009497869018190385759 447.23383646264056779 8.009497869018190385759 82.84104647124068777
9.009497869018204596614 456.21759700754159894 9.009497869018204596614 82.85633066446534656
10.009497869018190385759 464.17812638954893600 10.009497869018190385759 82.87711171823424650
11.009497869018190385759 471.32442386226392728 11.009497869018190385759 82.88325584870624141
12.009497869018190385759 477.78787430034185491 12.009497869018190385759 82.94710764858557184
13.009497869018190385759 483.68120630611963406 13.009497869018190385759 82.97566918803056524
14.009497869018204596614 489.10079896506732666 14.009497869018204596614 82.98962394522708053
15.009497869018190385759 494.09989256530957391 15.009497869018190385759 83.04204983221343639
16.009497869018190385759 498.73360966524990090 16.009497869018190385759 83.04236847456779458
17.009497869018190385759 503.05570572228441506 17.009497869018190385759 82.98119777602873626
18.009497869018190385759 507.09326587622746274 18.009497869018190385759 83.00302457671239154
19.009497869018204596614 510.87144322816163822 19.009497869018204596614 82.99991613218624309
20.009497869018190385759 514.42363952956304729 20.009497869018190385759 83.00125714574615188
21.009497869018204596614 517.78587325829994370 21.009497869018204596614 82.95475094447422748
22.009497869018190385759 520.96674168226013535 22.009497869018190385759 82.93334756452813394
23.009497869018190385759 523.97880937883940078 23.009497869018190385759 83.05042700747608819
24.009497869018190385759 526.83117574755931400 24.009497869018190385759 83.06487694893148443
25.009497869018190385759 529.54428794422699411 25.009497869018190385759 83.06266031157375096
26.009497869018204596614 532.14236277269935727 26.009497869018204596614 83.10393519831904996
27.009497869018190385759 534.62814537544682025 27.009497869018190385759 83.07862314215280719
28.009497869018190385759 537.00354630802644351 28.009497869018190385759 83.10815980338169595
29.009497869018190385759 539.27574196603904966 29.009497869018190385759 83.20396578283613565
30.009497869018190385759 541.44794469316866525 30.009497869018190385759 83.20922013086043023
31.009497869018190385759 543.53125560895637136 31.009497869018190385759 83.17878593347072069
32.009497869018190385759 545.53737649237575624 32.009497869018190385759 83.14093903410022790
33.009497869018190385759 547.47188386914262992 33.009497869018190385759 83.10743891149802209
34.009497869018190385759 549.33492646931074432 34.009497869018190385759 83.04195986344146263
35.009497869018190385759 551.12797229552336375 35.009497869018190385759 83.02626500309490609
36.009497869018190385759 552.85570138283424058 36.009497869018190385759 83.02396747029395385
37.009497869018190385759 554.52077337321634332 37.009497869018190385759 82.99292984868844769
38.009497869018190385759 556.12511824683349460 38.009497869018190385759 82.91942044299787540
39.009497869018190385759 557.67531143218889156 39.009497869018190385759 82.80370772978486116
40.009497869018190385759 559.17663089354084605 40.009497869018190385759 82.64267241872519776
41.009497869018190385759 560.63335014679410051 41.009497869018190385759 82.55013030416519371
42.009497869018190385759 562.04422385203145041 42.009497869018190385759 82.37578434743218736
43.009497869018190385759 563.41024450260147205 43.009497869018190385759 82.25932269416941267
44.009497869018218807469 564.73172284669351484 44.009497869018218807469 82.15564774852018104
46.009497869018190385759 567.25233201716514486 46.009497869018190385759 81.87417259773900469
48.009497869018190385759 569.61013586031572231 48.009497869018190385759 81.58651024121476780
50.009497869018190385759 571.83178934377656333 50.009497869018190385759 81.33281185614293918
52.009497869018190385759 573.93940122915478241 52.009497869018190385759 81.15385397626073427
54.009497869018190385759 575.93651801498788245 54.009497869018190385759 80.98418825759441120
56.009497869018190385759 577.82749836140010302 56.009497869018190385759 80.91005958167697543
58.009497869018218807469 579.62555768128640921 58.009497869018218807469 80.84285878024952865
60.009497869018190385759 581.35177956285122036 60.009497869018190385759 80.74790268572873231
62.009497869018190385759 583.00055474186990523 62.009497869018190385759 80.63937863709726628
64.009497869018190385759 584.57736029503666941 64.009497869018190385759 80.55101598118655204
66.009497869018190385759 586.08586481410577562 66.009497869018190385759 80.45361158500351451
68.009497869018190385759 587.52818396237330489 68.009497869018190385759 80.25295282348587023
70.009497869018190385759 588.90428408438197039 70.009497869018190385759 80.09687427266102588
72.009497869018218807469 590.22229987059859013 72.009497869018218807469 79.67977729213218652
74.009497869018190385759 591.48857525064931906 74.009497869018190385759 79.31261226472010151
76.009497869018190385759 592.70781518905494067 76.009497869018190385759 79.00626339993944214
78.009497869018190385759 593.87805650754921771 78.009497869018190385759 78.60425242871922080
80.009497869018190385759 594.99929131205681188 80.009497869018190385759 78.33937656213161915
82.009497869018218807469 596.07261827751563033 82.009497869018218807469 78.09531193255344306
84.009497869018190385759 597.10167587878356699 84.009497869018190385759 77.75273930095346486
86.009497869018190385759 598.07804399192082201 86.009497869018190385759 77.37700785561095529
88.009497869018190385759 599.01200102424525085 88.009497869018190385759 77.13548972158181982
91.009497869018218807469 600.35079491643853089 91.009497869018218807469 76.92393181564510485
94.009497869018190385759 601.63336702033052461 94.009497869018190385759 76.78692811824384989
97.009497869018190385759 602.86408870738591759 97.009497869018190385759 76.78169387097149468
99.504748934509109403734 603.84768014829433014 99.504748934509109403734 74.97044364954858509
nan nan nan nan

