Time Pressure difference Time.1 Pressure.1 difference.1
(hr) (psi) (hr) (psi)
0.000200000000006639311 0.83065863930887218 0.000200000000006639311 0.66335784252160723
0.000399999999999067768 1.65838730576773297 0.000399999999999067768 1.72496913343876623
0.000600000000005707079 2.48369525612960640 0.000600000000005707079 2.51851684233153827
0.000799999999998135536 3.30681796853361964 0.000799999999998135536 3.32329159767481075
0.001007140329434719206 4.15718046951020703 0.001007140329434719206 4.16489264955436056
0.001267914553963578328 5.22480192028114931 0.001267914553963578328 5.22747140799472110
0.001596209851982166583 6.56448842632672047 0.001596209851982166583 6.55735271704347245
0.002009509145210586212 8.24452455881757906 0.002009509145210586212 8.21991523164803617
0.002529822128138903281 10.34982056495376845 0.002529822128138903281 10.29560064568076250
0.003184857364445292660 12.98569976248621671 0.003184857364445292660 12.88293006707953126
0.004009497869020606231 16.28243362309739339 0.004009497869020606231 16.10188388450918495
0.005047658755842121536 20.40058377190273475 0.005047658755842121536 20.09755829522173443
0.006354625877804664924 25.53721807139988087 0.006354625877804664924 25.04392228155706590
0.008000000000009777068 31.93297835602079360 0.008000000000009777068 31.14734713894228690
0.010071403294347192059 39.87991523020024687 0.010071403294347192059 38.64940270696605040
0.012679145539692626699 49.72983346016171424 0.012679145539692626699 47.82802779392424952
0.015962098519750611558 61.90265084123021921 0.015962098519750611558 58.99593911155935899
0.020095091452091651263 76.89398900691776362 0.020095091452091651263 72.49468844092513109
0.025298221281346400247 95.28076402092177943 0.025298221281346400247 88.68208691702373869
0.031848573644282396344 117.72294146327438114 0.031848573644282396344 107.91022707874365949
0.040094978690191851456 144.95894494912801065 0.040094978690191851456 130.49079161230375234
0.050476587558421215363 177.79135492470530266 0.050476587558421215363 156.64706239113755259
0.063546258777947173257 217.06011488769132711 0.063546258777947173257 186.44603399139583644
0.079999999999998294697 263.59684888628669341 0.079999999999998294697 219.71620948076045465
0.100714032943542974863 318.16008640535528684 0.100714032943542974863 255.96182650182913676
0.126791455396897845276 381.34997101632893646 0.126791455396897845276 294.27003067408128345
0.159620985197506115583 453.50069333279054717 0.159620985197506115583 333.27067090340187860
0.200950914520774404082 534.57673937252309315 0.200950914520774404082 371.14676632112048082
0.252982212813464002465 624.07037932063019525 0.252982212813464002465 405.76767931762339003
0.318485736442795541734 720.95963062282248757 0.318485736442795541734 434.94059427757110825
0.400949786901819038576 823.72208534654316736 0.400949786901819038576 456.76966376973285833
0.504765875584169521062 930.45869138127136466 0.504765875584169521062 470.06328324256566020
0.635462587779443310865 1039.09519917508168874 0.635462587779443310865 474.62510388048116283
0.799999999999997157829 1147.63935850727398247 0.799999999999997157829 471.34479247706400429
1.007140329435330272645 1254.42275198947777426 1.007140329435330272645 462.02569574859063550
1.267914553968893187630 1358.27648427586586877 1.267914553968893187630 448.98488061106979785
1.596209851975103788391 1458.58647865002558319 1.596209851975103788391 434.55174147686562947
2.009509145207687197399 1555.23628502261772155 2.009509145207687197399 420.68139318065419729
2.529822128134711078928 1648.48277819542227007 2.529822128134711078928 408.71432485212108077
3.184857364427983839050 1738.78771811490742039 3.184857364427983839050 399.32837710287856225
4.009497869018190385759 1826.67124940134499411 4.009497869018190385759 392.64321235057963122
5.009497869018190385759 1909.79295903033062132 5.009497869018190385759 388.46367599436615592
6.009497869018190385759 1976.59102816934773728 6.009497869018190385759 386.45690140385380573
7.009497869018204596614 2032.36121862247432546 7.009497869018204596614 385.53843282104577384
8.009497869018190385759 2080.15737889600222843 8.009497869018190385759 385.30719288949160273
9.009497869018204596614 2121.94231166298459357 9.009497869018204596614 385.37828216030396788
10.009497869018190385759 2158.96802971883244027 10.009497869018190385759 385.47493822434529420
11.009497869018190385759 2192.20662261518100422 11.009497869018190385759 385.50351557537788949
12.009497869018190385759 2222.26918279228721076 12.009497869018190385759 385.80050069109569222
13.009497869018190385759 2249.68002933078878414 13.009497869018190385759 385.93334506060728017
14.009497869018204596614 2274.88743704682474345 14.009497869018204596614 385.99825090803295780
15.009497869018190385759 2298.13903518748611532 15.009497869018190385759 386.24209224285317532
16.009497869018190385759 2319.69120774534849261 16.009497869018190385759 386.24357430031528793
17.009497869018190385759 2339.79398010364820948 17.009497869018190385759 385.95905942338947625
18.009497869018190385759 2358.57332965687191972 18.009497869018190385759 386.06057942656929072
19.009497869018204596614 2376.14624757284445877 19.009497869018204596614 386.04612154505224453
20.009497869018190385759 2392.66809083517682666 20.009497869018190385759 386.05235881742396487
21.009497869018204596614 2408.30638724790651395 21.009497869018204596614 385.83605090453130515
22.009497869018190385759 2423.10112410353531232 22.009497869018190385759 385.73650030013084233
23.009497869018190385759 2437.11074129692769930 23.009497869018190385759 386.28105584872599820
24.009497869018190385759 2450.37756161655488540 24.009497869018190385759 386.34826487875113799
25.009497869018190385759 2462.99668811268338686 25.009497869018190385759 386.33795493755235384
26.009497869018204596614 2475.08075708232263423 26.009497869018204596614 386.52993115497230292
27.009497869018190385759 2486.64253662998498839 27.009497869018190385759 386.41220066117585930
28.009497869018190385759 2497.69091306058817281 28.009497869018190385759 386.54958048084506572
29.009497869018190385759 2508.25926495832118235 29.009497869018190385759 386.99518968760992266
30.009497869018190385759 2518.36253345659861225 30.009497869018190385759 387.01962851562984724
31.009497869018190385759 2528.05235166956435933 31.009497869018190385759 386.87807410916610706
32.009497869018190385759 2537.38314647616607544 32.009497869018190385759 386.70204201907085917
33.009497869018190385759 2546.38085520531467409 33.009497869018190385759 386.54622749533962178
34.009497869018190385759 2555.04616962470117869 34.009497869018190385759 386.24167378344867529
35.009497869018190385759 2563.38591765359660712 35.009497869018190385759 386.16867443299952356
36.009497869018190385759 2571.42186689690379353 36.009497869018190385759 386.15798823392537997
37.009497869018190385759 2579.16638778240121610 37.009497869018190385759 386.01362720320207700
38.009497869018190385759 2586.62845696201611645 38.009497869018190385759 385.67172299068778329
39.009497869018190385759 2593.83865782413477064 39.009497869018190385759 385.13352432458077601
40.009497869018190385759 2600.82153903972493936 40.009497869018190385759 384.38452287779165317
41.009497869018190385759 2607.59697742694925182 41.009497869018190385759 383.95409443797757376
42.009497869018190385759 2614.15918070712314147 42.009497869018190385759 383.14318301131254429
43.009497869018190385759 2620.51276512837875998 43.009497869018190385759 382.60150090311350368
44.009497869018218807469 2626.65917603113257428 44.009497869018218807469 382.11929185358218319
46.009497869018190385759 2638.38293961472118099 46.009497869018190385759 380.81010510576277284
48.009497869018190385759 2649.34946911774750333 48.009497869018190385759 379.47214065681288275
50.009497869018190385759 2659.68274113384450175 50.009497869018190385759 378.29214816810667799
52.009497869018190385759 2669.48558711234818475 52.009497869018190385759 377.45978593609640939
54.009497869018190385759 2678.77450239529252940 54.009497869018190385759 376.67064305857866202
56.009497869018190385759 2687.56975982046560603 56.009497869018190385759 376.32585851942781119
58.009497869018218807469 2695.93282642458734699 58.009497869018218807469 376.01329665232339039
60.009497869018190385759 2703.96176540861051762 60.009497869018190385759 375.57164039873833872
62.009497869018190385759 2711.63048717148785727 62.009497869018190385759 375.06687738184768932
64.009497869018190385759 2718.96446648854225714 64.009497869018190385759 374.65588828458862736
66.009497869018190385759 2725.98076657723640892 66.009497869018190385759 374.20284458141162531
68.009497869018190385759 2732.68922773196891285 68.009497869018190385759 373.26954801621332081
70.009497869018190385759 2739.08969341573038037 70.009497869018190385759 372.54360126819085508
72.009497869018218807469 2745.21999939813304081 72.009497869018218807469 370.60361531224276632
74.009497869018190385759 2751.10965232860098695 74.009497869018190385759 368.89587099869811482
76.009497869018190385759 2756.78053576304637318 76.009497869018190385759 367.47099255785781224
78.009497869018190385759 2762.22351863976382447 78.009497869018190385759 365.60117408706611286
80.009497869018190385759 2767.43856424212526690 80.009497869018190385759 364.36919331224009966
82.009497869018218807469 2772.43078268611861859 82.009497869018218807469 363.23400898862064423
84.009497869018190385759 2777.21709711062112547 84.009497869018190385759 361.64064791141140631
86.009497869018190385759 2781.75834414846849540 86.009497869018190385759 359.89305979353935072
88.009497869018190385759 2786.10233034532666352 88.009497869018190385759 358.76971963526426634
91.009497869018218807469 2792.32927868110937197 91.009497869018218807469 357.78572937509352414
94.009497869018190385759 2798.29473032711894120 94.009497869018190385759 357.14850287555276509
97.009497869018190385759 2804.01901724365552582 97.009497869018190385759 357.12415753940223340
99.504748934509109403734 2808.59386115485767732 99.504748934509109403734 348.69973790487711085
nan nan nan nan

