Time Pressure difference Time.1 Pressure.1 difference.1
(hr) (psi) (hr) (psi)
0.000200000000006639311 0.00083065863930887 0.000200000000006639311 0.00066335784252161
0.000399999999999067768 0.00165838730576773 0.000399999999999067768 0.00172496913343877
0.000600000000005707079 0.00248369525612961 0.000600000000005707079 0.00251851684233154
0.000799999999998135536 0.00330681796853362 0.000799999999998135536 0.00332329159767481
0.001007140329434719206 0.00415718046951021 0.001007140329434719206 0.00416489264955436
0.001267914553963578328 0.00522480192028115 0.001267914553963578328 0.00522747140799472
0.001596209851982166583 0.00656448842632672 0.001596209851982166583 0.00655735271704347
0.002009509145210586212 0.00824452455881758 0.002009509145210586212 0.00821991523164804
0.002529822128138903281 0.01034982056495377 0.002529822128138903281 0.01029560064568076
0.003184857364445292660 0.01298569976248622 0.003184857364445292660 0.01288293006707953
0.004009497869020606231 0.01628243362309739 0.004009497869020606231 0.01610188388450919
0.005047658755842121536 0.02040058377190274 0.005047658755842121536 0.02009755829522173
0.006354625877804664924 0.02553721807139988 0.006354625877804664924 0.02504392228155707
0.008000000000009777068 0.03193297835602080 0.008000000000009777068 0.03114734713894229
0.010071403294347192059 0.03987991523020025 0.010071403294347192059 0.03864940270696605
0.012679145539692626699 0.04972983346016172 0.012679145539692626699 0.04782802779392425
0.015962098519750611558 0.06190265084123021 0.015962098519750611558 0.05899593911155936
0.020095091452091651263 0.07689398900691775 0.020095091452091651263 0.07249468844092513
0.025298221281346400247 0.09528076402092177 0.025298221281346400247 0.08868208691702373
0.031848573644282396344 0.11772294146327439 0.031848573644282396344 0.10791022707874365
0.040094978690191851456 0.14495894494912800 0.040094978690191851456 0.13049079161230376
0.050476587558421215363 0.17779135492470530 0.050476587558421215363 0.15664706239113757
0.063546258777947173257 0.21706011488769131 0.063546258777947173257 0.18644603399139584
0.079999999999998294697 0.26359684888628671 0.079999999999998294697 0.21971620948076043
0.100714032943542974863 0.31816008640535531 0.100714032943542974863 0.25596182650182908
0.126791455396897845276 0.38134997101632889 0.126791455396897845276 0.29427003067408131
0.159620985197506115583 0.45350069333279058 0.159620985197506115583 0.33327067090340190
0.200950914520774404082 0.53457673937252315 0.200950914520774404082 0.37114676632112048
0.252982212813464002465 0.62407037932063014 0.252982212813464002465 0.40576767931762342
0.318485736442795541734 0.72095963062282242 0.318485736442795541734 0.43494059427757109
0.400949786901819038576 0.82372208534654312 0.400949786901819038576 0.45676966376973288
0.504765875584169521062 0.93045869138127135 0.504765875584169521062 0.47006328324256569
0.635462587779443310865 1.03909519917508164 0.635462587779443310865 0.47462510388048113
0.799999999999997157829 1.14763935850727394 0.799999999999997157829 0.47134479247706401
1.007140329435330272645 1.25442275198947772 1.007140329435330272645 0.46202569574859065
1.267914553968893187630 1.35827648427586589 1.267914553968893187630 0.44898488061106984
1.596209851975103788391 1.45858647865002555 1.596209851975103788391 0.43455174147686565
2.009509145207687197399 1.55523628502261779 2.009509145207687197399 0.42068139318065423
2.529822128134711078928 1.64848277819542210 2.529822128134711078928 0.40871432485212106
3.184857364427983839050 1.73878771811490762 3.184857364427983839050 0.39932837710287855
4.009497869018190385759 1.82667124940134484 4.009497869018190385759 0.39264321235057964
5.009497869018190385759 1.90979295903033064 5.009497869018190385759 0.38846367599436615
6.009497869018190385759 1.97659102816934795 6.009497869018190385759 0.38645690140385380
7.009497869018204596614 2.03236121862247421 7.009497869018204596614 0.38553843282104583
8.009497869018190385759 2.08015737889600238 8.009497869018190385759 0.38530719288949156
9.009497869018204596614 2.12194231166298408 9.009497869018204596614 0.38537828216030395
10.009497869018190385759 2.15896802971883206 10.009497869018190385759 0.38547493822434531
11.009497869018190385759 2.19220662261518084 11.009497869018190385759 0.38550351557537788
12.009497869018190385759 2.22226918279228736 12.009497869018190385759 0.38580050069109567
13.009497869018190385759 2.24968002933078903 13.009497869018190385759 0.38593334506060728
14.009497869018204596614 2.27488743704682461 14.009497869018204596614 0.38599825090803297
15.009497869018190385759 2.29813903518748619 15.009497869018190385759 0.38624209224285316
16.009497869018190385759 2.31969120774534820 16.009497869018190385759 0.38624357430031531
17.009497869018190385759 2.33979398010364825 17.009497869018190385759 0.38595905942338948
18.009497869018190385759 2.35857332965687183 18.009497869018190385759 0.38606057942656924
19.009497869018204596614 2.37614624757284476 19.009497869018204596614 0.38604612154505225
20.009497869018190385759 2.39266809083517673 20.009497869018190385759 0.38605235881742395
21.009497869018204596614 2.40830638724790669 21.009497869018204596614 0.38583605090453127
22.009497869018190385759 2.42310112410353540 22.009497869018190385759 0.38573650030013085
23.009497869018190385759 2.43711074129692751 23.009497869018190385759 0.38628105584872602
24.009497869018190385759 2.45037756161655462 24.009497869018190385759 0.38634826487875112
25.009497869018190385759 2.46299668811268369 25.009497869018190385759 0.38633795493755235
26.009497869018204596614 2.47508075708232234 26.009497869018204596614 0.38652993115497225
27.009497869018190385759 2.48664253662998513 27.009497869018190385759 0.38641220066117588
28.009497869018190385759 2.49769091306058799 28.009497869018190385759 0.38654958048084509
29.009497869018190385759 2.50825926495832130 29.009497869018190385759 0.38699518968760993
30.009497869018190385759 2.51836253345659866 30.009497869018190385759 0.38701962851562988
31.009497869018190385759 2.52805235166956432 31.009497869018190385759 0.38687807410916614
32.009497869018190385759 2.53738314647616603 32.009497869018190385759 0.38670204201907082
33.009497869018190385759 2.54638085520531465 33.009497869018190385759 0.38654622749533968
34.009497869018190385759 2.55504616962470132 34.009497869018190385759 0.38624167378344865
35.009497869018190385759 2.56338591765359647 35.009497869018190385759 0.38616867443299957
36.009497869018190385759 2.57142186689690355 36.009497869018190385759 0.38615798823392533
37.009497869018190385759 2.57916638778240115 37.009497869018190385759 0.38601362720320209
38.009497869018190385759 2.58662845696201638 38.009497869018190385759 0.38567172299068780
39.009497869018190385759 2.59383865782413459 39.009497869018190385759 0.38513352432458076
40.009497869018190385759 2.60082153903972513 40.009497869018190385759 0.38438452287779162
41.009497869018190385759 2.60759697742694918 41.009497869018190385759 0.38395409443797757
42.009497869018190385759 2.61415918070712294 42.009497869018190385759 0.38314318301131256
43.009497869018190385759 2.62051276512837905 43.009497869018190385759 0.38260150090311351
44.009497869018218807469 2.62665917603113286 44.009497869018218807469 0.38211929185358223
46.009497869018190385759 2.63838293961472115 46.009497869018190385759 0.38081010510576280
48.009497869018190385759 2.64934946911774771 48.009497869018190385759 0.37947214065681290
50.009497869018190385759 2.65968274113384462 50.009497869018190385759 0.37829214816810669
52.009497869018190385759 2.66948558711234796 52.009497869018190385759 0.37745978593609641
54.009497869018190385759 2.67877450239529269 54.009497869018190385759 0.37667064305857867
56.009497869018190385759 2.68756975982046553 56.009497869018190385759 0.37632585851942785
58.009497869018218807469 2.69593282642458787 58.009497869018218807469 0.37601329665232336
60.009497869018190385759 2.70396176540861033 60.009497869018190385759 0.37557164039873830
62.009497869018190385759 2.71163048717148802 62.009497869018190385759 0.37506687738184774
64.009497869018190385759 2.71896446648854262 64.009497869018190385759 0.37465588828458862
66.009497869018190385759 2.72598076657723665 66.009497869018190385759 0.37420284458141168
68.009497869018190385759 2.73268922773196854 68.009497869018190385759 0.37326954801621332
70.009497869018190385759 2.73908969341573050 70.009497869018190385759 0.37254360126819080
72.009497869018218807469 2.74521999939813277 72.009497869018218807469 0.37060361531224273
74.009497869018190385759 2.75110965232860094 74.009497869018190385759 0.36889587099869814
76.009497869018190385759 2.75678053576304638 76.009497869018190385759 0.36747099255785787
78.009497869018190385759 2.76222351863976368 78.009497869018190385759 0.36560117408706611
80.009497869018190385759 2.76743856424212487 80.009497869018190385759 0.36436919331224005
82.009497869018218807469 2.77243078268611898 82.009497869018218807469 0.36323400898862063
84.009497869018190385759 2.77721709711062115 84.009497869018190385759 0.36164064791141143
86.009497869018190385759 2.78175834414846879 86.009497869018190385759 0.35989305979353936
88.009497869018190385759 2.78610233034532673 88.009497869018190385759 0.35876971963526427
91.009497869018218807469 2.79232927868110936 91.009497869018218807469 0.35778572937509351
94.009497869018190385759 2.79829473032711906 94.009497869018190385759 0.35714850287555272
97.009497869018190385759 2.80401901724365565 97.009497869018190385759 0.35712415753940224
99.504748934509109403734 2.80859386115485732 99.504748934509109403734 0.34869973790487713
nan nan nan nan

