Time Pressure difference Time.1 Pressure.1 difference.1
(hr) (psi) (hr) (psi)
0.000200000000006639311 0.02990371101511940 0.000200000000006639311 0.02388088233077786
0.000399999999999067768 0.05970194300763838 0.000399999999999067768 0.06209888880379558
0.000600000000005707079 0.08941302922066582 0.000600000000005707079 0.09066660632393539
0.000799999999998135536 0.11904544686721029 0.000799999999998135536 0.11963849751629320
0.001007140329434719206 0.14965849690236746 0.001007140329434719206 0.14993613538395700
0.001267914553963578328 0.18809286913012138 0.001267914553963578328 0.18818897068780996
0.001596209851982166583 0.23632158334776196 0.001596209851982166583 0.23606469781356501
0.002009509145210586212 0.29680288411743277 0.002009509145210586212 0.29591694833932930
0.002529822128138903281 0.37259354033833558 0.002529822128138903281 0.37064162324450750
0.003184857364445292660 0.46748519144950379 0.003184857364445292660 0.46378548241486317
0.004009497869020606231 0.58616761043150611 0.004009497869020606231 0.57966781984233073
0.005047658755842121536 0.73442101578849850 0.005047658755842121536 0.72351209862798249
0.006354625877804664924 0.91933985057039569 0.006354625877804664924 0.90158120213605442
0.008000000000009777068 1.14958722081674858 0.008000000000009777068 1.12130449700192236
0.010071403294347192059 1.43567694828720893 0.010071403294347192059 1.39137849745077791
0.012679145539692626699 1.79027400456582186 0.012679145539692626699 1.72180900058127295
0.015962098519750611558 2.22849543028428743 0.015962098519750611558 2.12385380801613666
0.020095091452091651263 2.76818360424903931 0.020095091452091651263 2.60980878387330462
0.025298221281346400247 3.43010750475318371 0.025298221281346400247 3.19255512901285421
0.031848573644282396344 4.23802589267787777 0.031848573644282396344 3.88476817483477177
0.040094978690191851456 5.21852201816860894 0.040094978690191851456 4.69766849804293507
0.050476587558421215363 6.40048877728939036 0.050476587558421215363 5.63929424608095253
0.063546258777947173257 7.81416413595688741 0.063546258777947173257 6.71205722369025004
0.079999999999998294697 9.48948655990631984 0.079999999999998294697 7.90978354130737671
0.100714032943542974863 11.45376311059279217 0.100714032943542974863 9.21462575406584783
0.126791455396897845276 13.72859895658784168 0.126791455396897845276 10.59372110426692792
0.159620985197506115583 16.32602495998046166 0.159620985197506115583 11.99774415252246840
0.200950914520774404082 19.24476261741083505 0.200950914520774404082 13.36128358756033663
0.252982212813464002465 22.46653365554268689 0.252982212813464002465 14.60763645543444333
0.318485736442795541734 25.95454670242160944 0.318485736442795541734 15.65786139399255994
0.400949786901819038576 29.65399507247555277 0.400949786901819038576 16.44370789571038571
0.504765875584169521062 33.49651288972577134 0.504765875584169521062 16.92227819673236766
0.635462587779443310865 37.40742717030293818 0.635462587779443310865 17.08650373969732073
0.799999999999997157829 41.31501690626186019 0.799999999999997157829 16.96841252917430154
1.007140329435330272645 45.15921907162120164 1.007140329435330272645 16.63292504694926421
1.267914553968893187630 48.89795343393117122 1.267914553968893187630 16.16345570199851522
1.596209851975103788391 52.50911323140092435 1.596209851975103788391 15.64386269316716316
2.009509145207687197399 55.98850626081424764 2.009509145207687197399 15.14453015450355089
2.529822128134711078928 59.34538001503519666 2.529822128134711078928 14.71371569467635787
3.184857364427983839050 62.59635785213666992 3.184857364427983839050 14.37582157570362718
4.009497869018190385759 65.76016497844841524 4.009497869018190385759 14.13515564462086616
5.009497869018190385759 68.75254652509190123 5.009497869018190385759 13.98469233579718107
6.009497869018190385759 71.15727701409652184 6.009497869018190385759 13.91244845053873647
7.009497869018204596614 73.16500387040906617 7.009497869018204596614 13.87938358155764895
8.009497869018190385759 74.88566564025609296 8.009497869018190385759 13.87105894402169604
9.009497869018204596614 76.38992321986744116 9.009497869018204596614 13.87361815777094343
10.009497869018190385759 77.72284906987795239 10.009497869018190385759 13.87709777607643069
11.009497869018190385759 78.91943841414651217 11.009497869018190385759 13.87812656071360173
12.009497869018190385759 80.00169058052235016 12.009497869018190385759 13.88881802487944483
13.009497869018190385759 80.98848105590839452 13.009497869018190385759 13.89360042218186209
14.009497869018204596614 81.89594773368568781 14.009497869018204596614 13.89593703268918645
15.009497869018190385759 82.73300526674951527 15.009497869018190385759 13.90471532074271366
16.009497869018190385759 83.50888347883254426 16.009497869018190385759 13.90476867481135059
17.009497869018190385759 84.23258328373134418 17.009497869018190385759 13.89452613924201962
18.009497869018190385759 84.90863986764739479 18.009497869018190385759 13.89818085935649172
19.009497869018204596614 85.54126491262240961 19.009497869018204596614 13.89766037562188039
20.009497869018190385759 86.13605127006637474 20.009497869018190385759 13.89788491742726251
21.009497869018204596614 86.69902994092464610 21.009497869018204596614 13.89009783256312680
22.009497869018190385759 87.23164046772727431 22.009497869018190385759 13.88651401080471182
23.009497869018190385759 87.73598668668938672 23.009497869018190385759 13.90611801055413643
24.009497869018190385759 88.21359221819596996 24.009497869018190385759 13.90853753563504114
25.009497869018190385759 88.66788077205660557 25.009497869018190385759 13.90816637775188447
26.009497869018204596614 89.10290725496361119 26.009497869018204596614 13.91507752157900057
27.009497869018190385759 89.51913131867947016 27.009497869018190385759 13.91083922380233062
28.009497869018190385759 89.91687287018116592 28.009497869018190385759 13.91578489731042367
29.009497869018190385759 90.29733353849955790 29.009497869018190385759 13.93182682875395884
30.009497869018190385759 90.66105120443755538 30.009497869018190385759 13.93270662656267511
31.009497869018190385759 91.00988466010431921 31.009497869018190385759 13.92761066792997937
32.009497869018190385759 91.34579327314199304 32.009497869018190385759 13.92127351268655033
33.009497869018190385759 91.66971078739132395 33.009497869018190385759 13.91566418983222775
34.009497869018190385759 91.98166210648925301 34.009497869018190385759 13.90470025620415306
35.009497869018190385759 92.28189303552947820 35.009497869018190385759 13.90207227958798519
36.009497869018190385759 92.57118720828852076 36.009497869018190385759 13.90168757642131325
37.009497869018190385759 92.84998996016643957 37.009497869018190385759 13.89649057931527487
38.009497869018190385759 93.11862445063258065 38.009497869018190385759 13.88418202766476028
39.009497869018190385759 93.37819168166883799 39.009497869018190385759 13.86480687568490744
40.009497869018190385759 93.62957540543008861 40.009497869018190385759 13.83784282360050000
41.009497869018190385759 93.87349118737016340 41.009497869018190385759 13.82234739976719240
42.009497869018190385759 94.10973050545642593 42.009497869018190385759 13.79315458840725128
43.009497869018190385759 94.33845954462164229 43.009497869018190385759 13.77365403251208775
44.009497869018218807469 94.55973033712078291 44.009497869018218807469 13.75629450672895970
46.009497869018190385759 94.98178582612997900 46.009497869018190385759 13.70916378380746181
48.009497869018190385759 95.37658088823891944 48.009497869018190385759 13.66099706364526511
50.009497869018190385759 95.74857868081839740 50.009497869018190385759 13.61851733405184106
52.009497869018190385759 96.10148113604454068 52.009497869018190385759 13.58855229369947004
54.009497869018190385759 96.43588208623053504 54.009497869018190385759 13.56014315010883031
56.009497869018190385759 96.75251135353674670 56.009497869018190385759 13.54773090669940139
58.009497869018218807469 97.05358175128516507 58.009497869018218807469 13.53647867948364159
60.009497869018190385759 97.34262355470998784 60.009497869018190385759 13.52057905435457918
62.009497869018190385759 97.61869753817356354 62.009497869018190385759 13.50240758574651778
64.009497869018190385759 97.88272079358753786 64.009497869018190385759 13.48761197824519265
66.009497869018190385759 98.13530759678052107 66.009497869018190385759 13.47130240493082098
68.009497869018190385759 98.37681219835087632 68.009497869018190385759 13.43770372858367956
70.009497869018190385759 98.60722896296628903 70.009497869018190385759 13.41156964565487009
72.009497869018218807469 98.82791997833278685 72.009497869018218807469 13.34173015124073913
74.009497869018190385759 99.03994748382963564 74.009497869018190385759 13.28025135595313344
76.009497869018190385759 99.24409928746966614 76.009497869018190385759 13.22895573208288234
78.009497869018190385759 99.44004667103149586 78.009497869018190385759 13.16164226713438090
80.009497869018190385759 99.62778831271648983 80.009497869018190385759 13.11729095924064303
82.009497869018218807469 99.80750817670026720 82.009497869018218807469 13.07642432359034323
84.009497869018190385759 99.97981549598236484 84.009497869018190385759 13.01906332481081208
86.009497869018190385759 100.14330038934487277 86.009497869018190385759 12.95615015256741565
88.009497869018190385759 100.29968389243175864 88.009497869018190385759 12.91570990686951248
91.009497869018218807469 100.52385403251993523 91.009497869018218807469 12.88028625750336609
94.009497869018190385759 100.73861029177628268 94.009497869018190385759 12.85734610351989815
97.009497869018190385759 100.94468462077159643 97.009497869018190385759 12.85646967141848229
99.504748934509109403734 101.10937900157487945 99.504748934509109403734 12.55319056457557636
nan nan nan nan

