Time Pressure difference Time.1 Pressure.1 difference.1
(hr) (psi) (hr) (psi)
0.000200000000006639311 0.32811016252700448 0.000200000000006639311 0.26202634779603484
0.000399999999999067768 0.65506298577825450 0.000399999999999067768 0.68136280770831270
0.000600000000005707079 0.98105962617119435 0.000600000000005707079 0.99481415272095775
0.000799999999998135536 1.30619309757077984 0.000799999999998135536 1.31270018108155018
0.001007140329434719206 1.64208628545653212 0.001007140329434719206 1.64513259657397248
0.001267914553963578328 2.06379675851105393 0.001267914553963578328 2.06485120615791473
0.001596209851982166583 2.59297292839905502 0.001596209851982166583 2.59015432323217176
0.002009509145210586212 3.25658720073294328 0.002009509145210586212 3.24686651650097469
0.002529822128138903281 4.08817912315673748 0.002529822128138903281 4.06676225504390132
0.003184857364445292660 5.12935140618205665 0.003184857364445292660 5.08875737649641557
0.004009497869020606231 6.43156128112346970 0.004009497869020606231 6.36024413438112912
0.005047658755842121536 8.05823058990158181 0.005047658755842121536 7.93853552661258544
0.006354625877804664924 10.08720113820295161 0.006354625877804664924 9.89234930121504163
0.008000000000009777068 12.61352645062821409 0.008000000000009777068 12.30320211988220258
0.010071403294347192059 15.75256651592909662 0.010071403294347192059 15.26651406925159016
0.012679145539692626699 19.64328421676387748 0.012679145539692626699 18.89207097860007778
0.015962098519750611558 24.45154708228593421 0.015962098519750611558 23.30339594906594769
0.020095091452091651263 30.37312565773251194 0.020095091452091651263 28.63540193416542579
0.025298221281346400247 37.63590178826409982 0.025298221281346400247 35.02942433222437302
0.031848573644282396344 46.50056187799338403 0.031848573644282396344 42.62453969610374571
0.040094978690191851456 57.25878325490556620 0.040094978690191851456 51.54386268685998829
0.050476587558421215363 70.22758519525858389 0.050476587558421215363 61.87558964449933541
0.063546258777947173257 85.73874538063806483 0.063546258777947173257 73.64618342660135397
0.079999999999998294697 104.12075531008323992 0.079999999999998294697 86.78790274490037859
0.100714032943542974863 125.67323413011534683 0.100714032943542974863 101.10492146822249993
0.126791455396897845276 150.63323855144989238 0.126791455396897845276 116.23666211626212430
0.159620985197506115583 179.13277386645225420 0.159620985197506115583 131.64191500684376024
0.200950914520774404082 211.15781205214665306 0.200950914520774404082 146.60297269684258481
0.252982212813464002465 246.50779983164889586 0.252982212813464002465 160.27823333046123366
0.318485736442795541734 284.77905409601487463 0.318485736442795541734 171.80153473964060140
0.400949786901819038576 325.37022371188453462 0.400949786901819038576 180.42401718904449126
0.504765875584169521062 367.53118309560221633 0.504765875584169521062 185.67499688081346676
0.635462587779443310865 410.44260367415728297 0.635462587779443310865 187.47691603279002948
0.799999999999997157829 453.31754661037319920 0.799999999999997157829 186.18119302844027629
1.007140329435330272645 495.49698703584368786 1.007140329435330272645 182.50014982069330927
1.267914553968893187630 536.51921128896697155 1.267914553968893187630 177.34902784137256049
1.596209851975103788391 576.14165906676009854 1.596209851975103788391 171.64793788336191938
2.009509145207687197399 614.31833258393396591 2.009509145207687197399 166.16915030635840367
2.529822128134711078928 651.15069738719171255 2.529822128134711078928 161.44215831658780758
3.184857364427983839050 686.82114865538858339 3.184857364427983839050 157.73470895563701788
4.009497869018190385759 721.53514351353123857 4.009497869018190385759 155.09406887847896428
5.009497869018190385759 754.36821881698051584 5.009497869018190385759 153.44315201777465063
6.009497869018190385759 780.75345612689238806 6.009497869018190385759 152.65047605452224389
7.009497869018204596614 802.78268135587734378 7.009497869018204596614 152.28768096431309687
8.009497869018190385759 821.66216466392097573 8.009497869018190385759 152.19634119134917682
9.009497869018204596614 838.16721310687876212 9.009497869018204596614 152.22442145332004770
10.009497869018190385759 852.79237173893875479 10.009497869018190385759 152.26260059861641594
11.009497869018190385759 865.92161593299636024 11.009497869018190385759 152.27388865227425185
12.009497869018190385759 877.79632720295364834 12.009497869018190385759 152.39119777298279246
13.009497869018190385759 888.62361158566159247 13.009497869018190385759 152.44367129893987567
14.009497869018204596614 898.58053763349573728 14.009497869018204596614 152.46930910867300213
15.009497869018190385759 907.76491889905707922 15.009497869018190385759 152.56562643592698691
16.009497869018190385759 916.27802705941257955 16.009497869018190385759 152.56621184862453333
17.009497869018190385759 924.21862214094107912 17.009497869018190385759 152.45382847223885392
18.009497869018190385759 931.63646521446435145 18.009497869018190385759 152.49392887349486614
19.009497869018204596614 938.57776779127357258 19.009497869018204596614 152.48821801029563971
20.009497869018190385759 945.10389587989482152 20.009497869018190385759 152.49068173288245021
21.009497869018204596614 951.28102296292320261 21.009497869018204596614 152.40524010728987037
22.009497869018190385759 957.12494402089657797 22.009497869018190385759 152.36591761855169125
23.009497869018190385759 962.65874281228639120 23.009497869018190385759 152.58101706024677924
24.009497869018190385759 967.89913683853910698 24.009497869018190385759 152.60756462710671144
25.009497869018190385759 972.88369180451002194 25.009497869018190385759 152.60349220033319284
26.009497869018204596614 977.65689904751752692 26.009497869018204596614 152.67932280621405994
27.009497869018190385759 982.22380196884432735 27.009497869018190385759 152.63281926116445675
28.009497869018190385759 986.58791065893240102 28.009497869018190385759 152.68708428993380721
29.009497869018190385759 990.76240965853685339 29.009497869018190385759 152.86309992660591206
30.009497869018190385759 994.75320071535645639 30.009497869018190385759 152.87275326367381467
31.009497869018190385759 998.58067890947802425 31.009497869018190385759 152.81683927312062110
32.009497869018190385759 1002.26634285808563618 32.009497869018190385759 152.74730659753299733
33.009497869018190385759 1005.82043780609922123 33.009497869018190385759 152.68575986065917505
34.009497869018190385759 1009.24323700175716567 34.009497869018190385759 152.56546114446220486
35.009497869018190385759 1012.53743747317071211 35.009497869018190385759 152.53662640103485160
36.009497869018190385759 1015.71163742427688703 36.009497869018190385759 152.53240535240053077
37.009497869018190385759 1018.77072317404849855 37.009497869018190385759 152.47538274526482382
38.009497869018190385759 1021.71824049999645467 38.009497869018190385759 152.34033058132166616
39.009497869018190385759 1024.56626984053309570 39.009497869018190385759 152.12774210820938947
40.009497869018190385759 1027.32450792069130330 40.009497869018190385759 151.83188653672769419
41.009497869018190385759 1030.00080608364487489 41.009497869018190385759 151.66186730300114505
42.009497869018190385759 1032.59287637931379322 42.009497869018190385759 151.34155728946845443
43.009497869018190385759 1035.10254222570983984 43.009497869018190385759 151.12759285672984788
44.009497869018218807469 1037.53037453229740095 44.009497869018218807469 150.93712028216498311
46.009497869018190385759 1042.16126114781491196 46.009497869018190385759 150.41999151677632085
48.009497869018190385759 1046.49304030151029110 48.009497869018190385759 149.89149555944109693
50.009497869018190385759 1050.57468274786856455 50.009497869018190385759 149.42539852640214804
52.009497869018190385759 1054.44680690937752843 52.009497869018190385759 149.09661544475810047
54.009497869018190385759 1058.11592844614051501 54.009497869018190385759 148.78490400813856809
56.009497869018190385759 1061.59005512908379387 56.009497869018190385759 148.64871411517398769
58.009497869018218807469 1064.89346643771204981 58.009497869018218807469 148.52525217766770993
60.009497869018190385759 1068.06489733640114537 60.009497869018190385759 148.35079795750164067
62.009497869018190385759 1071.09404243273775137 62.009497869018190385759 148.15141656582983387
64.009497869018190385759 1073.99096426297433027 64.009497869018190385759 147.98907587241251349
66.009497869018190385759 1076.76240279800845201 66.009497869018190385759 147.81012360965760877
68.009497869018190385759 1079.41224495412780016 68.009497869018190385759 147.44147146640426627
70.009497869018190385759 1081.94042889921342976 70.009497869018190385759 147.15472250093537809
72.009497869018218807469 1084.36189976226251019 72.009497869018218807469 146.38842804833589639
74.009497869018190385759 1086.68831266979759675 74.009497869018190385759 145.71386904448576161
76.009497869018190385759 1088.92831162640345610 76.009497869018190385759 145.15104206035385914
78.009497869018190385759 1091.07828986270669702 78.009497869018190385759 144.41246376439110577
80.009497869018190385759 1093.13823287563923259 80.009497869018190385759 143.92583135833484675
82.009497869018218807469 1095.11015916101678158 82.009497869018218807469 143.47743355050513969
84.009497869018190385759 1097.00075335869519222 84.009497869018190385759 142.84805592500751459
86.009497869018190385759 1098.79454593864534218 86.009497869018190385759 142.15775861844804240
88.009497869018190385759 1100.51042048640397297 88.009497869018190385759 141.71403925592937867
91.009497869018218807469 1102.97006507903824968 91.009497869018218807469 141.32536310316191930
94.009497869018190385759 1105.32641847921217959 94.009497869018190385759 141.07365863584331578
97.009497869018190385759 1107.58751181124398499 97.009497869018190385759 141.06404222806389726
99.504748934509109403734 1109.39457515616868477 99.504748934509109403734 137.73639647242646333
nan nan nan nan

