Time Pressure difference Time.1 Pressure.1 difference.1
(hr) (psi) (hr) (psi)
0.000200000000006639311 0.00913724503239759 0.000200000000006639311 0.00729693626773768
0.000399999999999067768 0.01824226036344506 0.000399999999999067768 0.01897466046782643
0.000600000000005707079 0.02732064781742567 0.000600000000005707079 0.02770368526564693
0.000799999999998135536 0.03637499765386981 0.000799999999998135536 0.03655620757442291
0.001007140329434719206 0.04572898516461228 0.001007140329434719206 0.04581381914509797
0.001267914553963578328 0.05747282112309264 0.001267914553963578328 0.05750218548794193
0.001596209851982166583 0.07220937268959395 0.001596209851982166583 0.07213087988747820
0.002009509145210586212 0.09068977014699336 0.002009509145210586212 0.09041906754812841
0.002529822128138903281 0.11384802621449143 0.002529822128138903281 0.11325160710248840
0.003184857364445292660 0.14284269738734839 0.003184857364445292660 0.14171223073787487
0.004009497869020606231 0.17910676985407131 0.004009497869020606231 0.17712072272960105
0.005047658755842121536 0.22440642149093010 0.005047658755842121536 0.22107314124743907
0.006354625877804664924 0.28090939878539867 0.006354625877804664924 0.27548314509712774
0.008000000000009777068 0.35126276191622874 0.008000000000009777068 0.34262081852836518
0.010071403294347192059 0.43867906753220270 0.010071403294347192059 0.42514342977662661
0.012679145539692626699 0.54702816806177879 0.012679145539692626699 0.52610830573316669
0.015962098519750611558 0.68092915925353226 0.015962098519750611558 0.64895533022715290
0.020095091452091651263 0.84583387907609531 0.020095091452091651263 0.79744157285017636
0.025298221281346400247 1.04808840423013949 0.025298221281346400247 0.97550295608726101
0.031848573644282396344 1.29495235609601833 0.031848573644282396344 1.18701249786618024
0.040094978690191851456 1.59454839444040819 0.040094978690191851456 1.43539870773534139
0.050476587558421215363 1.95570490417175846 0.050476587558421215363 1.72311768630251350
0.063546258777947173257 2.38766126376460486 0.063546258777947173257 2.05090637390535413
0.079999999999998294697 2.89956533774915348 0.079999999999998294697 2.41687830428836481
0.100714032943542974863 3.49976095045890867 0.100714032943542974863 2.81558009152012012
0.126791455396897845276 4.19484968117961809 0.126791455396897845276 3.23697033741489459
0.159620985197506115583 4.98850762666069603 0.159620985197506115583 3.66597737993742090
0.200950914520774404082 5.88034413309775505 0.200950914520774404082 4.08261442953232478
0.252982212813464002465 6.86477417252693112 0.252982212813464002465 4.46344447249385734
0.318485736442795541734 7.93055593685104654 0.318485736442795541734 4.78434653705328206
0.400949786901819038576 9.06094293881197466 0.400949786901819038576 5.02446630146706141
0.504765875584169521062 10.23504560519398510 0.504765875584169521062 5.17069611566822207
0.635462587779443310865 11.43004719092589916 0.635462587779443310865 5.22087614268529254
0.799999999999997157829 12.62403294358001382 0.799999999999997157829 5.18479271724770374
1.007140329435330272645 13.79865027188425408 1.007140329435330272645 5.08228265323449691
1.267914553968893187630 14.94104132703452414 1.267914553968893187630 4.93883368672176815
1.596209851975103788391 16.04445126515028264 1.596209851975103788391 4.78006915624552242
2.009509145207687197399 17.10759913524879394 2.009509145207687197399 4.62749532498719596
2.529822128134711078928 18.13331056014964560 2.529822128134711078928 4.49585757337333192
3.184857364427983839050 19.12666489926398228 3.184857364427983839050 4.39261214813166401
4.009497869018190385759 20.09338374341479394 4.009497869018190385759 4.31907533585637537
5.009497869018190385759 21.00772254933363570 5.009497869018190385759 4.27310043593802735
6.009497869018190385759 21.74250130986282770 6.009497869018190385759 4.25102591544239239
7.009497869018204596614 22.35597340484721585 7.009497869018204596614 4.24092276103150390
8.009497869018190385759 22.88173116785602801 8.009497869018190385759 4.23837912178440757
9.009497869018204596614 23.34136542829282490 9.009497869018204596614 4.23916110376334387
10.009497869018190385759 23.74864832690715488 10.009497869018190385759 4.24022432046779851
11.009497869018190385759 24.11427284876699062 11.009497869018190385759 4.24053867132915663
12.009497869018190385759 24.44496101071516136 12.009497869018190385759 4.24380550760205288
13.009497869018190385759 24.74648032263867847 13.009497869018190385759 4.24526679566668008
14.009497869018204596614 25.02376180751507206 14.009497869018204596614 4.24598075998836322
15.009497869018190385759 25.27952938706235031 15.009497869018190385759 4.24866301467138552
16.009497869018190385759 25.51660328519882981 16.009497869018190385759 4.24867931730346893
17.009497869018190385759 25.73773378114013255 17.009497869018190385759 4.24554965365728432
18.009497869018190385759 25.94430662622559325 18.009497869018190385759 4.24666637369226141
19.009497869018204596614 26.13760872330129104 19.009497869018204596614 4.24650733699557481
20.009497869018190385759 26.31934899918694626 20.009497869018190385759 4.24657594699166374
21.009497869018204596614 26.49137025972697401 21.009497869018204596614 4.24419655994984435
22.009497869018190385759 26.65411236513888937 22.009497869018190385759 4.24310150330143987
23.009497869018190385759 26.80821815426620347 23.009497869018190385759 4.24909161433598648
24.009497869018190385759 26.95415317778209996 24.009497869018190385759 4.24983091366626198
25.009497869018190385759 27.09296356923951876 25.009497869018190385759 4.24971750431307616
26.009497869018204596614 27.22588832790555102 26.009497869018204596614 4.25182924270469531
27.009497869018190385759 27.35306790292983692 27.009497869018190385759 4.25053420727293485
28.009497869018190385759 27.47460004366646658 28.009497869018190385759 4.25204538528929632
29.009497869018190385759 27.59085191454153119 29.009497869018190385759 4.25694708656370935
30.009497869018190385759 27.70198786802258439 30.009497869018190385759 4.25721591367192875
31.009497869018190385759 27.80857586836521023 31.009497869018190385759 4.25565881520082723
32.009497869018190385759 27.91121461123782765 32.009497869018190385759 4.25372246220977956
33.009497869018190385759 28.01018940725845852 33.009497869018190385759 4.25200850244873596
34.009497869018190385759 28.10550786587171501 34.009497869018190385759 4.24865841161793512
35.009497869018190385759 28.19724509418956160 35.009497869018190385759 4.24785541876299533
36.009497869018190385759 28.28564053586593730 36.009497869018190385759 4.24773787057317875
37.009497869018190385759 28.37083026560641486 37.009497869018190385759 4.24614989923522312
38.009497869018190385759 28.45291302658217703 38.009497869018190385759 4.24238895289756535
39.009497869018190385759 28.53222523606547867 39.009497869018190385759 4.23646876757038893
40.009497869018190385759 28.60903692943697507 40.009497869018190385759 4.22822975165570814
41.009497869018190385759 28.68356675169644276 41.009497869018190385759 4.22349503881775323
42.009497869018190385759 28.75575098777835237 42.009497869018190385759 4.21457501312443839
43.009497869018190385759 28.82564041641217045 43.009497869018190385759 4.20861650993424874
44.009497869018218807469 28.89325093634246144 44.009497869018218807469 4.20331221038940495
46.009497869018190385759 29.02221233576193526 46.009497869018190385759 4.18891115616339160
48.009497869018190385759 29.14284416029522262 48.009497869018190385759 4.17419354722494163
50.009497869018190385759 29.25651015247229125 50.009497869018190385759 4.16121362984917287
52.009497869018190385759 29.36434145823583108 52.009497869018190385759 4.15205764529706034
54.009497869018190385759 29.46651952634821825 54.009497869018190385759 4.14337707364436447
56.009497869018190385759 29.56326735802511863 56.009497869018190385759 4.13958444371370682
58.009497869018218807469 29.65526109067046434 58.009497869018218807469 4.13614626317555700
60.009497869018190385759 29.74357941949471495 60.009497869018190385759 4.13128804438612107
62.009497869018190385759 29.82793535888636782 62.009497869018190385759 4.12573565120032448
64.009497869018190385759 29.90860913137396793 64.009497869018190385759 4.12121477113047519
66.009497869018190385759 29.98578843234960090 66.009497869018190385759 4.11623129039552893
68.009497869018190385759 30.05958150505165349 68.009497869018190385759 4.10596502817834708
70.009497869018190385759 30.12998662757303592 70.009497869018190385759 4.09797961395009835
72.009497869018218807469 30.19741999337946226 72.009497869018218807469 4.07663976843466980
74.009497869018190385759 30.26220617561461168 74.009497869018190385759 4.05785458098567986
76.009497869018190385759 30.32458589339350752 76.009497869018190385759 4.04218091813643632
78.009497869018190385759 30.38445870503739954 78.009497869018190385759 4.02161291495772666
80.009497869018190385759 30.44182420666337663 80.009497869018190385759 4.00806112643464107
82.009497869018218807469 30.49673860954730742 82.009497869018218807469 3.99557409887482695
84.009497869018190385759 30.54938806821683173 84.009497869018190385759 3.97804712702552576
86.009497869018190385759 30.59934178563315754 86.009497869018190385759 3.95882365772893241
88.009497869018190385759 30.64712563379859134 88.009497869018190385759 3.94646691598790733
91.009497869018218807469 30.71562206549220164 91.009497869018218807469 3.93564302312602887
94.009497869018190385759 30.78124203359831057 94.009497869018190385759 3.92863353163108053
97.009497869018190385759 30.84420918968021397 97.009497869018190385759 3.92836573293342450
99.504748934509109403734 30.89453247270343539 99.504748934509109403734 3.83569711695364868
nan nan nan nan

