Time Pressure difference Time.1 Pressure.1 difference.1
(hr) (psi) (hr) (psi)
0.000200000000006639311 0.72765696803457203 0.000200000000006639311 0.58110147004892798
0.000399999999999067768 1.45274727985253405 0.000399999999999067768 1.51107296089235921
0.000600000000005707079 2.17571704436953528 0.000600000000005707079 2.20622075388242767
0.000799999999998135536 2.89677254043545052 0.000799999999998135536 2.91120343956313432
0.001007140329434719206 3.64169009129094157 0.001007140329434719206 3.64844596100962004
0.001267914553963578328 4.57692648216628761 0.001267914553963578328 4.57926495340337514
0.001596209851982166583 5.75049186146220848 0.001596209851982166583 5.74424098013008244
0.002009509145210586212 7.22220351352419865 0.002009509145210586212 7.20064574292368054
0.002529822128138903281 9.06644281489949933 0.002529822128138903281 9.01894616561635054
0.003184857364445292660 11.37547299193792583 0.003184857364445292660 11.28544673876167082
0.004009497869020606231 14.26341185383331656 0.004009497869020606231 14.10525028283004545
0.005047658755842121536 17.87091138418679748 0.005047658755842121536 17.60546106661423948
0.006354625877804664924 22.37060303054629884 0.006354625877804664924 21.93847591864398794
0.008000000000009777068 27.97328903987421711 0.008000000000009777068 27.28507609371344600
0.010071403294347192059 34.93480574165541697 0.010071403294347192059 33.85687677130226092
0.012679145539692626699 43.56333411110166054 0.012679145539692626699 41.89735234747764281
0.015962098519750611558 54.22672213691767240 0.015962098519750611558 51.68044266172599777
0.020095091452091651263 67.35913437005996229 0.020095091452091651263 63.50534707425040892
0.025298221281346400247 83.46594928232747179 0.025298221281346400247 77.68550813931278753
0.031848573644282396344 103.12529672182836293 0.031848573644282396344 94.52935892097944759
0.040094978690191851456 126.98403577543614063 0.040094978690191851456 114.30993345237808967
0.050476587558421215363 155.74522691404183661 0.050476587558421215363 137.22282665463652052
0.063546258777947173257 190.14466064161760528 0.063546258777947173257 163.32672577646275158
0.079999999999998294697 230.91083962438713684 0.079999999999998294697 192.47139950514613815
0.100714032943542974863 278.70823569109126083 0.100714032943542974863 224.22256001560231198
0.126791455396897845276 334.06257461030412514 0.126791455396897845276 257.78054687049524318
0.159620985197506115583 397.26660735952452796 0.159620985197506115583 291.94510771138004657
0.200950914520774404082 468.28922369033028872 0.200950914520774404082 325.12456729730149618
0.252982212813464002465 546.68565228487193508 0.252982212813464002465 355.45248708223806489
0.318485736442795541734 631.56063642559252003 0.318485736442795541734 381.00796058715224035
0.400949786901819038576 721.58054676357176049 0.400949786901819038576 400.13022546228597776
0.504765875584169521062 815.08181364999370544 0.504765875584169521062 411.77543612048759769
0.635462587779443310865 910.24739447737169940 0.635462587779443310865 415.77159099930145203
0.799999999999997157829 1005.33207805237202592 0.799999999999997157829 412.89803820990812255
1.007140329435330272645 1098.87433074278237655 1.007140329435330272645 404.73450947576543513
1.267914553968893187630 1189.85020022565845466 1.267914553968893187630 393.31075541529719430
1.596209851975103788391 1277.72175529742230538 1.596209851975103788391 380.66732553373429937
2.009509145207687197399 1362.38698567981305132 2.009509145207687197399 368.51690042625307342
2.529822128134711078928 1444.07091369918975943 2.529822128134711078928 358.03374857045804447
3.184857364427983839050 1523.17804106865901304 3.184857364427983839050 349.81165834212163190
4.009497869018190385759 1600.16401447557814208 4.009497869018190385759 343.95545401910777628
5.009497869018190385759 1672.97863211056960608 5.009497869018190385759 340.29418017106479510
6.009497869018190385759 1731.49374067634857965 6.009497869018190385759 338.53624562977591950
7.009497869018204596614 1780.34842751328756094 7.009497869018204596614 337.73166715123613812
8.009497869018190385759 1822.21786391289833773 8.009497869018190385759 337.52910097119462307
9.009497869018204596614 1858.82146501677425476 9.009497869018204596614 337.59137517242629656
10.009497869018190385759 1891.25599403369710672 10.009497869018190385759 337.67604588452644521
11.009497869018190385759 1920.37300141089849603 11.009497869018190385759 337.70107964403098322
12.009497869018190385759 1946.70780412604358389 12.009497869018190385759 337.96123860539984207
13.009497869018190385759 1970.71970569377094762 13.009497869018190385759 338.07761027309197743
14.009497869018204596614 1992.80139485301833702 14.009497869018204596614 338.13446779543687626
15.009497869018190385759 2013.16979482423835179 15.009497869018190385759 338.34807280473938818
16.009497869018190385759 2032.04949798492543778 16.009497869018190385759 338.34937108707617881
17.009497869018190385759 2049.65952657079560595 17.009497869018190385759 338.10013605488921939
18.009497869018190385759 2066.11023677941966525 18.009497869018190385759 338.18906757767462068
19.009497869018204596614 2081.50411287381211878 19.009497869018204596614 338.17640247346577098
20.009497869018190385759 2095.97724757161495290 20.009497869018190385759 338.18186632406337822
21.009497869018204596614 2109.67639522916670103 21.009497869018204596614 337.99238059236944309
22.009497869018190385759 2122.63658471469716460 22.009497869018190385759 337.90517426291467018
23.009497869018190385759 2134.90900937610831534 23.009497869018190385759 338.38220492348398238
24.009497869018190385759 2146.53074397610180313 24.009497869018190385759 338.44108003378596550
25.009497869018190385759 2157.58509878671065962 25.009497869018190385759 338.43204852529589743
26.009497869018204596614 2168.17074320411484223 26.009497869018204596614 338.60021969175573986
27.009497869018190385759 2178.29886208786729185 27.009497869018190385759 338.49708777919005342
28.009497869018190385759 2187.97723984107551587 28.009497869018190385759 338.61743250122032123
29.009497869018190385759 2197.23511610348941758 29.009497869018190385759 339.00778616634636364
30.009497869018190385759 2206.08557930798042435 30.009497869018190385759 339.02919457969181849
31.009497869018190385759 2214.57386006253864252 31.009497869018190385759 338.90519291962954185
32.009497869018190385759 2222.74763631312180223 32.009497869018190385759 338.75098880870604034
33.009497869018190385759 2230.62962915985553991 33.009497869018190385759 338.61449528591754188
34.009497869018190385759 2238.22044459123844717 34.009497869018190385759 338.34770623430102887
35.009497869018190385759 2245.52606386455045140 35.009497869018190385759 338.28375880330764858
36.009497869018190385759 2252.56555540168756124 36.009497869018190385759 338.27439769291862603
37.009497869018190385759 2259.34975569738344348 37.009497869018190385759 338.14793743000501536
38.009497869018190385759 2265.88652829872626171 38.009497869018190385759 337.84842933984248248
39.009497869018190385759 2272.20266425394174803 39.009497869018190385759 337.37696730833272341
40.009497869018190385759 2278.31966819879880859 40.009497869018190385759 336.72084204094551296
41.009497869018190385759 2284.25495222600738998 41.009497869018190385759 336.34378672766837326
42.009497869018190385759 2290.00344229943993923 42.009497869018190385759 335.63342831790981791
43.009497869018190385759 2295.56918225245999565 43.009497869018190385759 335.15891479112747220
44.009497869018218807469 2300.95343820327252615 44.009497869018218807469 334.73649966373807274
46.009497869018190385759 2311.22345510249579092 46.009497869018190385759 333.58965207264822084
48.009497869018190385759 2320.83013494714714398 48.009497869018190385759 332.41759521536806687
50.009497869018190385759 2329.88208123324784538 50.009497869018190385759 331.38392179526141490
52.009497869018190385759 2338.46937431041715172 52.009497869018190385759 330.65477248002048327
54.009497869018190385759 2346.60646409827631942 54.009497869018190385759 329.96348331931488929
56.009497869018190385759 2354.31110960272781085 56.009497869018190385759 329.66145206301877124
58.009497869018218807469 2361.63715594793893615 58.009497869018218807469 329.38764786743524837
60.009497869018190385759 2368.67050649794282435 60.009497869018190385759 329.00075698929475720
62.009497869018190385759 2375.38830676222323746 62.009497869018190385759 328.55858458649856857
64.009497869018190385759 2381.81287264396314640 64.009497869018190385759 328.19855813729964211
66.009497869018190385759 2387.95915152165935069 66.009497869018190385759 327.80169185331664039
68.009497869018190385759 2393.83576349320446752 68.009497869018190385759 326.98412406220290904
70.009497869018190385759 2399.44257143217964767 70.009497869018190385759 326.34819471093516086
72.009497869018218807469 2404.81271947276445644 72.009497869018218807469 324.64876701352466171
74.009497869018190385759 2409.97205543985455733 74.009497869018190385759 323.15278299485953539
76.009497869018190385759 2414.93974932842866110 76.009497869018190385759 321.90458948068351219
78.009497869018190385759 2419.70780232843299018 78.009497869018190385759 320.26662850026991691
80.009497869018190385759 2424.27618227610128088 80.009497869018190385759 319.18741334152230138
82.009497869018218807469 2428.64936563303990624 82.009497869018218807469 318.19299187403163387
84.009497869018190385759 2432.84217706890422050 84.009497869018190385759 316.79720757039638102
86.009497869018190385759 2436.82030947405883126 86.009497869018190385759 315.26632037914049533
88.009497869018190385759 2440.62564138250627366 88.009497869018190385759 314.28227440049153074
91.009497869018218807469 2446.08044812465186624 91.009497869018218807469 313.42029893258188622
94.009497869018190385759 2451.30618376655638713 94.009497869018190385759 312.86208851898419425
97.009497869018190385759 2456.32065910544224607 97.009497869018190385759 312.84076200451642080
99.504748934509109403734 2460.32822237165510160 99.504748934509109403734 305.46097040467236639
nan nan nan nan

