Time Pressure difference Time.1 Pressure.1 difference.1
(hr) (psi) (hr) (psi)
0.000200000000006639311 0.21098729438445352 0.000200000000006639311 0.16849289200048823
0.000399999999999067768 0.42123037566500415 0.000399999999999067768 0.43814215989344668
0.000600000000005707079 0.63085859505691999 0.000600000000005707079 0.63970327795221082
0.000799999999998135536 0.83993176400753933 0.000799999999998135536 0.84411606580940191
0.001007140329434719206 1.05592383925559252 0.001007140329434719206 1.05788273298680768
0.001267914553963578328 1.32709968775141207 0.001267914553963578328 1.32777773763065898
0.001596209851982166583 1.66738006028698726 0.001596209851982166583 1.66556759012904210
0.002009509145210586212 2.09410923793966486 0.002009509145210586212 2.08785846883860149
0.002529822128138903281 2.62885442349825693 0.002529822128138903281 2.61508256400291383
0.003184857364445292660 3.29836773967149943 0.003184857364445292660 3.27226423703820135
0.004009497869020606231 4.13573814026673769 0.004009497869020606231 4.08987850666533337
0.005047658755842121536 5.18174827806329485 0.005047658755842121536 5.10477980698632017
0.006354625877804664924 6.48645339013557010 0.006354625877804664924 6.36115625951549468
0.008000000000009777068 8.11097650242928303 0.008000000000009777068 7.91142617329134090
0.010071403294347192059 10.12949846847086377 0.010071403294347192059 9.81694828756937810
0.012679145539692626699 12.63137769888107620 0.012679145539692626699 12.14831905965676029
0.015962098519750611558 15.72327331367247361 0.015962098519750611558 14.98496853433607789
0.020095091452091651263 19.53107320775711386 0.020095091452091651263 18.41365086399498097
0.025298221281346400247 24.20131406131412888 0.025298221281346400247 22.52525007692402781
0.031848573644282396344 29.90162713167169528 0.031848573644282396344 27.40919767800088636
0.040094978690191851456 36.81957201707851368 0.040094978690191851456 33.14466106952515645
0.050476587558421215363 45.15900415087514830 0.050476587558421215363 39.78835384734894376
0.063546258777947173257 55.13326918147359379 0.063546258777947173257 47.35729263381453791
0.079999999999998294697 66.95359961711682217 0.079999999999998294697 55.80791720811315315
0.100714032943542974863 80.81266194696024741 0.100714032943542974863 65.01430393146459608
0.126791455396897845276 96.86289263814754236 0.126791455396897845276 74.74458779121664520
0.159620985197506115583 115.18917610652880512 0.159620985197506115583 84.65075040946408080
0.200950914520774404082 135.78249180062087476 0.200950914520774404082 94.27127864556459258
0.252982212813464002465 158.51387634744006050 0.252982212813464002465 103.06499054667634141
0.318485736442795541734 183.12374617819688183 0.318485736442795541734 110.47491094650305854
0.400949786901819038576 209.22540967802197542 0.400949786901819038576 116.01949459751214988
0.504765875584169521062 236.33650761084291503 0.504765875584169521062 119.39607394361168247
0.635462587779443310865 263.93018059047074075 0.635462587779443310865 120.55477638564221365
0.799999999999997157829 291.50039706084760383 0.799999999999997157829 119.72157728917424890
1.007140329435330272645 318.62337900532736512 1.007140329435330272645 117.35452672014201880
1.267914553968893187630 345.00222700606991566 1.267914553968893187630 114.04215967521173525
1.596209851975103788391 370.48096557710647403 1.596209851975103788391 110.37614233512387329
2.009509145207687197399 395.03001639574495130 2.009509145207687197399 106.85307386788618089
2.529822128134711078928 418.71462566163722840 2.529822128134711078928 103.81343851243875065
3.184857364427983839050 441.65208040118648114 3.184857364427983839050 101.42940778413115765
4.009497869018190385759 463.97449734794162168 4.009497869018190385759 99.73137593704723258
5.009497869018190385759 485.08741159370396190 5.009497869018190385759 98.66977370256900315
6.009497869018190385759 502.05412115501434300 6.009497869018190385759 98.16005295657886620
7.009497869018204596614 516.21974953010851550 7.009497869018204596614 97.92676193654564543
8.009497869018190385759 528.35997423958463060 8.009497869018190385759 97.86802699393085447
9.009497869018204596614 538.97334716239799945 9.009497869018204596614 97.88608366871721955
10.009497869018190385759 548.37787954858345074 10.009497869018190385759 97.91063430898370257
11.009497869018190385759 556.82048214425594779 11.009497869018190385759 97.91789295614597677
12.009497869018190385759 564.45637242924101429 12.009497869018190385759 97.99332717553831174
13.009497869018190385759 571.41872745002035572 13.009497869018190385759 98.02706964539424916
14.009497869018204596614 577.82140900989338661 14.009497869018204596614 98.04355573064037799
15.009497869018190385759 583.72731493762159971 15.009497869018190385759 98.10549142968470449
16.009497869018190385759 589.20156676731858170 16.009497869018190385759 98.10586787228008632
17.009497869018190385759 594.30767094632665248 17.009497869018190385759 98.03360109354092344
18.009497869018190385759 599.07762573284549035 18.009497869018190385759 98.05938717434858631
19.009497869018204596614 603.54114688350261986 19.009497869018204596614 98.05571487244326079
20.009497869018190385759 607.73769507213489760 20.009497869018190385759 98.05729913962568389
21.009497869018204596614 611.70982236096824636 21.009497869018204596614 98.00235692975094537
22.009497869018190385759 615.46768552229809757 22.009497869018190385759 97.97707107623324418
23.009497869018190385759 619.02612828941960288 23.009497869018190385759 98.11538818557640695
24.009497869018190385759 622.39590065060485813 24.009497869018190385759 98.13245927920279144
25.009497869018190385759 625.60115878062163119 25.009497869018190385759 98.12984055413829765
26.009497869018204596614 628.67051229890989816 26.009497869018204596614 98.17860251336296074
27.009497869018190385759 631.60720430401624981 27.009497869018190385759 98.14869896793867099
28.009497869018190385759 634.41349191738936497 28.009497869018190385759 98.18359344213465079
29.009497869018190385759 637.09785329941360033 29.009497869018190385759 98.29677818065293593
30.009497869018190385759 639.66408349797609389 30.009497869018190385759 98.30298564297000041
31.009497869018190385759 642.12529732406937910 31.009497869018190385759 98.26703082372819154
32.009497869018190385759 644.49531920494621318 32.009497869018190385759 98.22231867284399698
33.009497869018190385759 646.78073722214992358 33.009497869018190385759 98.18274178381626882
34.009497869018190385759 648.98172708467416214 34.009497869018190385759 98.10538514099596341
35.009497869018190385759 651.10002308401351456 35.009497869018190385759 98.08684330598188694
36.009497869018190385759 653.14115419181348443 36.009497869018190385759 98.08412901141704765
37.009497869018190385759 655.10826249672993526 37.009497869018190385759 98.04746130961332540
38.009497869018190385759 657.00362806835209994 38.009497869018190385759 97.96061763963469105
39.009497869018190385759 658.83501908733023811 39.009497869018190385759 97.82391517844351370
40.009497869018190385759 660.60867091609009094 40.009497869018190385759 97.63366881095907956
41.009497869018190385759 662.32963226644505994 41.009497869018190385759 97.52433998724630726
42.009497869018190385759 663.99643189960931977 42.009497869018190385759 97.31836848487338898
43.009497869018190385759 665.61024234260833055 43.009497869018190385759 97.18078122939083130
44.009497869018218807469 667.17143071190776027 44.009497869018218807469 97.05830013080988294
46.009497869018190385759 670.14926666213921180 46.009497869018190385759 96.72576669686375794
48.009497869018190385759 672.93476515590793952 48.009497869018190385759 96.38592372683046960
50.009497869018190385759 675.55941624799640977 50.009497869018190385759 96.08620563469909825
52.009497869018190385759 678.04933912653643802 52.009497869018190385759 95.87478562776848889
54.009497869018190385759 680.40872360840432975 54.009497869018190385759 95.67434333687897663
56.009497869018190385759 682.64271899439825120 56.009497869018190385759 95.58676806393467018
58.009497869018218807469 684.76693791184527527 58.009497869018218807469 95.50737734969013104
60.009497869018190385759 686.80628841378711513 60.009497869018190385759 95.39519666127952746
62.009497869018190385759 688.75414374155786845 62.009497869018190385759 95.26698685498932662
64.009497869018190385759 690.61697448808979516 64.009497869018190385759 95.16259562428551533
66.009497869018190385759 692.39911471061805059 66.009497869018190385759 95.04752252367856613
68.009497869018190385759 694.10306384392004020 68.009497869018190385759 94.81046519611818724
70.009497869018190385759 695.72878212759553662 70.009497869018190385759 94.62607472212047810
72.009497869018218807469 697.28587984712578418 72.009497869018218807469 94.13331828930965628
74.009497869018190385759 698.78185169146468070 74.009497869018190385759 93.69955123366932526
76.009497869018190385759 700.22225608381370421 76.009497869018190385759 93.33763210969588897
78.009497869018190385759 701.60477373449998595 78.009497869018190385759 92.86269821811478664
80.009497869018190385759 702.92939531749982507 80.009497869018190385759 92.54977510130898111
82.009497869018218807469 704.19741880227411457 82.009497869018218807469 92.26143828310964068
84.009497869018190385759 705.41314266609776951 84.009497869018190385759 91.85672456949851039
86.009497869018190385759 706.56661941371100966 86.009497869018190385759 91.41283718755899201
88.009497869018190385759 707.66999190771298345 88.009497869018190385759 91.12750878735711524
91.009497869018218807469 709.25163678500177866 91.009497869018218807469 90.87757526127374774
94.009497869018190385759 710.76686150308830747 94.009497869018190385759 90.71571973039040415
97.009497869018190385759 712.22083037988852539 97.009497869018190385759 90.70953601500816887
99.504748934509109403734 713.38284073333386459 99.504748934509109403734 88.56973342783878422
nan nan nan nan

