Time Pressure difference Time.1 Pressure.1 difference.1
(hr) (psi) (hr) (psi)
0.000200000000006639311 0.08140454665226947 0.000200000000006639311 0.06500906856711751
0.000399999999999067768 0.16252195596523783 0.000399999999999067768 0.16904697507699909
0.000600000000005707079 0.24340213510070138 0.000600000000005707079 0.24681465054849078
0.000799999999998135536 0.32406816091629470 0.000799999999998135536 0.32568257657213145
0.001007140329434719206 0.40740368601200033 0.001007140329434719206 0.40815947965632732
0.001267914553963578328 0.51203058818755265 0.001267914553963578328 0.51229219798348269
0.001596209851982166583 0.64331986578001865 0.001596209851982166583 0.64262056627026032
0.002009509145210586212 0.80796340676412270 0.002009509145210586212 0.80555169270150762
0.002529822128138903281 1.01428241536546926 0.002529822128138903281 1.00896886327671487
0.003184857364445292660 1.27259857672364940 0.003184857364445292660 1.26252714657379417
0.004009497869020606231 1.59567849506354431 0.004009497869020606231 1.57798462068190015
0.005047658755842121536 1.99925720964646803 0.005047658755842121536 1.96956071293172985
0.006354625877804664924 2.50264737099718815 0.006354625877804664924 2.45430438359259240
0.008000000000009777068 3.12943187889003793 0.008000000000009777068 3.05244001961634392
0.010071403294347192059 3.90823169255962455 0.010071403294347192059 3.78764146528267309
0.012679145539692626699 4.87352367909584849 0.012679145539692626699 4.68714672380457564
0.015962098519750611558 6.06645978244056128 0.015962098519750611558 5.78160203293281683
0.020095091452091651263 7.53561092267794042 0.020095091452091651263 7.10447946721066259
0.025298221281346400247 9.33751487405033487 0.025298221281346400247 8.69084451786832446
0.031848573644282396344 11.53684826340088954 0.031848573644282396344 10.57520225371687772
0.040094978690191851456 14.20597660501454484 0.040094978690191851456 12.78809757800576996
0.050476587558421215363 17.42355278262111895 0.050476587558421215363 15.35141211433148278
0.063546258777947173257 21.27189125899374744 0.063546258777947173257 18.27171133115679424
0.079999999999998294697 25.83249119085609635 0.079999999999998294697 21.53218852911452430
0.100714032943542974863 31.17968846772482294 0.100714032943542974863 25.08425899717925134
0.126791455396897845276 37.37229715960022958 0.126791455396897845276 28.83846300605997115
0.159620985197506115583 44.44306794661347482 0.159620985197506115583 32.66052574853338797
0.200950914520774404082 52.38852045850727279 0.200950914520774404082 36.37238309946980763
0.252982212813464002465 61.15889717342174947 0.252982212813464002465 39.76523257312709347
0.318485736442795541734 70.65404380103659321 0.318485736442795541734 42.62417823920196724
0.400949786901819038576 80.72476436396122779 0.400949786901819038576 44.76342704943382245
0.504765875584169521062 91.18495175536459385 0.504765875584169521062 46.06620175777143800
0.635462587779443310865 101.83132951915800390 0.635462587779443310865 46.51326018028714770
0.799999999999997157829 112.46865713371285267 0.799999999999997157829 46.19178966275227083
1.007140329435330272645 122.93342969496882233 1.007140329435330272645 45.27851818336188217
1.267914553968893187630 133.11109545903485696 1.267914553968893187630 44.00051829988484542
1.596209851975103788391 142.94147490770251352 1.596209851975103788391 42.58607066473283709
2.009509145207687197399 152.41315593221654012 2.009509145207687197399 41.22677653170411105
2.529822128134711078928 161.55131226315137383 2.529822128134711078928 40.05400383550786358
3.184857364427983839050 170.40119637526092333 3.184857364427983839050 39.13418095608209768
4.009497869018190385759 179.01378244133178441 4.009497869018190385759 38.47903481035680784
5.009497869018190385759 187.15970998497238043 5.009497869018190385759 38.06944024744788635
6.009497869018190385759 193.70592076059608644 6.009497869018190385759 37.87277633757766893
7.009497869018204596614 199.17139942500244842 7.009497869018204596614 37.78276641646249345
8.009497869018190385759 203.85542313180823726 8.009497869018190385759 37.76010490317017343
9.009497869018204596614 207.95034654297245424 9.009497869018204596614 37.76707165170978442
10.009497869018190385759 211.57886691244556232 10.009497869018190385759 37.77654394598584275
11.009497869018190385759 214.83624901628772363 11.009497869018190385759 37.77934452638702822
12.009497869018190385759 217.78237991364417780 12.009497869018190385759 37.80844906772738057
13.009497869018190385759 220.46864287441732699 13.009497869018190385759 37.82146781593951346
14.009497869018204596614 222.93896883058883418 14.009497869018204596614 37.82782858898723077
15.009497869018190385759 225.21762544837366704 15.009497869018190385759 37.85172503979961078
16.009497869018190385759 227.32973835904417115 16.009497869018190385759 37.85187028143089805
17.009497869018190385759 229.29981005015753226 17.009497869018190385759 37.82398782349216759
18.009497869018190385759 231.14018630637343676 18.009497869018190385759 37.83393678380378589
19.009497869018204596614 232.86233226213877856 19.009497869018204596614 37.83251991141511894
20.009497869018190385759 234.48147290184735425 20.009497869018190385759 37.83313116410754873
21.009497869018204596614 236.01402595029486520 21.009497869018204596614 37.81193298864406671
22.009497869018190385759 237.46391016214650449 22.009497869018190385759 37.80217702941282454
23.009497869018190385759 238.83685264709887974 23.009497869018190385759 37.85554347317514612
24.009497869018190385759 240.13700103842234057 24.009497869018190385759 37.86212995811761317
25.009497869018190385759 241.37367543504296918 25.009497869018190385759 37.86111958388013221
26.009497869018204596614 242.55791419406759246 26.009497869018204596614 37.87993325318728211
27.009497869018190385759 243.69096858973853159 27.009497869018190385759 37.86839566479523711
28.009497869018190385759 244.77370947993762229 28.009497869018190385759 37.88185888712281724
29.009497869018190385759 245.80940796591548292 29.009497869018190385759 37.92552858938577742
30.009497869018190385759 246.79952827874669197 30.009497869018190385759 37.92792359453173390
31.009497869018190385759 247.74913046361729130 31.009497869018190385759 37.91405126269827974
32.009497869018190385759 248.66354835466427176 32.009497869018190385759 37.89680011786894198
33.009497869018190385759 249.54532381012083420 33.009497869018190385759 37.88153029454328902
34.009497869018190385759 250.39452462322074666 34.009497869018190385759 37.85168403077796739
35.009497869018190385759 251.21181993005248501 35.009497869018190385759 37.84453009443395644
36.009497869018190385759 251.99934295589653743 36.009497869018190385759 37.84348284692468667
37.009497869018190385759 252.75830600267531167 37.009497869018190385759 37.82933546591380036
38.009497869018190385759 253.48958878227762170 38.009497869018190385759 37.79582885308740003
39.009497869018190385759 254.19618846676516455 39.009497869018190385759 37.74308538380891775
40.009497869018190385759 254.88051082589302609 40.009497869018190385759 37.66968324202358076
41.009497869018190385759 255.54450378784099485 41.009497869018190385759 37.62750125492180331
42.009497869018190385759 256.18759970929806968 42.009497869018190385759 37.54803193510862513
43.009497869018190385759 256.81025098258118078 43.009497869018190385759 37.49494708850512126
44.009497869018218807469 257.41259925105106277 44.009497869018218807469 37.44769060165105401
46.009497869018190385759 258.56152808224271666 46.009497869018190385759 37.31939030036475913
48.009497869018190385759 259.63624797353929807 48.009497869018190385759 37.18826978436766240
50.009497869018190385759 260.64890863111679664 50.009497869018190385759 37.07263052047444774
52.009497869018190385759 261.60958753701009982 52.009497869018190385759 36.99105902173745619
54.009497869018190385759 262.51990123473865424 54.009497869018190385759 36.91372301974070780
56.009497869018190385759 263.38183646240560165 56.009497869018190385759 36.87993413490392669
58.009497869018218807469 264.20141698960958365 58.009497869018218807469 36.84930307192768595
60.009497869018190385759 264.98825301004382027 60.009497869018190385759 36.80602075907635395
62.009497869018190385759 265.73978774280578818 62.009497869018190385759 36.75655398342107816
64.009497869018190385759 266.45851771587717849 64.009497869018190385759 36.71627705188968349
66.009497869018190385759 267.14611512456912124 66.009497869018190385759 36.67187876897833831
68.009497869018190385759 267.80354431773292845 68.009497869018190385759 36.58041570558890498
70.009497869018190385759 268.43078995474155590 70.009497869018190385759 36.50927292428270476
72.009497869018218807469 269.03155994101700799 72.009497869018218807469 36.31915430059979144
74.009497869018190385759 269.60874592820289308 74.009497869018190385759 36.15179535787241605
76.009497869018190385759 270.16449250477853639 76.009497869018190385759 36.01215727067007322
78.009497869018190385759 270.69790482669685616 78.009497869018190385759 35.82891506053247355
80.009497869018190385759 271.20897929572828389 80.009497869018190385759 35.70818094459952619
82.009497869018218807469 271.69821670323966600 82.009497869018218807469 35.59693288088482177
84.009497869018190385759 272.16727551684084574 84.009497869018190385759 35.44078349531832117
86.009497869018190385759 272.61231772654991801 86.009497869018190385759 35.26951985976685222
88.009497869018190385759 273.03802837384199620 88.009497869018190385759 35.15943252425589804
91.009497869018218807469 273.64826931074873073 91.009497869018218807469 35.06300147875916906
94.009497869018190385759 274.23288357205768762 94.009497869018190385759 35.00055328180416581
97.009497869018190385759 274.79386368987826472 97.009497869018190385759 34.99816743886142234
99.504748934509109403734 275.24219839317601100 99.504748934509109403734 34.17257431467795925
nan nan nan nan

