Time Pressure difference Time.1 Pressure.1 difference.1
(hr) (psi) (hr) (psi)
0.000200000000006639311 0.72350367483802758 0.000200000000006639311 0.57778468083631984
0.000399999999999067768 1.44445534332369552 0.000399999999999067768 1.50244811522516541
0.000600000000005707079 2.16329856808888721 0.000600000000005707079 2.19362816967076979
0.000799999999998135536 2.88023845059278250 0.000799999999998135536 2.89458698157476002
0.001007140329434719206 3.62090418894339106 0.001007140329434719206 3.62762149776184817
0.001267914553963578328 4.55080247256488146 0.001267914553963578328 4.55312759636340214
0.001596209851982166583 5.71766941933057460 0.001596209851982166583 5.71145421654486452
0.002009509145210586212 7.18098089073011003 0.002009509145210586212 7.15954616676543942
0.002529822128138903281 9.01469371207473102 0.002529822128138903281 8.96746816238794509
0.003184857364445292660 11.31054449312549615 0.003184857364445292660 11.22103208842627353
0.004009497869020606231 14.18199968571782854 0.004009497869020606231 14.02474086340750148
0.005047658755842121536 17.76890846532728574 0.005047658755842121536 17.50497327513813062
0.006354625877804664924 22.24291694018929633 0.006354625877804664924 21.81325630723620534
0.008000000000009777068 27.81362414809411376 0.008000000000009777068 27.12933935801873275
0.010071403294347192059 34.73540616550441484 0.010071403294347192059 33.66362975776743838
0.012679145539692626699 43.31468494380084877 0.012679145539692626699 41.65821220850801865
0.015962098519750611558 53.91720888271152035 0.015962098519750611558 51.38546296616819831
0.020095091452091651263 66.97466442502536665 0.020095091452091651263 63.14287363204578440
0.025298221281346400247 82.98954546222286410 0.025298221281346400247 77.24209770472766934
0.031848573644282396344 102.53668201451198172 0.031848573644282396344 93.98980778558572524
0.040094978690191851456 126.25924105069050540 0.040094978690191851456 113.65747949431657560
0.050476587558421215363 154.85627013941831365 0.050476587558421215363 136.43959134268081357
0.063546258777947173257 189.05936006717914211 0.063546258777947173257 162.39449560650578519
0.079999999999998294697 229.59285537995569371 0.079999999999998294697 191.37281845774234057
0.100714032943542974863 277.11743525906445029 0.100714032943542974863 222.94275088309314015
0.126791455396897845276 332.15582475522245431 0.126791455396897845276 256.30919671712484842
0.159620985197506115583 394.99910389286054624 0.159620985197506115583 290.27875435686303263
0.200950914520774404082 465.61633999346764767 0.200950914520774404082 323.26883346569593414
0.252982212813464002465 543.56530038826895179 0.252982212813464002465 353.42364868564993685
0.318485736442795541734 627.95583827247833142 0.318485736442795541734 378.83325761576440982
0.400949786901819038576 717.46193633683913049 0.400949786901819038576 397.84637714343733705
0.504765875584169521062 810.42952019308734180 0.504765875584169521062 409.42511970427472079
0.635462587779443310865 905.05191848149627276 0.635462587779443310865 413.39846547989907322
0.799999999999997157829 999.59388125983571172 0.799999999999997157829 410.54131424752273460
1.007140329435330272645 1092.60221698283498881 1.007140329435330272645 402.42438099702246745
1.267914553968893187630 1183.05881780427898775 1.267914553968893187630 391.06583101224180155
1.596209851975103788391 1270.42882290417219338 1.596209851975103788391 378.49456682634996696
2.009509145207687197399 1354.61080425470004229 2.009509145207687197399 366.41349346034979817
2.529822128134711078928 1435.82849980821265490 2.529822128134711078928 355.99017694619743679
3.184857364427983839050 1514.48410247808442364 3.184857364427983839050 347.81501645660722488
4.009497869018190385759 1591.03065822857138301 4.009497869018190385759 341.99223795735485965
5.009497869018190385759 1663.42966731541787340 5.009497869018190385759 338.35186179109291515
6.009497869018190385759 1721.61078553550191828 6.009497869018190385759 336.60396112275668656
7.009497869018204596614 1770.18662142017478800 7.009497869018204596614 335.80397498713085724
8.009497869018190385759 1811.81707701841833114 8.009497869018190385759 335.60256500674717017
9.009497869018204596614 1848.21175345845927041 9.009497869018204596614 335.66448376162475142
10.009497869018190385759 1880.46115388510270350 10.009497869018190385759 335.74867119340478894
11.009497869018190385759 1909.41196829782256827 11.009497869018190385759 335.77356206615411338
12.009497869018190385759 1935.59645821208255256 12.009497869018190385759 336.03223610194436333
13.009497869018190385759 1959.47130554711702644 13.009497869018190385759 336.14794354778894103
14.009497869018204596614 1981.42695766778410871 14.009497869018204596614 336.20447654089673506
15.009497869018190385759 2001.67909964830050740 15.009497869018190385759 336.41686234352511065
16.009497869018190385759 2020.45104194619830196 16.009497869018190385759 336.41815321557459129
17.009497869018190385759 2037.96055667027781055 17.009497869018190385759 336.17034075777223734
18.009497869018190385759 2054.31737013113524881 18.009497869018190385759 336.25876468054184443
19.009497869018204596614 2069.62338163594768048 19.009497869018204596614 336.24617186574050720
20.009497869018190385759 2084.01390711743943029 20.009497869018190385759 336.25160452997630500
21.009497869018204596614 2097.63486329292709343 21.009497869018204596614 336.06320033784675161
22.009497869018190385759 2110.52107909417918563 22.009497869018190385759 335.97649176141402450
23.009497869018190385759 2122.72345566962394514 23.009497869018190385759 336.45079964424030550
24.009497869018190385759 2134.27885616801904689 24.009497869018190385759 336.50933870939218195
25.009497869018190385759 2145.27011534614712218 25.009497869018190385759 336.50035875060808621
26.009497869018204596614 2155.79533941870295166 26.009497869018204596614 336.66757003598087294
27.009497869018190385759 2165.86564940471726004 27.009497869018190385759 336.56502677588417782
28.009497869018190385759 2175.48878527577198838 28.009497869018190385759 336.68468459881603394
29.009497869018190385759 2184.69381977869761613 29.009497869018190385759 337.07281021790822706
30.009497869018190385759 2193.49376664069768594 30.009497869018190385759 337.09409643711364879
31.009497869018190385759 2201.93359830419058198 31.009497869018190385759 336.97080254908371444
32.009497869018190385759 2210.06072058074096276 32.009497869018190385759 336.81747859861070538
33.009497869018190385759 2217.89772488382914162 33.009497869018190385759 336.68176414844083411
34.009497869018190385759 2225.44521374311534601 34.009497869018190385759 336.41649786538380340
35.009497869018190385759 2232.70913427628283898 35.009497869018190385759 336.35291543114260548
36.009497869018190385759 2239.70844606720311276 36.009497869018190385759 336.34360775174894798
37.009497869018190385759 2246.45392375847177391 37.009497869018190385759 336.21786929398899701
38.009497869018190385759 2252.95338601391586053 38.009497869018190385759 335.92007072488905806
39.009497869018190385759 2259.23347096482120833 39.009497869018190385759 335.45129968670983089
40.009497869018190385759 2265.31556050360086374 40.009497869018190385759 334.79891942655649473
41.009497869018190385759 2271.21696733887301889 41.009497869018190385759 334.42401625547847743
42.009497869018190385759 2276.93264639590415754 42.009497869018190385759 333.71771240285323756
43.009497869018190385759 2282.46661842681805865 43.009497869018190385759 333.24590728661183903
44.009497869018218807469 2287.82014232311667001 44.009497869018218807469 332.82590320447013710
46.009497869018190385759 2298.03154040442223049 46.009497869018190385759 331.68560154711940413
48.009497869018190385759 2307.58338760155811542 48.009497869018190385759 330.52023451208401639
50.009497869018190385759 2316.58366752757865470 50.009497869018190385759 329.49246105442091448
52.009497869018190385759 2325.12194637485526982 52.009497869018190385759 328.76747355034001430
54.009497869018190385759 2333.21259158629982267 54.009497869018190385759 328.08013010402197551
56.009497869018190385759 2340.87326080362527136 56.009497869018190385759 327.77982277042161741
58.009497869018218807469 2348.15749181581577432 58.009497869018218807469 327.50758138417364762
60.009497869018190385759 2355.15069767089971720 60.009497869018190385759 327.12289878730109649
62.009497869018190385759 2361.83015432636602782 62.009497869018190385759 326.68325019958933808
64.009497869018190385759 2368.21805031152052834 64.009497869018190385759 326.32527869587670466
66.009497869018190385759 2374.32924768877273891 66.009497869018190385759 325.93067763040954787
68.009497869018190385759 2380.17231735454470254 68.009497869018190385759 325.11777632212186973
70.009497869018190385759 2385.74712296510097076 70.009497869018190385759 324.48547670459419123
72.009497869018218807469 2391.08661947577365936 72.009497869018218807469 322.79574893696343452
74.009497869018190385759 2396.21650717821148646 74.009497869018190385759 321.30830363986603970
76.009497869018190385759 2401.15584664961306771 76.009497869018190385759 320.06723451789417823
78.009497869018190385759 2405.89668473523443026 78.009497869018190385759 318.43862262983458322
80.009497869018190385759 2410.43898945489081598 80.009497869018190385759 317.36556737496113101
82.009497869018218807469 2414.78721171960933134 82.009497869018218807469 316.37682182908861250
84.009497869018190385759 2418.95609158335128086 84.009497869018190385759 314.98900433083935013
86.009497869018190385759 2422.91151775331627505 86.009497869018190385759 313.46685508017276334
88.009497869018190385759 2426.69512973077962670 88.009497869018190385759 312.48842580231519150
91.009497869018218807469 2432.11880173124609428 91.009497869018218807469 311.63137028570639586
94.009497869018190385759 2437.31471011492067191 94.009497869018190385759 311.07634600460647789
97.009497869018190385759 2442.30056401922365694 97.009497869018190385759 311.05514121681937922
99.504748934509109403734 2446.28525306588107924 99.504748934509109403734 303.71747171514795127
nan nan nan nan

