Time Pressure difference Time.1 Pressure.1 difference.1
(hr) (psi) (hr) (psi)
0.000200000000006639311 0.76503660680347130 0.000200000000006639311 0.61095257296240024
0.000399999999999067768 1.52737470861208213 0.000399999999999067768 1.58869657189710378
0.000600000000005707079 2.28748333089536704 0.000600000000005707079 2.31955401178734677
0.000799999999998135536 3.04557934901946359 0.000799999999998135536 3.06075156145850080
0.001007140329434719206 3.82876321241890150 0.001007140329434719206 3.83586613023956602
0.001267914553963578328 4.81204256857893942 0.001267914553963578328 4.81450116676313744
0.001596209851982166583 6.04589384064691071 0.001596209851982166583 6.03932185239703845
0.002009509145210586212 7.59320711867098908 0.002009509145210586212 7.57054192834784168
0.002529822128138903281 9.53218474032241936 0.002529822128138903281 9.48224819467198365
0.003184857364445292660 11.95982948124980716 0.003184857364445292660 11.86517859178024992
0.004009497869020606231 14.99612136687269981 0.004009497869020606231 14.82983505763296073
0.005047658755842121536 18.78893765392242088 0.005047658755842121536 18.50985118989921574
0.006354625877804664924 23.51977784375929303 0.006354625877804664924 23.06545242131405615
0.008000000000009777068 29.41027306589515433 0.008000000000009777068 28.68670671496584745
0.010071403294347192059 36.72940192701442896 0.010071403294347192059 35.59609989311574196
0.012679145539692626699 45.80117661680893804 0.012679145539692626699 44.04961359820423183
0.015962098519750611558 57.01234142477302669 0.015962098519750611558 54.33525992174617159
0.020095091452091651263 70.81936387537125199 0.020095091452091651263 66.76760805409205091
0.025298221281346400247 87.75358366326895521 0.025298221281346400247 81.67620205057885130
0.031848573644282396344 108.42282908767570859 0.031848573644282396344 99.38531913952290608
0.040094978690191851456 133.50718829814690025 0.040094978690191851456 120.18201907493175895
0.050476587558421215363 163.74583788565357167 0.050476587558421215363 144.27194446223771251
0.063546258777947173257 199.91236581156371699 0.063546258777947173257 171.71679730607556280
0.079999999999998294697 242.77269782427001132 0.079999999999998294697 202.35862893178037325
0.100714032943542974863 293.02543957933227148 0.100714032943542974863 235.74084220818460267
0.126791455396897845276 351.22332330603893524 0.126791455396897845276 271.02269825082890975
0.159620985197506115583 417.67413855950007928 0.159620985197506115583 306.94228790203317203
0.200950914520774404082 492.34517696209377391 0.200950914520774404082 341.82617178175189565
0.252982212813464002465 574.76881935430037629 0.252982212813464002465 373.71203265153116035
0.318485736442795541734 664.00381980361942169 0.318485736442795541734 400.58028732964299934
0.400949786901819038576 758.64804060416622633 0.400949786901819038576 420.68486033192397144
0.504765875584169521062 856.95245476215097824 0.504765875584169521062 432.92828386640297822
0.635462587779443310865 957.00667844025031172 0.635462587779443310865 437.12972067392308873
0.799999999999997157829 1056.97584918519919484 0.799999999999997157829 434.10855387137593198
1.007140329435330272645 1155.32335458230886616 1.007140329435330272645 425.52566578445197365
1.267914553968893187630 1250.97264201807229256 1.267914553968893187630 413.51507504279533123
1.596209851975103788391 1343.35814683667354075 1.596209851975103788391 400.22215390019323422
2.009509145207687197399 1432.37261850583104206 2.009509145207687197399 387.44756311938255067
2.529822128134711078928 1518.25263871798370019 2.529822128134711078928 376.42589318880351357
3.184857364427983839050 1601.42348838382986287 3.184857364427983839050 367.78143531175118142
4.009497869018190385759 1682.36422069863851902 4.009497869018190385759 361.62439857488385542
5.009497869018190385759 1758.91931526693451815 5.009497869018190385759 357.77504559081125990
6.009497869018190385759 1820.44033694396944156 6.009497869018190385759 355.92680619294935696
7.009497869018204596614 1871.80468235129865207 7.009497869018204596614 355.08089662818321131
8.009497869018190385759 1915.82494596321839708 8.009497869018190385759 354.86792465122175599
9.009497869018204596614 1954.30886904160843187 9.009497869018204596614 354.93339786963997540
10.009497869018190385759 1988.40955537104446194 10.009497869018190385759 355.02241810462197691
11.009497869018190385759 2019.02229942858161849 11.009497869018190385759 355.04873784492298228
12.009497869018190385759 2046.70991735169673120 12.009497869018190385759 355.32226113649915078
13.009497869018190385759 2071.95530701365669302 13.009497869018190385759 355.44461080081930504
14.009497869018204596614 2095.17132952012525493 14.009497869018204596614 355.50438908629837442
15.009497869018190385759 2116.58605140767485864 15.009497869018190385759 355.72896695566777225
16.009497869018190385759 2136.43560233346624955 16.009497869018190385759 355.73033193059035284
17.009497869018190385759 2154.95025567546008460 17.009497869018190385759 355.46829372894165999
18.009497869018190385759 2172.24603661397941323 18.009497869018190385759 355.56179365187028907
19.009497869018204596614 2188.43069401458978973 19.009497869018204596614 355.54847794299308816
20.009497869018190385759 2203.64731165919783962 20.009497869018190385759 355.55422247084743503
21.009497869018204596614 2218.05018265532225996 21.009497869018204596614 355.35500288307332539
22.009497869018190385759 2231.67613529935624683 22.009497869018190385759 355.26331677642053819
23.009497869018190385759 2244.57899273446992083 23.009497869018190385759 355.76485243667667646
24.009497869018190385759 2256.79773424884706401 24.009497869018190385759 355.82675195332979001
25.009497869018190385759 2268.41994975178158711 25.009497869018190385759 355.81725649748574369
26.009497869018204596614 2279.54937727281912885 26.009497869018204596614 355.99406659372942840
27.009497869018190385759 2290.19777623621666862 27.009497869018190385759 355.88563680894293384
28.009497869018190385759 2300.37333092880180629 28.009497869018190385759 356.01216362285828154
29.009497869018190385759 2310.10678302661381167 29.009497869018190385759 356.42256970228874025
30.009497869018190385759 2319.41189331352734371 30.009497869018190385759 356.44507786289511841
31.009497869018190385759 2328.33621588766891364 31.009497869018190385759 356.31470625454198853
32.009497869018190385759 2336.92987790454890273 32.009497869018190385759 356.15258069956422560
33.009497869018190385759 2345.21676764409494353 33.009497869018190385759 356.00907552320785499
34.009497869018190385759 2353.19752222434999567 34.009497869018190385759 355.72858155455622864
35.009497869018190385759 2360.87843015896214638 35.009497869018190385759 355.66134915279258166
36.009497869018190385759 2368.27953941204850707 36.009497869018190385759 355.65150716344521697
37.009497869018190385759 2375.41224314759165281 37.009497869018190385759 355.51855065414912360
38.009497869018190385759 2382.28480886201714384 38.009497869018190385759 355.20365687442341596
39.009497869018190385759 2388.92540385602796960 39.009497869018190385759 354.70797590293886969
40.009497869018190385759 2395.35663745558667870 40.009497869018190385759 354.01814557044610865
41.009497869018190385759 2401.59681621022036779 41.009497869018190385759 353.62172097737737886
42.009497869018190385759 2407.64060543126061020 42.009497869018190385759 352.87487155341887046
43.009497869018190385759 2413.49225668323697391 43.009497869018190385759 352.37598233176754547
44.009497869018218807469 2419.15310112467341241 44.009497869018218807469 351.93186779714926615
46.009497869018190385759 2429.95068738515828954 46.009497869018190385759 350.72610680240751435
48.009497869018190385759 2440.05086105744567249 48.009497869018190385759 349.49384154492469179
50.009497869018190385759 2449.56780458427056146 50.009497869018190385759 348.40706846282625975
52.009497869018190385759 2458.59622573047226979 52.009497869018190385759 347.64046284714481772
54.009497869018190385759 2467.15131670606433545 54.009497869018190385759 346.91366225695094272
56.009497869018190385759 2475.25174879464884725 56.009497869018190385759 346.59611569639304207
58.009497869018218807469 2482.95413313704511893 58.009497869018218807469 346.30824621678982567
60.009497869018190385759 2490.34878594133033403 60.009497869018190385759 345.90148080723798785
62.009497869018190385759 2497.41167868494039794 62.009497869018190385759 345.43659406868175665
64.009497869018190385759 2504.16627363594761846 64.009497869018190385759 345.05807311010613603
66.009497869018190385759 2510.62828601763476399 66.009497869018190385759 344.64081985948013198
68.009497869018190385759 2516.80677874114280712 68.009497869018190385759 343.78125372293243345
70.009497869018190385759 2522.70160763588773989 70.009497869018190385759 343.11265676800371693
72.009497869018218807469 2528.34761944568072067 72.009497869018218807469 341.32592970257559273
74.009497869018190385759 2533.77198979464174045 74.009497869018190385759 339.75309718980093976
76.009497869018190385759 2538.99487343776581838 76.009497869018190385759 338.44078414578706315
78.009497869018190385759 2544.00786066722230316 78.009497869018190385759 336.71868133418786329
80.009497869018190385759 2548.81091766699728396 80.009497869018190385759 335.58402704057311894
82.009497869018218807469 2553.40875085391508037 82.009497869018218807469 334.53852227851956513
84.009497869018190385759 2557.81694643888204155 84.009497869018190385759 333.07103672640994318
86.009497869018190385759 2561.99943496073956339 86.009497869018190385759 331.46150806984974224
88.009497869018190385759 2566.00024624804564155 88.009497869018190385759 330.42691178407841335
91.009497869018218807469 2571.73526566530154014 91.009497869018218807469 329.52065675446107207
94.009497869018190385759 2577.22944663127691456 94.009497869018190385759 328.93377114838403941
97.009497869018190385759 2582.50151488140681977 97.009497869018190385759 328.91134909378945395
99.504748934509109403734 2586.71494612362403132 99.504748934509109403734 321.15245861039187503
nan nan nan nan

