Time Pressure difference Time.1 Pressure.1 difference.1
(hr) (psi) (hr) (psi)
0.000200000000006639311 0.49673386630670552 0.000200000000006639311 0.39668798982792108
0.000399999999999067768 0.99171560884910437 0.000399999999999067768 1.03153154179638240
0.000600000000005707079 1.48524976316550439 0.000600000000005707079 1.50607307171426008
0.000799999999998135536 1.97747714518310436 0.000799999999998135536 1.98732837540953700
0.001007140329434719206 2.48599392076710446 0.001007140329434719206 2.49060580443350776
0.001267914553963578328 3.12443154832812731 0.001267914553963578328 3.12602790198084302
0.001596209851982166583 3.92556407894337900 0.001596209851982166583 3.92129692479199665
0.002009509145210586212 4.93022568617291235 0.002009509145210586212 4.91550930852552614
0.002529822128138903281 6.18919269784235215 0.002529822128138903281 6.15676918611709656
0.003184857364445292660 7.76544845796675798 0.003184857364445292660 7.70399218011356002
0.004009497869020606231 9.73689530661224012 0.004009497869020606231 9.62892656293649374
0.005047658755842121536 12.19954909559783651 0.005047658755842121536 12.01833986054259640
0.006354625877804664924 15.27125640669713036 0.006354625877804664924 14.97626552437112402
0.008000000000009777068 19.09592105690043695 0.008000000000009777068 18.62611358908748471
0.010071403294347192059 23.84818930765974798 0.010071403294347192059 23.11234281876570051
0.012679145539692626699 29.73844040917670739 0.012679145539692626699 28.60116062076670218
0.015962098519750611558 37.01778520305567355 0.015962098519750611558 35.27957158871249987
0.020095091452091651263 45.98260542613681423 0.020095091452091651263 43.35182368767322458
0.025298221281346400247 56.97789688451122458 0.025298221281346400247 53.03188797638019025
0.031848573644282396344 70.39831899503808188 0.031848573644282396344 64.53031579308870391
0.040094978690191851456 86.68544907957856083 0.040094978690191851456 78.03349338415765146
0.050476587558421215363 106.31923024497376673 0.050476587558421215363 93.67494330990027152
0.063546258777947173257 129.80194870283941100 0.063546258777947173257 111.49472832685471246
0.079999999999998294697 157.63091563399945016 0.079999999999998294697 131.39029326949474807
0.100714032943542974863 190.25973167040248768 0.100714032943542974863 153.06517224809380195
0.126791455396897845276 228.04728266776467649 0.126791455396897845276 175.97347834310062353
0.159620985197506115583 271.19341461300871288 0.159620985197506115583 199.29586120023435569
0.200950914520774404082 319.67689014476883358 0.200950914520774404082 221.94576626003004094
0.252982212813464002465 373.19408683373683289 0.252982212813464002465 242.64907223193878849
0.318485736442795541734 431.13385911244779436 0.318485736442795541734 260.09447537798752137
0.400949786901819038576 492.58580703723276883 0.400949786901819038576 273.14825893430025872
0.504765875584169521062 556.41429744600031881 0.504765875584169521062 281.09784337905426810
0.635462587779443310865 621.37892910669881985 0.635462587779443310865 283.82581212052770070
0.799999999999997157829 686.28833638734988654 0.799999999999997157829 281.86418590128431561
1.007140329435330272645 750.14480568970770946 1.007140329435330272645 276.29136605765717150
1.267914553968893187630 812.24933759696773450 1.267914553968893187630 268.49295860541974434
1.596209851975103788391 872.23471423271530512 1.596209851975103788391 259.86194140316564472
2.009509145207687197399 930.03129844352542932 2.009509145207687197399 251.56747312203123101
2.529822128134711078928 985.79270136086245202 2.529822128134711078928 244.41116626156841107
3.184857364427983839050 1039.79505543271466195 3.184857364427983839050 238.79836950752138591
4.009497869018190385759 1092.34940714200433831 4.009497869018190385759 234.80064098564662345
5.009497869018190385759 1142.05618950013763424 5.009497869018190385759 232.30127824463096431
6.009497869018190385759 1182.00143484526984139 6.009497869018190385759 231.10122703950457890
7.009497869018204596614 1215.35200873623966800 7.009497869018204596614 230.55198282698540879
8.009497869018190385759 1243.93411257980937989 8.009497869018190385759 230.41370134791597479
9.009497869018204596614 1268.92150237446458050 9.009497869018204596614 230.45621273186176836
10.009497869018190385759 1291.06288177186161192 10.009497869018190385759 230.51401305815849696
11.009497869018190385759 1310.93956032387814048 11.009497869018190385759 230.53110231407598008
12.009497869018190385759 1328.91697130978786845 12.009497869018190385759 230.70869941327521246
13.009497869018190385759 1345.30865753981174748 13.009497869018190385759 230.78814034624315354
14.009497869018204596614 1360.38268735400106380 14.009497869018204596614 230.82695404300372388
15.009497869018190385759 1374.28714304211689523 15.009497869018190385759 230.97277116122620555
16.009497869018190385759 1387.17534223171833219 16.009497869018190385759 230.97365743158854912
17.009497869018190385759 1399.19680010198180753 17.009497869018190385759 230.80351753518689861
18.009497869018190385759 1410.42685113480933978 18.009497869018190385759 230.86422649708842414
19.009497869018204596614 1420.93545604856126374 19.009497869018204596614 230.85558068394124120
20.009497869018190385759 1430.81551831943579600 20.009497869018190385759 230.85931057281953827
21.009497869018204596614 1440.16721957424829270 21.009497869018204596614 230.72995844090971218
22.009497869018190385759 1449.01447221391435960 22.009497869018190385759 230.67042717947828123
23.009497869018190385759 1457.39222329556264413 23.009497869018190385759 230.99607139753814522
24.009497869018190385759 1465.32578184669955590 24.009497869018190385759 231.03626239749317506
25.009497869018190385759 1472.87201949138488999 25.009497869018190385759 231.03009705265631624
26.009497869018204596614 1480.09829273522882431 26.009497869018204596614 231.14489883067341225
27.009497869018190385759 1487.01223690473125316 27.009497869018190385759 231.07449599538318807
28.009497869018190385759 1493.61916601023176554 28.009497869018190385759 231.15664912754536431
29.009497869018190385759 1499.93904044507621620 29.009497869018190385759 231.42312343319073875
30.009497869018190385759 1505.98079500704602651 30.009497869018190385759 231.43773785234665752
31.009497869018190385759 1511.77530629839952780 31.009497869018190385759 231.35308831728133327
32.009497869018190385759 1517.35512159274753685 32.009497869018190385759 231.24782112740436446
33.009497869018190385759 1522.73575141277797229 33.009497869018190385759 231.15464404221313544
34.009497869018190385759 1527.91760943557142127 34.009497869018190385759 230.97252092250229794
35.009497869018190385759 1532.90477875685087383 35.009497869018190385759 230.92886731093375374
36.009497869018190385759 1537.71027640434817840 36.009497869018190385759 230.92247696388736244
37.009497869018190385759 1542.34149989387606183 37.009497869018190385759 230.83614906751483886
38.009497869018190385759 1546.80381726328573677 38.009497869018190385759 230.63169034843127747
39.009497869018190385759 1551.11551737883246460 39.009497869018190385759 230.30984754609929155
40.009497869018190385759 1555.29128034575569473 40.009497869018190385759 229.86194468091940735
41.009497869018190385759 1559.34299250131562076 41.009497869018190385759 229.60454847391059729
42.009497869018190385759 1563.26719006285952673 42.009497869018190385759 229.11962344076491149
43.009497869018190385759 1567.06663354677061761 43.009497869018190385759 228.79569754006189441
44.009497869018218807469 1570.74218726661752044 44.009497869018218807469 228.50733652844218113
46.009497869018190385759 1577.75299788960342084 46.009497869018190385759 227.72444285324615976
48.009497869018190385759 1584.31098253241316343 48.009497869018190385759 226.92434011277410377
50.009497869018190385759 1590.49027919803893383 50.009497869018190385759 226.21870460452780094
52.009497869018190385759 1596.35238109318424904 52.009497869018190385759 225.72095198978564667
54.009497869018190385759 1601.90715243238491894 54.009497869018190385759 225.24904454903003170
56.009497869018190385759 1607.16671637263812045 56.009497869018190385759 225.04286339461785360
58.009497869018218807469 1612.16783020190337083 58.009497869018218807469 224.85595139808938825
60.009497869018190385759 1616.96913571434902224 60.009497869018190385759 224.59184095844548779
62.009497869018190385759 1621.55503132854983050 62.009497869018190385759 224.28999267434494413
64.009497869018190385759 1625.94075096014853443 64.009497869018190385759 224.04422119418401849
66.009497869018190385759 1630.13649841318738254 66.009497869018190385759 223.77330105968417229
68.009497869018190385759 1634.14815818371721434 68.009497869018190385759 223.21518971369556539
70.009497869018190385759 1637.97563666260657556 70.009497869018190385759 222.78107355837809678
72.009497869018218807469 1641.64155964008341471 72.009497869018218807469 221.62096195672114618
74.009497869018190385759 1645.16357209250350024 74.009497869018190385759 220.59973085722148767
76.009497869018190385759 1648.55476038630172297 76.009497869018190385759 219.74765354959899355
78.009497869018190385759 1651.80966414657859787 78.009497869018190385759 218.62950210406552287
80.009497869018190385759 1654.92826141679074681 80.009497869018190385759 217.89277760071956891
82.009497869018218807469 1657.91360804629903214 82.009497869018218807469 217.21393737519514389
84.009497869018190385759 1660.77582407215140847 84.009497869018190385759 216.26110745102403143
86.009497869018190385759 1663.49148980078439308 86.009497869018190385759 215.21604975653650627
88.009497869018190385759 1666.08919354650561218 88.009497869018190385759 214.54429234188802411
91.009497869018218807469 1669.81290865130335987 91.009497869018218807469 213.95586616630592403
94.009497869018190385759 1673.38024873561721506 94.009497869018190385759 213.57480471958052703
97.009497869018190385759 1676.80337231170597079 97.009497869018190385759 213.56024620856254614
99.504748934509109403734 1679.53912897060490650 99.504748934509109403734 208.52244326711652889
nan nan nan nan

