Time Pressure difference Time.1 Pressure.1 difference.1
(hr) (psi) (hr) (psi)
0.000200000000006639311 0.03571832149028150 0.000200000000006639311 0.02852438722842911
0.000399999999999067768 0.07131065414801251 0.000399999999999067768 0.07417367273786694
0.000600000000005707079 0.10679889601357306 0.000600000000005707079 0.10829622422025616
0.000799999999998135536 0.14219317264694564 0.000799999999998135536 0.14290153870001687
0.001007140329434719206 0.17875876018893894 0.001007140329434719206 0.17909038393083751
0.001267914553963578328 0.22466648257208943 0.001267914553963578328 0.22478127054377300
0.001596209851982166583 0.28227300233204899 0.001596209851982166583 0.28196616683286929
0.002009509145210586212 0.35451455602915588 0.002009509145210586212 0.35345635496086558
0.002529822128138903281 0.44504228429301201 0.002529822128138903281 0.44271082776427284
0.003184857364445292660 0.55838508978690737 0.003184857364445292660 0.55396599288441983
0.004009497869020606231 0.70014464579318791 0.004009497869020606231 0.69238100703389494
0.005047658755842121536 0.87722510219181771 0.005047658755842121536 0.86419500669453464
0.006354625877804664924 1.09810037707019492 0.006354625877804664924 1.07688865810695389
0.008000000000009777068 1.37311806930889424 0.008000000000009777068 1.33933592697451842
0.010071403294347192059 1.71483635489861053 0.010071403294347192059 1.66192431639954052
0.012679145539692626699 2.13838283878695368 0.012679145539692626699 2.05660519513874229
0.015962098519750611558 2.66181398617289933 0.015962098519750611558 2.53682538179705253
0.020095091452091651263 3.30644152729746343 0.020095091452091651263 3.11727160295978045
0.025298221281346400247 4.09707285289963608 0.025298221281346400247 3.81332973743202031
0.031848573644282396344 5.06208648292079832 0.031848573644282396344 4.64013976438597631
0.040094978690191851456 6.23323463281250501 0.040094978690191851456 5.61110403932906188
0.050476587558421215363 7.64502826176232730 0.050476587558421215363 6.73582368281891597
0.063546258777947173257 9.33358494017072715 0.063546258777947173257 8.01717946163002004
0.079999999999998294697 11.33466450211032672 0.079999999999998294697 9.44779700767269937
0.100714032943542974863 13.68088371543027826 0.100714032943542974863 11.00635853957865251
0.126791455396897845276 16.39804875370214177 0.126791455396897845276 12.65361131898549552
0.159620985197506115583 19.50052981330999557 0.159620985197506115583 14.33063884884628081
0.200950914520774404082 22.98679979301849485 0.200950914520774404082 15.95931095180817927
0.252982212813464002465 26.83502631078709655 0.252982212813464002465 17.44801021065780589
0.318485736442795541734 31.00126411678136407 0.318485736442795541734 18.70244555393555785
0.400949786901819038576 35.42004966990135983 0.400949786901819038576 19.64109554209851538
0.504765875584169521062 40.00972372939467192 0.504765875584169521062 20.21272117943032498
0.635462587779443310865 44.68109356452850989 0.635462587779443310865 20.40887946686068943
0.799999999999997157829 49.34849241581278534 0.799999999999997157829 20.26782607651375301
1.007140329435330272645 53.94017833554754304 1.007140329435330272645 19.86710491718939764
1.267914553968893187630 58.40588882386222735 1.267914553968893187630 19.30634986627600114
1.596209851975103788391 62.71921858195108967 1.596209851975103788391 18.68572488350521965
2.009509145207687197399 66.87516025597257396 2.009509145207687197399 18.08929990676813304
2.529822128134711078928 70.88475946240315295 2.529822128134711078928 17.57471596864120400
3.184857364427983839050 74.76787187894102260 3.184857364427983839050 17.17112021542377676
4.009497869018190385759 78.54686372425783247 4.009497869018190385759 16.88365813107492386
5.009497869018190385759 82.12109723830420194 5.009497869018190385759 16.70393806775774692
6.009497869018190385759 84.99341421128194440 6.009497869018190385759 16.61764676036571231
7.009497869018204596614 87.39153240076639406 7.009497869018204596614 16.57815261130497220
8.009497869018190385759 89.44676729252812208 8.009497869018190385759 16.56820929424813826
9.009497869018204596614 91.24351940150832263 9.009497869018204596614 16.57126613289307215
10.009497869018190385759 92.83562527790978436 10.009497869018190385759 16.57542234364684575
11.009497869018190385759 94.26488477245278830 11.009497869018190385759 16.57665116974124686
12.009497869018190385759 95.55757486006835677 12.009497869018190385759 16.58942152971711437
13.009497869018190385759 96.73624126122390976 13.009497869018190385759 16.59513383760611305
14.009497869018204596614 97.82015979301345965 14.009497869018204596614 16.59792478904541824
15.009497869018190385759 98.81997851306191194 15.009497869018190385759 16.60840996644268586
16.009497869018190385759 99.74672193304998302 16.009497869018190385759 16.60847369491355607
17.009497869018190385759 100.61114114445688017 17.009497869018190385759 16.59623955520574512
18.009497869018190385759 101.41865317524549539 18.009497869018190385759 16.60060491534247618
19.009497869018204596614 102.17428864563233049 19.009497869018204596614 16.59998322643724578
20.009497869018190385759 102.88472790591261230 20.009497869018190385759 16.60025142914923180
21.009497869018204596614 103.55717465165999158 21.009497869018204596614 16.59095018889484763
22.009497869018190385759 104.19334833645201854 22.009497869018190385759 16.58666951290562608
23.009497869018190385759 104.79576187576788016 23.009497869018190385759 16.61008540149521906
24.009497869018190385759 105.36623514951185143 24.009497869018190385759 16.61297538978629973
25.009497869018190385759 105.90885758884539314 25.009497869018190385759 16.61253206231474877
26.009497869018204596614 106.42847255453986577 26.009497869018204596614 16.62078703966380644
27.009497869018190385759 106.92562907508937542 27.009497869018190385759 16.61572462843056286
28.009497869018190385759 107.40070926160528586 28.009497869018190385759 16.62163196067633564
29.009497869018190385759 107.85514839320781277 29.009497869018190385759 16.64079315656723068
30.009497869018190385759 108.28958893863374158 30.009497869018190385759 16.64184402617208391
31.009497869018190385759 108.70625112179126859 31.009497869018190385759 16.63575718669414272
32.009497869018190385759 109.10747529847515125 32.009497869018190385759 16.62818780682004771
33.009497869018190385759 109.49437677382853451 33.009497869018190385759 16.62148778229960655
34.009497869018190385759 109.86698529386215739 34.009497869018190385759 16.60839197268829182
35.009497869018190385759 110.22559445910465570 35.009497869018190385759 16.60525300061898335
36.009497869018190385759 110.57114027656685096 36.009497869018190385759 16.60479349405878935
37.009497869018190385759 110.90415467464325161 37.009497869018190385759 16.59858596973769096
38.009497869018190385759 111.22502364936670460 38.009497869018190385759 16.58388408859957508
39.009497869018190385759 111.53506228643777831 39.009497869018190385759 16.56074154595697223
40.009497869018190385759 111.83532617870817205 40.009497869018190385759 16.52853448374504097
41.009497869018190385759 112.12667002935880589 41.009497869018190385759 16.51002606083303448
42.009497869018190385759 112.40884477040629008 42.009497869018190385759 16.47515686948643676
43.009497869018190385759 112.68204890052028588 43.009497869018190385759 16.45186453883388111
44.009497869018218807469 112.94634456933872002 44.009497869018218807469 16.43112954970403550
46.009497869018190385759 113.45046640343301192 46.009497869018190385759 16.37483451954780023
48.009497869018190385759 113.92202717206315299 48.009497869018190385759 16.31730204824295427
50.009497869018190385759 114.36635786875531551 50.009497869018190385759 16.26656237122858784
52.009497869018190385759 114.78788024583096217 52.009497869018190385759 16.23077079525214472
54.009497869018190385759 115.18730360299757365 54.009497869018190385759 16.19683765151888011
56.009497869018190385759 115.56549967228001208 56.009497869018190385759 16.18201191633539437
58.009497869018218807469 115.92511153625727616 58.009497869018218807469 16.16857175604990360
60.009497869018190385759 116.27035591257025260 60.009497869018190385759 16.14958053714574859
62.009497869018190385759 116.60011094837398105 62.009497869018190385759 16.12787572741945397
64.009497869018190385759 116.91547205900732820 64.009497869018190385759 16.11020319623731112
66.009497869018190385759 117.21717296282116649 66.009497869018190385759 16.09072231700070077
68.009497869018190385759 117.50563679247464677 68.009497869018190385759 16.05059056469717405
70.009497869018190385759 117.78085681687640829 70.009497869018190385759 16.01937485453220589
72.009497869018218807469 118.04445997411971803 72.009497869018218807469 15.93595545842643801
74.009497869018190385759 118.29771505012985244 74.009497869018190385759 15.86252245294401853
76.009497869018190385759 118.54156303781098813 76.009497869018190385759 15.80125267998788630
78.009497869018190385759 118.77561130150984070 78.009497869018190385759 15.72085048574384381
80.009497869018190385759 118.99985826241137943 80.009497869018190385759 15.66787531242632170
82.009497869018218807469 119.21452365550311470 82.009497869018218807469 15.61906238651068968
84.009497869018190385759 119.42033517575671908 84.009497869018190385759 15.55054786019069368
86.009497869018190385759 119.61560879838415872 86.009497869018190385759 15.47540157112219283
88.009497869018190385759 119.80240020484905017 88.009497869018190385759 15.42709794431636183
91.009497869018218807469 120.07015898328769765 91.009497869018218807469 15.38478636312902026
94.009497869018190385759 120.32667340406611345 94.009497869018190385759 15.35738562364876714
97.009497869018190385759 120.57281774147718068 97.009497869018190385759 15.35633877419429894
99.504748934509109403734 120.76953602965886603 99.504748934509109403734 14.99408872990971631
nan nan nan nan

