Time Pressure difference Time.1 Pressure.1 difference.1
(hr) (psi) (hr) (psi)
0.000200000000006639311 0.75839133768900024 0.000200000000006639311 0.60564571022222735
0.000399999999999067768 1.51410761016594031 0.000399999999999067768 1.57489681882959354
0.000600000000005707079 2.26761376884633048 0.000600000000005707079 2.29940587704869470
0.000799999999998135536 3.01912480527119431 0.000799999999998135536 3.03416522867710237
0.001007140329434719206 3.79550576866281952 0.001007140329434719206 3.80254698904313093
0.001267914553963578328 4.77024415321668904 0.001267914553963578328 4.77268139549918047
0.001596209851982166583 5.99337793323629686 0.001596209851982166583 5.98686303066069048
0.002009509145210586212 7.52725092220044889 0.002009509145210586212 7.50478260649465767
0.002529822128138903281 9.44938617580278972 0.002529822128138903281 9.39988338950653635
0.003184857364445292660 11.85594388314991576 0.003184857364445292660 11.76211515124361284
0.004009497869020606231 14.86586189788791934 0.004009497869020606231 14.70101998655688647
0.005047658755842121536 18.62573298374719855 0.005047658755842121536 18.34907072353744439
0.006354625877804664924 23.31548009918809328 0.006354625877804664924 22.86510104306159974
0.008000000000009777068 29.15480923904698685 0.008000000000009777068 28.43752793785430910
0.010071403294347192059 36.41036260517282130 0.010071403294347192059 35.28690467146000742
0.012679145539692626699 45.40333794912764631 0.012679145539692626699 43.66698937585283602
0.015962098519750611558 56.51712021804318198 0.015962098519750611558 53.86329240885369529
0.020095091452091651263 70.20421196331591318 0.020095091452091651263 66.18765054656464031
0.025298221281346400247 86.99133755110158006 0.025298221281346400247 80.96674535524266503
0.031848573644282396344 107.48104555596951570 0.031848573644282396344 98.52203732289295601
0.040094978690191851456 132.34751673855387821 0.040094978690191851456 119.13809274203333644
0.050476587558421215363 162.32350704625594062 0.050476587558421215363 143.01876796310861550
0.063546258777947173257 198.17588489246216454 0.063546258777947173257 170.22522903414440520
0.079999999999998294697 240.66392303317974211 0.079999999999998294697 200.60089925593428006
0.100714032943542974863 290.48015888808942009 0.100714032943542974863 233.69314759616997890
0.126791455396897845276 348.17252353790826191 0.126791455396897845276 268.66853800543623265
0.159620985197506115583 414.04613301283774263 0.159620985197506115583 304.27612253480594973
0.200950914520774404082 488.06856304711362782 0.200950914520774404082 338.85699765118295090
0.252982212813464002465 569.77625631973523923 0.252982212813464002465 370.46589121699020097
0.318485736442795541734 658.23614275863690182 0.318485736442795541734 397.10076257542243638
0.400949786901819038576 752.05826392139397285 0.400949786901819038576 417.03070302176610085
0.504765875584169521062 849.50878523110077367 0.504765875584169521062 429.16777760046250023
0.635462587779443310865 948.69391684684956090 0.635462587779443310865 433.33271984287927125
0.799999999999997157829 1047.79473431714131948 0.799999999999997157829 430.33779553155943631
1.007140329435330272645 1145.28797256639313673 1.007140329435330272645 421.82946021846322537
1.267914553968893187630 1240.10643014386550931 1.267914553968893187630 409.92319599790675966
1.596209851975103788391 1331.68945500747327060 1.596209851975103788391 396.74573996837835921
2.009509145207687197399 1419.93072822565022761 2.009509145207687197399 384.08211197393728753
2.529822128134711078928 1505.06477649242037842 2.529822128134711078928 373.15617858998655265
3.184857364427983839050 1587.51318663891061078 3.184857364427983839050 364.58680829492811881
4.009497869018190385759 1667.75085070342788640 4.009497869018190385759 358.48325287607917744
5.009497869018190385759 1743.64097159469179132 5.009497869018190385759 354.66733618285633156
6.009497869018190385759 1804.62760871861451051 6.009497869018190385759 352.83515098171847058
7.009497869018204596614 1855.54579260231889748 7.009497869018204596614 351.99658916561486421
8.009497869018190385759 1899.18368693205047748 8.009497869018190385759 351.78546710810581999
9.009497869018204596614 1937.33333054830450237 9.009497869018204596614 351.85037161235754866
10.009497869018190385759 1971.13781113329400796 10.009497869018190385759 351.93861859882730414
11.009497869018190385759 2001.48464644765999765 11.009497869018190385759 351.96470972032000191
12.009497869018190385759 2028.93176388935853538 12.009497869018190385759 352.23585713097037342
13.009497869018190385759 2053.95786677901014627 13.009497869018190385759 352.35714404033444680
14.009497869018204596614 2076.97223002375085343 14.009497869018204596614 352.41640307903406892
15.009497869018190385759 2098.20093912617539900 15.009497869018190385759 352.63903021772495094
16.009497869018190385759 2117.87807267150310508 16.009497869018190385759 352.64038333618788101
17.009497869018190385759 2136.23190383463088438 17.009497869018190385759 352.38062125355457965
18.009497869018190385759 2153.37744997672416503 18.009497869018190385759 352.47330901645773338
19.009497869018204596614 2169.42152403400723415 19.009497869018204596614 352.46010897063268885
20.009497869018190385759 2184.50596693251691249 20.009497869018190385759 352.46580360030804968
21.009497869018204596614 2198.78373155733879685 21.009497869018204596614 352.26831447583708723
22.009497869018190385759 2212.29132630652793523 22.009497869018190385759 352.17742477401947099
23.009497869018190385759 2225.08210680409501947 23.009497869018190385759 352.67460398988680481
24.009497869018190385759 2237.19471375591410833 24.009497869018190385759 352.73596583429980456
25.009497869018190385759 2248.71597624688001815 25.009497869018190385759 352.72655285798532532
26.009497869018204596614 2259.74873121616064964 26.009497869018204596614 352.90182714448968682
27.009497869018190385759 2270.30463594317643583 27.009497869018190385759 352.79433920365357835
28.009497869018190385759 2280.39180362431670801 28.009497869018190385759 352.91976697901156967
29.009497869018190385759 2290.04070890694720219 29.009497869018190385759 353.32660818478791498
30.009497869018190385759 2299.26499304587423467 30.009497869018190385759 353.34892083477006963
31.009497869018190385759 2308.11179707431256247 31.009497869018190385759 353.21968166166868741
32.009497869018190385759 2316.63081273273974148 32.009497869018190385759 353.05896436341168965
33.009497869018190385759 2324.84572080245243342 33.009497869018190385759 352.91670570324509981
34.009497869018190385759 2332.75715286735248810 34.009497869018190385759 352.63864816428861104
35.009497869018190385759 2340.37134281773342082 35.009497869018190385759 352.57199975732862640
36.009497869018190385759 2347.70816447687320760 36.009497869018190385759 352.56224325757386850
37.009497869018190385759 2354.77891204533216296 37.009497869018190385759 352.43044163652348288
38.009497869018190385759 2361.59178120632077480 38.009497869018190385759 352.11828309049798236
39.009497869018190385759 2368.17469459343465132 39.009497869018190385759 351.62690770834223031
40.009497869018190385759 2374.55006514326896649 40.009497869018190385759 350.94306938742374768
41.009497869018190385759 2380.73604039080464645 41.009497869018190385759 350.55008822187352280
42.009497869018190385759 2386.72733198560354140 42.009497869018190385759 349.80972608932836465
43.009497869018190385759 2392.52815456221014756 43.009497869018190385759 349.31517032454263472
44.009497869018218807469 2398.13982771642440639 44.009497869018218807469 348.87491346232059186
46.009497869018190385759 2408.84362386824068381 46.009497869018190385759 347.67962596156144173
48.009497869018190385759 2418.85606530450377250 48.009497869018190385759 346.45806441967016553
50.009497869018190385759 2428.29034265520022018 50.009497869018190385759 345.38073127748134539
52.009497869018190385759 2437.24034103357416825 52.009497869018190385759 344.62078455965604462
54.009497869018190385759 2445.72112068690194064 54.009497869018190385759 343.90029711248229205
56.009497869018190385759 2453.75119071608469312 56.009497869018190385759 343.58550882823760730
58.009497869018218807469 2461.38667052564824189 58.009497869018218807469 343.30013984357123036
60.009497869018190385759 2468.71709181806136257 60.009497869018190385759 342.89690768404807386
62.009497869018190385759 2475.71863478756858967 62.009497869018190385759 342.43605904962697650
64.009497869018190385759 2482.41455790403961146 64.009497869018190385759 342.06082600382944747
66.009497869018190385759 2488.82043988501709464 66.009497869018190385759 341.64719710282884080
68.009497869018190385759 2494.94526491928718315 68.009497869018190385759 340.79509733880274780
70.009497869018190385759 2500.78889008856185683 70.009497869018190385759 340.13230795785824512
72.009497869018218807469 2506.38585945049544534 72.009497869018218807469 338.36110078007760649
74.009497869018190385759 2511.76311257601264515 74.009497869018190385759 336.80193022181140350
76.009497869018190385759 2516.94062915166159655 76.009497869018190385759 335.50101620532421975
78.009497869018190385759 2521.91007251810424350 78.009497869018190385759 333.79387194149137486
80.009497869018190385759 2526.67140915305981252 80.009497869018190385759 332.66907349407517813
82.009497869018218807469 2531.22930459242661527 82.009497869018218807469 331.63265020661066274
84.009497869018190385759 2535.59920966199706527 84.009497869018190385759 330.17791154311862556
86.009497869018190385759 2539.74536820755156441 86.009497869018190385759 328.58236359150140515
88.009497869018190385759 2543.71142760528346116 88.009497869018190385759 327.55675402699625920
91.009497869018218807469 2549.39663143585266880 91.009497869018218807469 326.65837091946036708
94.009497869018190385759 2554.84308878865977022 94.009497869018190385759 326.07658312537961365
97.009497869018190385759 2560.06936274345753191 97.009497869018190385759 326.05435583347423290
99.504748934509109403734 2564.24619523438514079 99.504748934509109403734 318.36286070715283358
nan nan nan nan

