Time Pressure difference Time.1 Pressure.1 difference.1
(hr) (psi) (hr) (psi)
0.000200000000006639311 0.26165747138229473 0.000200000000006639311 0.20895772039430627
0.000399999999999067768 0.52239200131683594 0.000399999999999067768 0.54336527703321136
0.000600000000005707079 0.78236400568082587 0.000600000000005707079 0.79333280533443473
0.000799999999998135536 1.04164766008808996 0.000799999999998135536 1.04683685326756537
0.001007140329434719206 1.30951184789571529 0.001007140329434719206 1.31194118460962361
0.001267914553963578328 1.64581260488856218 0.001267914553963578328 1.64665349351833723
0.001596209851982166583 2.06781385429291742 0.001596209851982166583 2.06556610586869382
0.002009509145210586212 2.59702523602753699 0.002009509145210586212 2.58927329796913153
0.002529822128138903281 3.26019347796043624 0.002529822128138903281 3.24311420338944068
0.003184857364445292660 4.09049542518315867 0.003184857364445292660 4.05812297113005283
0.004009497869020606231 5.12896659127567833 0.004009497869020606231 5.07209342362039362
0.005047658755842121536 6.42618388814936115 0.005047658755842121536 6.33073086299484622
0.006354625877804664924 8.04422369249096292 0.006354625877804664924 7.88883551869047661
0.008000000000009777068 10.05888818214654989 0.008000000000009777068 9.81141434876682084
0.010071403294347192059 12.56217329751307688 0.010071403294347192059 12.17456185269430868
0.012679145539692626699 15.66489753995093892 0.012679145539692626699 15.06582875508613917
0.015962098519750611558 19.49933501498751554 0.015962098519750611558 18.58372082014119542
0.020095091452091651263 24.22160653717909540 0.020095091452091651263 22.83582685889141572
0.025298221281346400247 30.01344066659035903 0.025298221281346400247 27.93485737886247477
0.031848573644282396344 37.08272656093143382 0.031848573644282396344 33.99172152980425210
0.040094978690191851456 45.66206765897532449 0.040094978690191851456 41.10459935787568497
0.050476587558421215363 56.00427680128217389 0.050476587558421215363 49.34382465320833688
0.063546258777947173257 68.37393618962276776 0.063546258777947173257 58.73050070728968564
0.079999999999998294697 83.03300739918030615 0.079999999999998294697 69.21060598643954620
0.100714032943542974863 100.22042721768691820 0.100714032943542974863 80.62797534807616273
0.126791455396897845276 120.12524087014359964 0.126791455396897845276 92.69505966233562333
0.159620985197506115583 142.85271839982902975 0.159620985197506115583 104.98026133457160824
0.200950914520774404082 168.39167290234479424 0.200950914520774404082 116.91123139115295260
0.252982212813464002465 196.58216948599849161 0.252982212813464002465 127.81681898505136985
0.318485736442795541734 227.10228364618907904 0.318485736442795541734 137.00628719743491502
0.400949786901819038576 259.47245688416109033 0.400949786901819038576 143.88244408746587055
0.504765875584169521062 293.09448778510045486 0.504765875584169521062 148.06993422140820371
0.635462587779443310865 327.31498774015074105 0.635462587779443310865 149.50690772235157056
0.799999999999997157829 361.50639792979131926 0.799999999999997157829 148.47360963027514913
1.007140329435330272645 395.14316687668548411 1.007140329435330272645 145.53809416080605388
1.267914553968893187630 427.85709254689771797 1.267914553968893187630 141.43023739248698689
1.596209851975103788391 459.45474077475802233 1.596209851975103788391 136.88379856521268607
2.009509145207687197399 489.89942978212462776 2.009509145207687197399 132.51463885190608494
2.529822128134711078928 519.27207513155792640 2.529822128134711078928 128.74501232841814158
3.184857364427983839050 547.71813120619583515 3.184857364427983839050 125.78843878740673290
4.009497869018190385759 575.40144356142366178 4.009497869018190385759 123.68261189043259662
5.009497869018190385759 601.58478209455415708 5.009497869018190385759 122.36605793822532462
6.009497869018190385759 622.62617387334455543 6.009497869018190385759 121.73392394221394852
7.009497869018204596614 640.19378386607934317 7.009497869018204596614 121.44460633862944121
8.009497869018190385759 655.24957435224087021 8.009497869018190385759 121.37176576018984520
9.009497869018204596614 668.41182817384003556 9.009497869018204596614 121.39415888049573766
10.009497869018190385759 680.07492936143216866 10.009497869018190385759 121.42460554066877876
11.009497869018190385759 690.54508612378208454 11.009497869018190385759 121.43360740624403604
12.009497869018190385759 700.01479257957055324 12.009497869018190385759 121.52715771769513253
13.009497869018190385759 708.64920923919851248 13.009497869018190385759 121.56900369409130747
14.009497869018204596614 716.58954266974978964 14.009497869018204596614 121.58944903603038767
15.009497869018190385759 723.91379608405827639 15.009497869018190385759 121.66625905649874539
16.009497869018190385759 730.70273043978477290 16.009497869018190385759 121.66672590459931769
17.009497869018190385759 737.03510373264919053 17.009497869018190385759 121.57710371836769525
18.009497869018190385759 742.95059884191459787 18.009497869018190385759 121.60908251936930924
19.009497869018204596614 748.48606798544608409 19.009497869018204596614 121.60452828669143344
20.009497869018190385759 753.69044861308077543 20.009497869018190385759 121.60649302748855405
21.009497869018204596614 758.61651198309061783 21.009497869018204596614 121.53835603492736084
22.009497869018190385759 763.27685409261380300 22.009497869018190385759 121.50699759454121818
23.009497869018190385759 767.68988350853214797 23.009497869018190385759 121.67853259234870222
24.009497869018190385759 771.86893190921466612 24.009497869018190385759 121.69970343680661529
25.009497869018190385759 775.84395675549535554 25.009497869018190385759 121.69645580532898066
26.009497869018204596614 779.65043848093159795 26.009497869018204596614 121.75692831381626036
27.009497869018190385759 783.29239903844529636 27.009497869018190385759 121.71984320827040449
28.009497869018190385759 786.77263761408528353 28.009497869018190385759 121.76311785146619115
29.009497869018190385759 790.10166846187121337 29.009497869018190385759 121.90348475159711938
30.009497869018190385759 793.28419803882854922 30.009497869018190385759 121.91118298242341211
31.009497869018190385759 796.33649077591280729 31.009497869018190385759 121.86659334438733993
32.009497869018190385759 799.27569113999243200 32.009497869018190385759 121.81114323600731097
33.009497869018190385759 802.10996938967412007 33.009497869018190385759 121.76206166103199280
34.009497869018190385759 804.83954343178095314 34.009497869018190385759 121.66612724178632732
35.009497869018190385759 807.46656406088288804 35.009497869018190385759 121.64313244639485845
36.009497869018190385759 809.99788807252457445 36.009497869018190385759 121.63976629368647764
37.009497869018190385759 812.43741215145644219 37.009497869018190385759 121.59429256900865823
38.009497869018190385759 814.78796394303515171 38.009497869018190385759 121.48659274206664804
39.009497869018190385759 817.05917721460241410 39.009497869018190385759 121.31706016224293876
40.009497869018190385759 819.25878479751338546 40.009497869018190385759 121.08112470650436876
41.009497869018190385759 821.39304788948902569 41.009497869018190385759 120.94553974796293971
42.009497869018190385759 823.46014192274378729 42.009497869018190385759 120.69010264856345316
43.009497869018190385759 825.46152101543930257 43.009497869018190385759 120.51947278448076872
44.009497869018218807469 827.39764044980677227 44.009497869018218807469 120.36757693387841073
46.009497869018190385759 831.09062597863726296 46.009497869018190385759 119.95518310831528197
48.009497869018190385759 834.54508277209049538 48.009497869018190385759 119.53372430689606176
50.009497869018190385759 837.80006345716094529 50.009497869018190385759 119.16202667295360129
52.009497869018190385759 840.88795994038969184 52.009497869018190385759 118.89983256987036953
54.009497869018190385759 843.81396825451713539 54.009497869018190385759 118.65125256345227456
56.009497869018190385759 846.58447434344657268 56.009497869018190385759 118.54264543361975370
58.009497869018218807469 849.21884032374509843 58.009497869018218807469 118.44418844548185632
60.009497869018190385759 851.74795610371234034 60.009497869018190385759 118.30506672560257186
62.009497869018190385759 854.16360345901864548 62.009497869018190385759 118.14606637528203237
64.009497869018190385759 856.47380694389096334 64.009497869018190385759 118.01660480964541478
66.009497869018190385759 858.68394147182948473 66.009497869018190385759 117.87389604314466851
68.009497869018190385759 860.79710673557008249 68.009497869018190385759 117.57990762510719662
70.009497869018190385759 862.81325342595505390 70.009497869018190385759 117.35123439948010571
72.009497869018218807469 864.74429981041191695 72.009497869018218807469 116.74013882335647452
74.009497869018190385759 866.59954048350937228 74.009497869018190385759 116.20219936458991583
76.009497869018190385759 868.38586876535953252 76.009497869018190385759 115.75336265572522620
78.009497869018190385759 870.10040837152564563 78.009497869018190385759 115.16436983742582356
80.009497869018190385759 871.74314773626929309 80.009497869018190385759 114.77629589335562343
82.009497869018218807469 873.31569654612735576 82.009497869018218807469 114.41871283141550464
84.009497869018190385759 874.82338558984565680 84.009497869018190385759 113.91680409209460834
86.009497869018190385759 876.25387840676762607 86.009497869018190385759 113.36631383496489889
88.009497869018190385759 877.62223405877796267 88.009497869018190385759 113.01246168510823509
91.009497869018218807469 879.58372278454942261 91.009497869018218807469 112.70250475315445726
94.009497869018190385759 881.46284005304244147 94.009497869018190385759 112.50177840579911503
97.009497869018190385759 883.26599043175156112 97.009497869018190385759 112.49410962491170096
99.504748934509109403734 884.70706626378012061 99.504748934509109403734 109.84041744003629049
nan nan nan nan

