Time Pressure difference Time.1 Pressure.1 difference.1
(hr) (psi) (hr) (psi)
0.000200000000006639311 0.36964309449244814 0.000200000000006639311 0.29519423992211524
0.000399999999999067768 0.73798235106664123 0.000399999999999067768 0.76761126438025096
0.000600000000005707079 1.10524438897767463 0.000600000000005707079 1.12073999483753473
0.000799999999998135536 1.47153399599746071 0.000799999999998135536 1.47886476096529074
0.001007140329434719206 1.84994530893204234 0.001007140329434719206 1.85337722905169056
0.001267914553963578328 2.32503685452511144 0.001267914553963578328 2.32622477655765092
0.001596209851982166583 2.92119734971539069 0.001596209851982166583 2.91802195908434525
0.002009509145210586212 3.66881342867382232 0.002009509145210586212 3.65786227808337605
0.002529822128138903281 4.60567015140442670 0.002529822128138903281 4.58154228732793989
0.003184857364445292660 5.77863639430636677 0.003184857364445292660 5.73290387985039196
0.004009497869020606231 7.24568296227834008 0.004009497869020606231 7.16533832860658748
0.005047658755842121536 9.07825977849671695 0.005047658755842121536 8.94341344137367145
0.006354625877804664924 11.36406204177294832 0.006354625877804664924 11.14454541529289422
0.008000000000009777068 14.21017536842925288 0.008000000000009777068 13.86056947682931906
0.010071403294347192059 17.74656227743911074 0.010071403294347192059 17.19898420459989197
0.012679145539692626699 22.12977588977196319 0.012679145539692626699 21.28347236829628741
0.015962098519750611558 27.54667962434744766 0.015962098519750611558 26.25319290464391386
0.020095091452091651263 34.21782510807840794 0.020095091452091651263 32.26013635621168163
0.025298221281346400247 42.39993998931019092 0.025298221281346400247 39.46352867807556208
0.031848573644282396344 52.38670895115710380 0.031848573644282396344 48.02005105004092655
0.040094978690191851456 64.50673050236197525 0.040094978690191851456 58.06840226747517875
0.050476587558421215363 79.11715294149387034 0.050476587558421215363 69.70794276405621304
0.063546258777947173257 96.59175112502263971 0.063546258777947173257 82.96848512617114579
0.079999999999998294697 117.30059775439757175 0.079999999999998294697 97.77371321893839706
0.100714032943542974863 141.58123845038309696 0.100714032943542974863 113.90301279331394824
0.126791455396897845276 169.70073710226634489 0.126791455396897845276 130.95016364996618563
0.159620985197506115583 201.80780853309181566 0.159620985197506115583 148.30544855201384280
0.200950914520774404082 237.88664902077280772 0.200950914520774404082 165.16031101289860317
0.252982212813464002465 277.71131879768040562 0.252982212813464002465 180.56661729634240032
0.318485736442795541734 320.82703562715596490 0.318485736442795541734 193.54856445351913408
0.400949786901819038576 366.55632797921174415 0.400949786901819038576 203.26250037753115407
0.504765875584169521062 414.05411766466573908 0.504765875584169521062 209.17816104294175261
0.635462587779443310865 462.39736363291137877 0.635462587779443310865 211.20817122681410183
0.799999999999997157829 510.69951453573690969 0.799999999999997157829 209.74843265229347367
1.007140329435330272645 558.21812463531762205 1.007140329435330272645 205.60143460812284388
1.267914553968893187630 604.43303550276027636 1.267914553968893187630 199.79827187192606175
1.596209851975103788391 649.07098299926133222 1.596209851975103788391 193.37552495720518664
2.009509145207687197399 692.08014683506496567 2.009509145207687197399 187.20321996539109932
2.529822128134711078928 733.57483629696287153 2.529822128134711078928 181.87787455919388435
3.184857364427983839050 773.76053456113390894 3.184857364427983839050 177.70112781078094599
4.009497869018190385759 812.86870598359848827 4.009497869018190385759 174.72622949600793163
5.009497869018190385759 849.85786676849716059 5.009497869018190385759 172.86633581749291011
6.009497869018190385759 879.58300753535979766 6.009497869018190385759 171.97332112471494270
7.009497869018204596614 904.40074228700098047 7.009497869018204596614 171.56460260536536566
8.009497869018190385759 925.67003360872115536 8.009497869018190385759 171.46170083582373422
9.009497869018204596614 944.26432869002803727 9.009497869018204596614 171.49333556133527168
10.009497869018190385759 960.74077322488028585 10.009497869018190385759 171.53634750983366075
11.009497869018190385759 975.53194706375552414 11.009497869018190385759 171.54906443104314917
12.009497869018190385759 988.90978634256794066 12.009497869018190385759 171.68122280753757991
13.009497869018190385759 1001.10761305220091799 13.009497869018190385759 171.74033855197023968
14.009497869018204596614 1012.32490948583688350 14.009497869018204596614 171.76922165407469834
15.009497869018190385759 1022.67187065843131677 15.009497869018190385759 171.87773104806967694
16.009497869018190385759 1032.26258744667984502 16.009497869018190385759 171.87839056364029489
17.009497869018190385759 1041.20832114612358055 17.009497869018190385759 171.75178144340830499
18.009497869018190385759 1049.56513169730806112 18.009497869018190385759 171.79695784482333920
19.009497869018204596614 1057.38508016991590921 19.009497869018204596614 171.79052408754822068
20.009497869018190385759 1064.73730042165379928 20.009497869018190385759 171.79329967375366550
21.009497869018204596614 1071.69634232531848284 21.009497869018204596614 171.69704265251641573
22.009497869018190385759 1078.28000022607329811 22.009497869018190385759 171.65274263355823336
23.009497869018190385759 1084.51427987713282164 23.009497869018190385759 171.89506985268309336
24.009497869018190385759 1090.41801491936666935 24.009497869018190385759 171.92497787104426266
25.009497869018190385759 1096.03352621014414581 25.009497869018190385759 171.92038994721079348
26.009497869018204596614 1101.41093690163347674 26.009497869018204596614 172.00581936396264382
27.009497869018190385759 1106.55592880034350856 27.009497869018190385759 171.95342929422326961
28.009497869018190385759 1111.47245631196165050 28.009497869018190385759 172.01456331397608324
29.009497869018190385759 1116.17537290645282155 29.009497869018190385759 172.21285941098642525
30.009497869018190385759 1120.67132738818645521 30.009497869018190385759 172.22373468945528430
31.009497869018190385759 1124.98329649295624222 31.009497869018190385759 172.16074297857892361
32.009497869018190385759 1129.13550018189403090 32.009497869018190385759 172.08240869848651755
33.009497869018190385759 1133.13948056636490946 33.009497869018190385759 172.01307123542613908
34.009497869018190385759 1136.99554548299215639 34.009497869018190385759 171.87754483363465852
35.009497869018190385759 1140.70673335585047425 35.009497869018190385759 171.84506012268479935
36.009497869018190385759 1144.28273076912228134 36.009497869018190385759 171.84030476409677135
37.009497869018190385759 1147.72904256316860483 37.009497869018190385759 171.77606410542492199
38.009497869018190385759 1151.04966334809705586 38.009497869018190385759 171.62391673085608090
39.009497869018190385759 1154.25820273173985697 39.009497869018190385759 171.38441832443842827
40.009497869018190385759 1157.36558487267757300 40.009497869018190385759 171.05111268061727969
41.009497869018190385759 1160.38065495499245117 41.009497869018190385759 170.85957202490001805
42.009497869018190385759 1163.30083541466979113 42.009497869018190385759 170.49871644003408733
43.009497869018190385759 1166.12818048212852773 43.009497869018190385759 170.25766790188549749
44.009497869018218807469 1168.86333333385414335 44.009497869018218807469 170.04308487484408374
46.009497869018190385759 1174.08040812855097101 46.009497869018190385759 169.46049677206445949
48.009497869018190385759 1178.96051375739784817 48.009497869018190385759 168.86510259228171549
50.009497869018190385759 1183.55881980456069869 50.009497869018190385759 168.34000593480746488
52.009497869018190385759 1187.92108626499498314 52.009497869018190385759 167.96960474156290388
54.009497869018190385759 1192.05465356590502779 54.009497869018190385759 167.61843616106750687
56.009497869018190385759 1195.96854312010714239 56.009497869018190385759 167.46500704114538394
58.009497869018218807469 1199.69010775894139442 58.009497869018218807469 167.32591701028388798
60.009497869018190385759 1203.26298560683176220 60.009497869018190385759 167.12937997743856045
62.009497869018190385759 1206.67556679131212150 62.009497869018190385759 166.90476043492225244
64.009497869018190385759 1209.93918758740142039 64.009497869018190385759 166.72187028664197328
66.009497869018190385759 1213.06144112687024972 66.009497869018190385759 166.52026583872819288
68.009497869018190385759 1216.04670634072613211 68.009497869018190385759 166.10494886721494368
70.009497869018190385759 1218.89491356999997151 70.009497869018190385759 165.78190256434490379
72.009497869018218807469 1221.62289973216911676 72.009497869018218807469 164.91860881394802618
74.009497869018190385759 1224.24379528622739599 74.009497869018190385759 164.15866259442066166
76.009497869018190385759 1226.76733841455552465 76.009497869018190385759 163.52459168824674407
78.009497869018190385759 1229.18946579469479730 78.009497869018190385759 162.69252246874441425
80.009497869018190385759 1231.51016108774570057 80.009497869018190385759 162.14429102394683468
82.009497869018218807469 1233.73169829532298536 82.009497869018218807469 161.63913399993620601
84.009497869018190385759 1235.86160821422640765 84.009497869018190385759 160.93008832057807922
86.009497869018190385759 1237.88246314606863052 86.009497869018190385759 160.15241160812499288
88.009497869018190385759 1239.81553700367044257 88.009497869018190385759 159.65252523769260051
91.009497869018218807469 1242.58652901309369554 91.009497869018218807469 159.21464957191659551
94.009497869018190385759 1245.24115499556796749 94.009497869018190385759 158.93108377962096256
97.009497869018190385759 1247.78846267342669307 97.009497869018190385759 158.92025010503400040
99.504748934509109403734 1249.82426821391163685 99.504748934509109403734 155.17138336767030182
nan nan nan nan

