Time Pressure difference Time.1 Pressure.1 difference.1
(hr) (psi) (hr) (psi)
0.000200000000006639311 0.58727565799137271 0.000200000000006639311 0.46899399466277630
0.000399999999999067768 1.17247982517778726 0.000399999999999067768 1.21955317734120761
0.000600000000005707079 1.75597254608363174 0.000600000000005707079 1.78059140752839773
0.000799999999998135536 2.33792030375326876 0.000799999999998135536 2.34956715955609097
0.001007140329434719206 2.93912659194371662 0.001007140329434719206 2.94457910323493310
0.001267914553963578328 3.69393495763877233 0.001267914553963578328 3.69582228545226776
0.001596209851982166583 4.64109331741299247 0.001596209851982166583 4.63604837094973554
0.002009509145210586212 5.82887886308402781 0.002009509145210586212 5.81148006877516199
0.002529822128138903281 7.31732313942231372 0.002529822128138903281 7.27898965649630014
0.003184857364445292660 9.18088973207775538 0.003184857364445292660 9.10823155742522950
0.004009497869020606231 11.51168057152985646 0.004009497869020606231 11.38403190634799422
0.005047658755842121536 14.42321272673523325 0.005047658755842121536 14.20897371472176474
0.006354625877804664924 18.05481317647971551 0.006354625877804664924 17.70605305306084531
0.008000000000009777068 22.57661569770669985 0.008000000000009777068 22.02117442723219654
0.010071403294347192059 28.19510006775157507 0.010071403294347192059 27.32512771382500105
0.012679145539692626699 35.15899225633432934 0.012679145539692626699 33.81441565030444707
0.015962098519750611558 43.76517414474976420 0.015962098519750611558 41.71012895187246983
0.020095091452091651263 54.36405022789085706 0.020095091452091651263 51.25374472773406609
0.025298221281346400247 67.36350016279169495 0.025298221281346400247 62.69823545033577972
0.031848573644282396344 83.23011961453498486 0.031848573644282396344 76.29253054467176298
0.040094978690191851456 102.48597407903351098 0.040094978690191851456 92.25698966989875771
0.050476587558421215363 125.69848793176664969 0.050476587558421215363 110.74947311053425381
0.063546258777947173257 153.46150122559774331 0.063546258777947173257 131.81734603191685551
0.079999999999998294697 186.36297216260467735 0.079999999999998294697 155.33936010289761498
0.100714032943542974863 224.93918108858619576 0.100714032943542974863 180.96501133679316808
0.126791455396897845276 269.61442950854450373 0.126791455396897845276 208.04891168657547951
0.159620985197506115583 320.62499018628290059 0.159620985197506115583 235.62236432870511749
0.200950914520774404082 377.94575473637388541 0.200950914520774404082 262.40076378903216892
0.252982212813464002465 441.21775817968546107 0.252982212813464002465 286.87774927755975796
0.318485736442795541734 509.71845885033542345 0.318485736442795541734 307.50300015424272715
0.400949786901819038576 582.37151434000600148 0.400949786901819038576 322.93615228520116034
0.504765875584169521062 657.83429480655888710 0.504765875584169521062 332.33474125249392728
0.635462587779443310865 734.64030581678287035 0.635462587779443310865 335.55994844350016137
0.799999999999997157829 811.38102646464267309 0.799999999999997157829 333.24076828128426087
1.007140329435330272645 886.87688565656083028 1.007140329435330272645 326.65216689425358254
1.267914553968893187630 960.30147438303720264 1.267914553968893187630 317.43231059202634015
1.596209851975103788391 1031.22064040556801956 1.596209851975103788391 307.22808122414397758
2.009509145207687197399 1099.55205351099084510 2.009509145207687197399 297.42174497872252914
2.529822128134711078928 1165.47732418416353539 2.529822128134711078928 288.96102767044953907
3.184857364427983839050 1229.32291670723952848 3.184857364427983839050 282.32516261173515204
4.009497869018190385759 1291.45657332675068574 4.009497869018190385759 277.59875113185978535
5.009497869018190385759 1350.22362203444367879 5.009497869018190385759 274.64381892801685581
6.009497869018190385759 1397.44985691572901487 6.009497869018190385759 273.22502929252465265
7.009497869018204596614 1436.87938156608925055 7.009497869018204596614 272.57567200447942923
8.009497869018190385759 1470.67126687947370556 8.009497869018190385759 272.41218537287051049
9.009497869018204596614 1500.21321434572996623 9.009497869018204596614 272.46244548733488955
10.009497869018190385759 1526.39039701121441794 10.009497869018190385759 272.53078132461212135
11.009497869018190385759 1549.89008218893286539 11.009497869018190385759 272.55098551179213473
12.009497869018190385759 1571.14431223414726446 12.009497869018190385759 272.76095398860468322
13.009497869018190385759 1590.52378073686759308 13.009497869018190385759 272.85487495784934708
14.009497869018204596614 1608.34541799210501267 14.009497869018204596614 272.90076339197929656
15.009497869018190385759 1624.78429787755294456 15.009497869018190385759 273.07315921569721695
16.009497869018190385759 1640.02168387596134380 16.009497869018190385759 273.07420703032289566
17.009497869018190385759 1654.23434393327943326 17.009497869018190385759 272.87305501233635141
18.009497869018190385759 1667.51134406740857230 18.009497869018190385759 272.94482965458445278
19.009497869018204596614 1679.93539703400119834 19.009497869018204596614 272.93460793235192341
20.009497869018190385759 1691.61634022047019243 20.009497869018190385759 272.93901768391879159
21.009497869018204596614 1702.67261578427019231 21.009497869018204596614 272.78608798950364189
22.009497869018190385759 1713.13249474119970728 22.009497869018190385759 272.71570571219251633
23.009497869018190385759 1723.03729409692778063 23.009497869018190385759 273.10070648504927249
24.009497869018190385759 1732.41693606290414209 24.009497869018190385759 273.14822326927708218
25.009497869018190385759 1741.33865849566723227 25.009497869018190385759 273.14093414084948108
26.009497869018204596614 1749.88209525720208148 26.009497869018204596614 273.27666132656543141
27.009497869018190385759 1758.05627339739953641 27.009497869018190385759 273.19342586745136714
28.009497869018190385759 1765.86747553383565901 28.009497869018190385759 273.29055339995750273
29.009497869018190385759 1773.33930032553303136 29.009497869018190385759 273.60559910914020065
30.009497869018190385759 1780.48231115381531708 30.009497869018190385759 273.62287736055031928
31.009497869018190385759 1787.33301263038219986 31.009497869018190385759 273.52279839518047311
32.009497869018190385759 1793.92988455864951902 32.009497869018190385759 273.39834370748309311
33.009497869018190385759 1800.29126463015745685 33.009497869018190385759 273.28818283920509202
34.009497869018190385759 1806.41764192466393979 34.009497869018190385759 273.07286336489823952
35.009497869018190385759 1812.31384378109282807 35.009497869018190385759 273.02125282413066998
36.009497869018190385759 1817.99525989611083787 36.009497869018190385759 273.01369768138522431
37.009497869018190385759 1823.47063616215768889 37.009497869018190385759 272.91163443266384547
38.009497869018190385759 1828.74631907214552484 38.009497869018190385759 272.66990815441630502
39.009497869018190385759 1833.84393108166295860 39.009497869018190385759 272.28940169747863820
40.009497869018190385759 1838.78082810108548983 40.009497869018190385759 271.75985767459866338
41.009497869018190385759 1843.57106304085323245 41.009497869018190385759 271.45554476765016716
42.009497869018190385759 1848.21054075993606602 42.009497869018190385759 270.88223038899792527
43.009497869018190385759 1852.70252494576402569 43.009497869018190385759 270.49926113850125375
44.009497869018218807469 1857.04803745401090964 44.009497869018218807469 270.15833934048259835
46.009497869018190385759 1865.33673830760812962 46.009497869018190385759 269.23274430977426164
48.009497869018190385759 1873.09007466624757399 48.009497869018190385759 268.28680344436673977
50.009497869018190385759 1880.39569798162801817 50.009497869018190385759 267.45254875485142065
52.009497869018190385759 1887.32631008843009113 52.009497869018190385759 266.86406865682016587
54.009497869018190385759 1893.89357319347209341 54.009497869018190385759 266.30614464241511996
56.009497869018190385759 1900.11182019306897928 56.009497869018190385759 266.06238197323546046
58.009497869018218807469 1906.02450828218343304 58.009497869018218807469 265.84140073319258590
60.009497869018190385759 1911.70096814388762141 60.009497869018190385759 265.52914976190800189
62.009497869018190385759 1917.12275443024191190 62.009497869018190385759 265.17228230896631658
64.009497869018190385759 1922.30787780739956361 64.009497869018190385759 264.88171301720416295
66.009497869018190385759 1927.26840197010619704 66.009497869018190385759 264.56141111905805019
68.009497869018190385759 1932.01128400650168260 68.009497869018190385759 263.90157044746285919
70.009497869018190385759 1936.53641324492150488 70.009497869018190385759 263.38832609661091055
72.009497869018218807469 1940.87053957447983521 72.009497869018218807469 262.01675602575562607
74.009497869018190385759 1945.03452419632071724 74.009497869018190385759 260.80938079607955160
76.009497869018190385759 1949.04383878447379175 76.009497869018190385759 259.80199173840549065
78.009497869018190385759 1952.89202767831307028 78.009497869018190385759 258.48003007955571775
80.009497869018190385759 1956.57906491918265601 80.009497869018190385759 257.60901967175374239
82.009497869018218807469 1960.10856335908601977 82.009497869018218807469 256.80644435495480593
84.009497869018190385759 1963.49248765720903975 84.009497869018190385759 255.67993807336790724
86.009497869018190385759 1966.70314931296752547 86.009497869018190385759 254.44439327403233619
88.009497869018190385759 1969.77434755414606116 88.009497869018190385759 253.65019178213185569
91.009497869018218807469 1974.17680002754445923 91.009497869018218807469 252.95451066819109087
94.009497869018190385759 1978.39437434127330562 94.009497869018190385759 252.50399153301577826
97.009497869018190385759 1982.44144519126439263 97.009497869018190385759 252.48677938035737611
99.504748934509109403734 1985.67585983648427828 99.504748934509109403734 246.53071469874811328
nan nan nan nan

