Time Pressure difference Time.1 Pressure.1 difference.1
(hr) (psi) (hr) (psi)
0.000200000000006639311 0.40037746414687642 0.000200000000006639311 0.31973848009541467
0.000399999999999067768 0.79934268138004727 0.000399999999999067768 0.83143512231748540
0.000600000000005707079 1.19714111345447027 0.000600000000005707079 1.21392511800380154
0.000799999999998135536 1.59388626083320450 0.000799999999998135536 1.60182655007925878
0.001007140329434719206 2.00376098630392008 0.001007140329434719206 2.00747825708520189
0.001267914553963578328 2.51835452557551420 0.001267914553963578328 2.51964121865345536
0.001596209851982166583 3.16408342148947952 0.001596209851982166583 3.16064400961495373
0.002009509145210586212 3.97386083735007256 0.002009509145210586212 3.96199914165435407
0.002529822128138903281 4.98861351230771621 0.002529822128138903281 4.96247951121812747
0.003184857364445292660 6.25910728551835671 0.003184857364445292660 6.20957229233233488
0.004009497869020606231 7.84813300633294375 0.004009497869020606231 7.76110803233342672
0.005047658755842121536 9.83308137805711802 0.005047658755842121536 9.68702309829687636
0.006354625877804664924 12.30893911041474276 0.006354625877804664924 12.07117053971050602
0.008000000000009777068 15.39169556760202262 0.008000000000009777068 15.01302132097018216
0.010071403294347192059 19.22211914095651863 0.010071403294347192059 18.62901210475763847
0.012679145539692626699 23.96977972779794541 0.012679145539692626699 23.05310939667148418
0.015962098519750611558 29.83707770547296434 0.015962098519750611558 28.43604265177161139
0.020095091452091651263 37.06290270133435882 0.020095091452091651263 34.94243982852591301
0.025298221281346400247 45.92532825808429209 0.025298221281346400247 42.74476589400543958
0.031848573644282396344 56.74245778529824946 0.031848573644282396344 52.01272945195444208
0.040094978690191851456 69.87021146547971284 0.040094978690191851456 62.89656155713041841
0.050476587558421215363 85.69543307370794594 0.050476587558421215363 75.50388407252830802
0.063546258777947173257 104.62297537586722740 0.063546258777947173257 89.86698838385278520
0.079999999999998294697 127.05368116319017702 0.079999999999998294697 105.90321296972653897
0.100714032943542974863 153.35316164738128464 0.100714032943542974863 123.37360037388161516
0.126791455396897845276 183.81068602987053850 0.126791455396897845276 141.83815478490717510
0.159620985197506115583 218.58733418640503032 0.159620985197506115583 160.63646337543968912
0.200950914520774404082 257.66598837755617524 0.200950914520774404082 178.89274136678005789
0.252982212813464002465 300.80192283254370977 0.252982212813464002465 195.58002143109447957
0.318485736442795541734 347.50254196020040354 0.318485736442795541734 209.64136644178927327
0.400949786901819038576 397.03404513703378598 0.400949786901819038576 220.16297793701124874
0.504765875584169521062 448.48108924577275047 0.504765875584169521062 226.57050252291668357
0.635462587779443310865 500.84388600238941081 0.635462587779443310865 228.76930007039192105
0.799999999999997157829 553.16217080050614641 0.799999999999997157829 227.18818997394484427
1.007140329435330272645 604.63176645892826855 1.007140329435330272645 222.69638535082069097
1.267914553968893187630 654.68926542096733101 1.267914553968893187630 216.41071245453565552
1.596209851975103788391 703.03868270931229745 1.596209851975103788391 209.45393939184921805
2.009509145207687197399 749.62388938090180091 2.009509145207687197399 202.76843151307531343
2.529822128134711078928 794.56869909019349052 2.529822128134711078928 197.00030457872233569
3.184857364427983839050 838.09568013138539300 3.184857364427983839050 192.47627776358746132
4.009497869018190385759 880.45554221144823259 4.009497869018190385759 189.25402835297938964
5.009497869018190385759 920.52020625261923215 5.009497869018190385759 187.23949182928450341
6.009497869018190385759 952.71687557762561482 6.009497869018190385759 186.27222647665752220
7.009497869018204596614 979.59810737603265807 7.009497869018204596614 185.82952461974409175
8.009497869018190385759 1002.63585662787318142 8.009497869018190385759 185.71806697273493114
9.009497869018204596614 1022.77619422155851225 9.009497869018204596614 185.75233200126652378
10.009497869018190385759 1040.62259032447718710 10.009497869018190385759 185.79892022413443442
11.009497869018190385759 1056.64359210051725313 11.009497869018190385759 185.81269450733213944
12.009497869018190385759 1071.13374610588266478 12.009497869018190385759 185.95584133310813968
13.009497869018190385759 1084.34577413744023033 13.009497869018190385759 186.01987231921270904
14.009497869018204596614 1096.49574465656951361 14.009497869018204596614 186.05115693767191942
15.009497869018190385759 1107.70301496036859135 15.009497869018190385759 186.16868846105523971
16.009497869018190385759 1118.09116213325796707 16.009497869018190385759 186.16940281275196867
17.009497869018190385759 1127.78069840995863160 17.009497869018190385759 186.03226664207372210
18.009497869018190385759 1136.83234489461210615 18.009497869018190385759 186.08119928360636663
19.009497869018204596614 1145.30249133011125195 19.009497869018204596614 186.07423058471516697
20.009497869018190385759 1153.26601978255530412 20.009497869018190385759 186.07723694999833697
21.009497869018204596614 1160.80367865349103340 21.009497869018204596614 185.97297653598408829
22.009497869018190385759 1167.93474181790406874 22.009497869018190385759 185.92499314466306259
23.009497869018190385759 1174.68737730511907102 23.009497869018190385759 186.18746891908591579
24.009497869018190385759 1181.08198469917920193 24.009497869018190385759 186.21986367155804487
25.009497869018190385759 1187.16440367031350434 25.009497869018190385759 186.21489427990022136
26.009497869018204596614 1192.98892491367951152 26.009497869018204596614 186.30742681669664762
27.009497869018190385759 1198.56170265565287991 27.009497869018190385759 186.25068071868676611
28.009497869018190385759 1203.88702009520352476 28.009497869018190385759 186.31689779176733168
29.009497869018190385759 1208.98096570991060617 29.009497869018190385759 186.53168142942800500
30.009497869018190385759 1213.85074112608049290 30.009497869018190385759 186.54346094453362070
31.009497869018190385759 1218.52123350473016217 31.009497869018190385759 186.47523172061806918
32.009497869018190385759 1223.01867660151219752 32.009497869018190385759 186.39038425319216685
33.009497869018190385759 1227.35557220896157560 33.009497869018190385759 186.31528165275372544
34.009497869018190385759 1231.53225375910619732 34.009497869018190385759 186.16848676362224069
35.009497869018190385759 1235.55201230903367104 35.009497869018190385759 186.13330107670577718
36.009497869018190385759 1239.42533984430770033 36.009497869018190385759 186.12815032875201382
37.009497869018190385759 1243.15819891111732431 37.009497869018190385759 186.05856831194338952
38.009497869018190385759 1246.75491625569179632 38.009497869018190385759 185.89377048151149552
39.009497869018190385759 1250.23023307123276027 39.009497869018190385759 185.63435872444793517
40.009497869018190385759 1253.59598181714750353 40.009497869018190385759 185.27334002709557126
41.009497869018190385759 1256.86174311978948026 41.009497869018190385759 185.06587351910519601
42.009497869018190385759 1260.02472510083339330 42.009497869018190385759 184.67501421145263407
43.009497869018190385759 1263.08715279187867964 43.009497869018190385759 184.41392343530071685
44.009497869018218807469 1266.04972284700602358 44.009497869018218807469 184.18149867342665971
46.009497869018190385759 1271.70057689429563652 46.009497869018190385759 183.55047066097768038
48.009497869018190385759 1276.98644411475447669 48.009497869018190385759 182.90557179658381415
50.009497869018190385759 1281.96708122651307349 50.009497869018190385759 182.33681541702739537
52.009497869018190385759 1286.69205298815177230 52.009497869018190385759 181.93561682119849365
54.009497869018190385759 1291.16931015453110376 54.009497869018190385759 181.55524995423490964
56.009497869018190385759 1295.40862423346425203 56.009497869018190385759 181.38906380636422000
58.009497869018218807469 1299.43962233665138228 58.009497869018218807469 181.23840898641986996
60.009497869018190385759 1303.30957092695030042 60.009497869018190385759 181.02553067219184868
62.009497869018190385759 1307.00589481665724634 62.009497869018190385759 180.78223489805060353
64.009497869018190385759 1310.54087284747743070 64.009497869018190385759 180.58413815317172180
66.009497869018190385759 1313.92272949022799367 66.009497869018190385759 180.36577108824042170
68.009497869018190385759 1317.15620776680884774 68.009497869018190385759 179.91592214381483927
70.009497869018190385759 1320.24123222638195330 70.009497869018190385759 179.56601581126795963
72.009497869018218807469 1323.19603970990010566 72.009497869018218807469 178.63094258050099938
74.009497869018190385759 1326.03485242238571118 74.009497869018190385759 177.80780982137250135
76.009497869018190385759 1328.76821823778823273 76.009497869018190385759 177.12101841288748005
78.009497869018190385759 1331.39173598436605062 78.009497869018190385759 176.21976590996587220
80.009497869018190385759 1333.90538796470423222 80.009497869018190385759 175.62595117649971144
82.009497869018218807469 1336.31163725470923964 82.009497869018218807469 175.07879233251514961
84.009497869018190385759 1338.61864080731947979 84.009497869018190385759 174.31079229330032376
86.009497869018190385759 1340.80752187956204580 86.009497869018190385759 173.46845482048595954
88.009497869018190385759 1342.90132322644763008 88.009497869018190385759 172.92700486419738581
91.009497869018218807469 1345.90271232429472548 91.009497869018218807469 172.45272155879507636
94.009497869018190385759 1348.77806001767135058 94.009497869018190385759 172.14557838601643880
97.009497869018190385759 1351.53716631144197891 97.009497869018190385759 172.13384393399189776
99.504748934509109403734 1353.74224107664122130 99.504748934509109403734 168.07327367015076902
nan nan nan nan

