Time Pressure difference Time.1 Pressure.1 difference.1
(hr) (psi) (hr) (psi)
0.000200000000006639311 0.30235974470842947 0.000200000000006639311 0.24146225467786503
0.000399999999999067768 0.60365297929945483 0.000399999999999067768 0.62788876457171083
0.000600000000005707079 0.90406507323117669 0.000600000000005707079 0.91674013060868009
0.000799999999998135536 1.20368174054623744 0.000799999999998135536 1.20967814155363107
0.001007140329434719206 1.51321369090171554 0.001007140329434719206 1.51602092443778735
0.001267914553963578328 1.90182789898233851 0.001267914553963578328 1.90279959251007824
0.001596209851982166583 2.38947378718292658 0.001596209851982166583 2.38687638900382382
0.002009509145210586212 3.00100693940959840 0.002009509145210586212 2.99204914431988556
0.002529822128138903281 3.76733468564317109 0.002529822128138903281 3.74759863502779833
0.003184857364445292660 4.72679471354498304 0.003184857364445292660 4.68938654441694958
0.004009497869020606231 5.92680583880745093 0.004009497869020606231 5.86108573396134336
0.005047658755842121536 7.42581249297259571 0.005047658755842121536 7.31551121946071081
0.006354625877804664924 9.29554737798955699 0.006354625877804664924 9.11598771048677214
0.008000000000009777068 11.62360412159156908 0.008000000000009777068 11.33763435857499324
0.010071403294347192059 14.51628914379289093 0.010071403294347192059 14.06838258533564456
0.012679145539692626699 18.10165937949886583 0.012679145539692626699 17.40940211698842788
0.015962098519750611558 22.53256490620779573 0.015962098519750611558 21.47452183660760383
0.020095091452091651263 27.98941199851806516 0.020095091452091651263 26.38806659249674524
0.025298221281346400247 34.68219810361552646 0.025298221281346400247 32.28027963779663878
0.031848573644282396344 42.85115069263188303 0.031848573644282396344 39.27932265666269274
0.040094978690191851456 52.76505596148260224 0.040094978690191851456 47.49864814687856551
0.050476587558421215363 64.71605319259273870 0.050476587558421215363 57.01953071037407739
0.063546258777947173257 79.00988181911964148 0.063546258777947173257 67.86635637286808276
0.079999999999998294697 95.94925299460834367 0.079999999999998294697 79.97670025099679947
0.100714032943542974863 115.81027145154934033 0.100714032943542974863 93.17010484666579373
0.126791455396897845276 138.81138944994370377 0.126791455396897845276 107.11429116536560002
0.159620985197506115583 165.07425237313577782 0.159620985197506115583 121.31052420883828802
0.200950914520774404082 194.58593313159843774 0.200950914520774404082 135.09742294088783865
0.252982212813464002465 227.16161807270935924 0.252982212813464002465 147.69943527161493080
0.318485736442795541734 262.42930554670738275 0.318485736442795541734 158.31837631703587022
0.400949786901819038576 299.83483906614173975 0.400949786901819038576 166.26415761218277112
0.504765875584169521062 338.68696366278277310 0.504765875584169521062 171.10303510029390850
0.635462587779443310865 378.23065249972972879 0.635462587779443310865 172.76353781249511599
0.799999999999997157829 417.74072649664771006 0.799999999999997157829 171.56950446165129165
1.007140329435330272645 456.60988172416989528 1.007140329435330272645 168.17735325248699496
1.267914553968893187630 494.41264027641511802 1.267914553968893187630 163.43049654242940960
1.596209851975103788391 530.92547822860933593 1.596209851975103788391 158.17683389757908685
2.009509145207687197399 566.10600774823285519 2.009509145207687197399 153.12802711775813691
2.529822128134711078928 600.04773126313375542 2.529822128134711078928 148.77201424617206271
3.184857364427983839050 632.91872939382631102 3.184857364427983839050 145.35552926544781371
4.009497869018190385759 664.90833478208958240 4.009497869018190385759 142.92212929561100054
5.009497869018190385759 695.16463708704031887 5.009497869018190385759 141.40077806194926779
6.009497869018190385759 719.47913425364265549 6.009497869018190385759 140.67031211100277233
7.009497869018204596614 739.77948357858053896 7.009497869018204596614 140.33598954686067373
8.009497869018190385759 757.17728591814500305 8.009497869018190385759 140.25181821177491770
9.009497869018204596614 772.38700144532629110 9.009497869018204596614 140.27769470635064408
10.009497869018190385759 785.86436281765497824 10.009497869018190385759 140.31287751366170369
11.009497869018190385759 797.96321063192590373 11.009497869018190385759 140.32327966943753950
12.009497869018190385759 808.90598253639268478 12.009497869018190385759 140.43138225155882992
13.009497869018190385759 818.88353067640719019 13.009497869018190385759 140.47973760206104998
14.009497869018204596614 828.05902708504424936 14.009497869018204596614 140.50336333052399596
15.009497869018190385759 836.52260880824496780 15.009497869018190385759 140.59212157639854013
16.009497869018190385759 844.36759961930681584 16.009497869018190385759 140.59266104531474184
17.009497869018190385759 851.68500875772792824 17.009497869018190385759 140.48909763011374707
18.009497869018190385759 858.52069199510140152 18.009497869018190385759 140.52605091127119863
19.009497869018204596614 864.91723411651548759 19.009497869018204596614 140.52078824239899291
20.009497869018190385759 870.93118506400446677 20.009497869018190385759 140.52305860954231775
21.009497869018204596614 876.62352495823802201 21.009497869018204596614 140.44432252924940485
22.009497869018190385759 882.00880917368692735 22.009497869018190385759 140.40808610924764821
23.009497869018190385759 887.10830983208165890 23.009497869018190385759 140.60630432893626107
24.009497869018190385759 891.93743242842595009 24.009497869018190385759 140.63076841586541832
25.009497869018190385759 896.53079447301672644 25.009497869018190385759 140.62701559726906453
26.009497869018204596614 900.92939557796535155 26.009497869018204596614 140.69689494040991917
27.009497869018190385759 905.13788333331467584 27.009497869018190385759 140.65404104066800528
28.009497869018190385759 909.15949235405400941 28.009497869018190385759 140.70404729502763530
29.009497869018190385759 913.00637244482891219 29.009497869018190385759 140.86624904629002231
30.009497869018190385759 916.68396217820190941 30.009497869018190385759 140.87514477968926485
31.009497869018190385759 920.21105600772148136 31.009497869018190385759 140.82361897573645138
32.009497869018190385759 923.60746531732445419 32.009497869018190385759 140.75954329494177841
33.009497869018190385759 926.88263129473455137 33.009497869018190385759 140.70282680830365507
34.009497869018190385759 930.03680574339136911 34.009497869018190385759 140.59196925717532167
35.009497869018190385759 933.07247402590917318 35.009497869018190385759 140.56539749361184022
36.009497869018190385759 935.99755955047294265 36.009497869018190385759 140.56150771714882808
37.009497869018190385759 938.81656515279405539 37.009497869018190385759 140.50896030196557263
38.009497869018190385759 941.53275833417387730 38.009497869018190385759 140.38450716861035517
39.009497869018190385759 944.15727144798495374 39.009497869018190385759 140.18860285414740474
40.009497869018190385759 946.69904021045988429 40.009497869018190385759 139.91596632751614493
41.009497869018190385759 949.16529978340952312 41.009497869018190385759 139.75929037542383071
42.009497869018190385759 951.55394177739276529 42.009497869018190385759 139.46411861611778704
43.009497869018190385759 953.86664650672992138 43.009497869018190385759 139.26694632873332580
44.009497869018218807469 956.10394007533238891 44.009497869018218807469 139.09142223470394129
46.009497869018190385759 960.37139001975867814 46.009497869018190385759 138.61487825849766864
48.009497869018190385759 964.36320675886008758 48.009497869018190385759 138.12785919907989296
50.009497869018190385759 968.12451777271940045 50.009497869018190385759 137.69834193319081805
52.009497869018190385759 971.69275370889465648 52.009497869018190385759 137.39536208073909052
54.009497869018190385759 975.07391887188657620 54.009497869018190385759 137.10811407332261069
56.009497869018190385759 978.27539257464945877 56.009497869018190385759 136.98261250107174192
58.009497869018218807469 981.31954881854994710 58.009497869018218807469 136.86883998144571706
60.009497869018190385759 984.24208260873410836 60.009497869018190385759 136.70807710514074529
62.009497869018190385759 987.03349733042159642 62.009497869018190385759 136.52434336699258211
64.009497869018190385759 989.70306580182943890 64.009497869018190385759 136.37474333559026718
66.009497869018190385759 992.25699903411396008 66.009497869018190385759 136.20983542763383412
68.009497869018190385759 994.69887889443646145 68.009497869018190385759 135.87011547790166333
70.009497869018190385759 997.02864840332574659 70.009497869018190385759 135.60587086162146875
72.009497869018218807469 999.26007978092036410 72.009497869018218807469 134.89971597365635603
74.009497869018190385759 1001.40391344761076198 74.009497869018190385759 134.27809704352614517
76.009497869018190385759 1003.46811501774891440 76.009497869018190385759 133.75944129106025571
78.009497869018190385759 1005.44936078487398845 78.009497869018190385759 133.07882736769204257
80.009497869018190385759 1007.34763738413346346 80.009497869018190385759 132.63038636565536876
82.009497869018218807469 1009.16480489774733087 82.009497869018218807469 132.21717927185792973
84.009497869018190385759 1010.90702334826607967 84.009497869018190385759 131.63719583975375826
86.009497869018190385759 1012.56003727004258508 86.009497869018190385759 131.00107376484834276
88.009497869018190385759 1014.14124824569898919 88.009497869018190385759 130.59217794723619477
91.009497869018218807469 1016.40785743992375956 91.009497869018218807469 130.23400549253403824
94.009497869018190385759 1018.57928183907120001 94.009497869018190385759 130.00205504670120149
97.009497869018190385759 1020.66292227669055137 97.009497869018190385759 129.99319334434241568
99.504748934509109403734 1022.32816546036826821 99.504748934509109403734 126.92670459737526301
nan nan nan nan

