Time Pressure difference Time.1 Pressure.1 difference.1
(hr) (psi) (hr) (psi)
0.000200000000006639311 0.55903326425487099 0.000200000000006639311 0.44643982801704168
0.000399999999999067768 1.11609465678168429 0.000399999999999067768 1.16090422680428951
0.000600000000005707079 1.67152690737522480 0.000600000000005707079 1.69496183488912533
0.000799999999998135536 2.22548849282312577 0.000799999999998135536 2.23657524523514795
0.001007140329434719206 2.79778245598036968 0.001007140329434719206 2.80297275315008454
0.001267914553963578328 3.51629169234921379 0.001267914553963578328 3.51808825758044730
0.001596209851982166583 4.41790071091788317 0.001596209851982166583 4.41309837857025666
0.002009509145210586212 5.54856502808423002 0.002009509145210586212 5.53200295089912863
0.002529822128138903281 6.96542924021388554 0.002529822128138903281 6.92893923454315441
0.003184857364445292660 8.73937594015322361 0.003184857364445292660 8.67021193514452548
0.004009497869020606231 10.95807782834454436 0.004009497869020606231 10.83656785427468172
0.005047658755842121536 13.72959287849054100 0.005047658755842121536 13.52565673268422763
0.006354625877804664924 17.18654776205211832 0.006354625877804664924 16.85455969548790733
0.008000000000009777068 21.49089443360199425 0.008000000000009777068 20.96216462450816209
0.010071403294347192059 26.83918294992476561 0.010071403294347192059 26.01104802178815589
0.012679145539692626699 33.46817791868883774 0.012679145539692626699 32.18826270531101841
0.015962098519750611558 41.66048401614793306 0.015962098519750611558 39.70426702207944913
0.020095091452091651263 51.74965460165565645 0.020095091452091651263 48.78892532074260657
0.025298221281346400247 64.12395418608035413 0.025298221281346400247 59.68304449515697030
0.031848573644282396344 79.22753960478367219 0.031848573644282396344 72.62358282399446807
0.040094978690191851456 97.55736995076314599 0.040094978690191851456 87.82030275508043360
0.050476587558421215363 119.65358186432666798 0.050476587558421215363 105.42347298923557730
0.063546258777947173257 146.08145731941624490 0.063546258777947173257 125.47818087620940730
0.079999999999998294697 177.40067930047092659 0.079999999999998294697 147.86900898055176867
0.100714032943542974863 214.12173815080413419 0.100714032943542974863 172.26230923573098153
0.126791455396897845276 256.64853049398936946 0.126791455396897845276 198.04373064365671553
0.159620985197506115583 305.20596661296804086 0.159620985197506115583 224.29116151798947953
0.200950914520774404082 359.77014559770810820 0.200950914520774404082 249.78177373411406847
0.252982212813464002465 419.99936528278408332 0.252982212813464002465 273.08164818076056690
0.318485736442795541734 485.20583140915948661 0.318485736442795541734 292.71501994880532038
0.400949786901819038576 554.36496343822363997 0.400949786901819038576 307.40598371703021030
0.504765875584169521062 626.19869929959565980 0.504765875584169521062 316.35258962224668267
0.635462587779443310865 699.31106904483010567 0.635462587779443310865 319.42269491156378081
0.799999999999997157829 772.36128827539539543 0.799999999999997157829 317.21504533706405482
1.007140329435330272645 844.22651208891852548 1.007140329435330272645 310.94329323880145921
1.267914553968893187630 914.12007391765757802 1.267914553968893187630 302.16682465124995360
1.596209851975103788391 981.62870013146721249 1.596209851975103788391 292.45332201393057403
2.009509145207687197399 1046.67401982022170159 2.009509145207687197399 283.11857761058024607
2.529822128134711078928 1109.42890972551913364 2.529822128134711078928 275.06474062547749782
3.184857364427983839050 1170.20413429133282079 3.184857364427983839050 268.74799779023726387
4.009497869018190385759 1229.34975084710504234 4.009497869018190385759 264.24888191194008868
5.009497869018190385759 1285.29066142741248768 5.009497869018190385759 261.43605394420842458
6.009497869018190385759 1330.24576195797112632 6.009497869018190385759 260.08549464479364133
7.009497869018204596614 1367.77910013292512303 7.009497869018204596614 259.46736528856388304
8.009497869018190385759 1399.94591599700970619 8.009497869018190385759 259.31174081462779668
9.009497869018204596614 1428.06717574918843638 9.009497869018204596614 259.35958389388457590
10.009497869018190385759 1452.98548400077402221 10.009497869018190385759 259.42463342498439260
11.009497869018190385759 1475.35505702001682948 11.009497869018190385759 259.44386598222928342
12.009497869018190385759 1495.58716001920947747 12.009497869018190385759 259.64373696510739364
13.009497869018190385759 1514.03465973962079261 13.009497869018190385759 259.73314122578869956
14.009497869018204596614 1530.99924513251289682 14.009497869018204596614 259.77682286110621135
15.009497869018190385759 1546.64757068117819472 15.009497869018190385759 259.94092807944019796
16.009497869018190385759 1561.15218281261945776 16.009497869018190385759 259.94192550411219145
17.009497869018190385759 1574.68134860975533229 17.009497869018190385759 259.75044699194114628
18.009497869018190385759 1587.31985085907490429 18.009497869018190385759 259.81876995408106268
19.009497869018204596614 1599.14642461652442762 19.009497869018204596614 259.80903979982019791
20.009497869018190385759 1610.26562513207409211 20.009497869018190385759 259.81323748412631858
21.009497869018204596614 1620.79019861784126988 21.009497869018204596614 259.66766225874954443
22.009497869018190385759 1630.74705652167949665 22.009497869018190385759 259.60066470198808020
23.009497869018190385759 1640.17552889283228978 23.009497869018190385759 259.96715058619258798
24.009497869018190385759 1649.10409896794112683 24.009497869018190385759 260.01238226339950188
25.009497869018190385759 1657.59677109983590526 25.009497869018190385759 260.00544367297271720
26.009497869018204596614 1665.72934951640309009 26.009497869018204596614 260.13464366729635913
27.009497869018190385759 1673.51042715198013866 27.009497869018190385759 260.05541104497132210
28.009497869018190385759 1680.94598448977581029 28.009497869018190385759 260.14786766360873571
29.009497869018190385759 1688.05848531695028214 29.009497869018190385759 260.44776265976150853
30.009497869018190385759 1694.85798501629096791 30.009497869018190385759 260.46420999101894722
31.009497869018190385759 1701.37923267361679791 31.009497869018190385759 260.36894387546880125
32.009497869018190385759 1707.65885757845967419 32.009497869018190385759 260.25047427883464479
33.009497869018190385759 1713.71431555317690254 33.009497869018190385759 260.14561110436363833
34.009497869018190385759 1719.54607215742407789 34.009497869018190385759 259.94064645626093579
35.009497869018190385759 1725.15872258087051705 35.009497869018190385759 259.89151789340866117
36.009497869018190385759 1730.56691642161604250 36.009497869018190385759 259.88432608143176594
37.009497869018190385759 1735.77897897755610757 37.009497869018190385759 259.78717110775500032
38.009497869018190385759 1740.80095153543697961 38.009497869018190385759 259.55706957273287117
39.009497869018190385759 1745.65341671564260650 39.009497869018190385759 259.19486187044282133
40.009497869018190385759 1750.35289577373487191 40.009497869018190385759 258.69078389675377139
41.009497869018190385759 1754.91276580833687149 41.009497869018190385759 258.40110555675892101
42.009497869018190385759 1759.32912861589375098 42.009497869018190385759 257.85536216661336084
43.009497869018190385759 1763.60509093139899051 43.009497869018190385759 257.49081010779542567
44.009497869018218807469 1767.74162546895240666 44.009497869018218807469 257.16628341746081787
46.009497869018190385759 1775.63171836070750942 46.009497869018190385759 256.28520073617835351
48.009497869018190385759 1783.01219271624404428 48.009497869018190385759 255.38475066203508845
50.009497869018190385759 1789.96648478307747610 50.009497869018190385759 254.59061571713579042
52.009497869018190385759 1796.56380012661043111 52.009497869018190385759 254.03043593499288022
54.009497869018190385759 1802.81524011203191549 54.009497869018190385759 253.49934277842345409
56.009497869018190385759 1808.73444835917325690 56.009497869018190385759 253.26730278357490533
58.009497869018218807469 1814.36279218374738775 58.009497869018218807469 253.05694864701362690
60.009497869018190385759 1819.76626811999494748 60.009497869018190385759 252.75971398835088166
62.009497869018190385759 1824.92731786641138569 62.009497869018190385759 252.42000847798351515
64.009497869018190385759 1829.86308594678916961 64.009497869018190385759 252.14341281552819396
66.009497869018190385759 1834.58505590648019279 66.009497869018190385759 251.83851440329007687
68.009497869018190385759 1839.09985026361505334 68.009497869018190385759 251.21040581491155308
70.009497869018190385759 1843.40736366878650188 70.009497869018190385759 250.72184365349238533
72.009497869018218807469 1847.53305959494332456 72.009497869018218807469 249.41623310513935508
74.009497869018190385759 1851.49679601714865385 74.009497869018190385759 248.26692118212380933
76.009497869018190385759 1855.31330056853016686 76.009497869018190385759 247.30797799143834936
78.009497869018190385759 1858.97642804456108934 78.009497869018190385759 246.04959016059549981
80.009497869018190385759 1862.48615373494999403 80.009497869018190385759 245.22046709913755080
82.009497869018218807469 1865.84591674775788306 82.009497869018218807469 244.45648804934171494
84.009497869018190385759 1869.06710635544800425 84.009497869018190385759 243.38415604437992101
86.009497869018190385759 1872.12336561191955298 86.009497869018190385759 242.20802924105197462
88.009497869018190385759 1875.04686832240508920 88.009497869018190385759 241.45202131453285688
91.009497869018218807469 1879.23760455238675604 91.009497869018218807469 240.78979586943790991
94.009497869018190385759 1883.25235351015112428 94.009497869018190385759 240.36094243524698300
97.009497869018190385759 1887.10479860498026028 97.009497869018190385759 240.34455802401774349
99.504748934509109403734 1890.18366855721910724 99.504748934509109403734 234.67492360998230083
nan nan nan nan

