Time Pressure difference Time.1 Pressure.1 difference.1
(hr) (psi) (hr) (psi)
0.000200000000006639311 0.16280909330453894 0.000200000000006639311 0.13001813713423502
0.000399999999999067768 0.32504391193047566 0.000399999999999067768 0.33809395015399818
0.000600000000005707079 0.48680427020140277 0.000600000000005707079 0.49362930109698155
0.000799999999998135536 0.64813632183258940 0.000799999999998135536 0.65136515314426291
0.001007140329434719206 0.81480737202400066 0.001007140329434719206 0.81631895931265464
0.001267914553963578328 1.02406117637510530 0.001267914553963578328 1.02458439596696538
0.001596209851982166583 1.28663973156003730 0.001596209851982166583 1.28524113254052064
0.002009509145210586212 1.61592681352824541 0.002009509145210586212 1.61110338540301523
0.002529822128138903281 2.02856483073093852 0.002529822128138903281 2.01793772655342973
0.003184857364445292660 2.54519715344729880 0.003184857364445292660 2.52505429314758834
0.004009497869020606231 3.19135699012708862 0.004009497869020606231 3.15596924136380030
0.005047658755842121536 3.99851441929293605 0.005047658755842121536 3.93912142586345970
0.006354625877804664924 5.00529474199437630 0.006354625877804664924 4.90860876718518480
0.008000000000009777068 6.25886375778007586 0.008000000000009777068 6.10488003923268785
0.010071403294347192059 7.81646338511924910 0.010071403294347192059 7.57528293056534618
0.012679145539692626699 9.74704735819169699 0.012679145539692626699 9.37429344760915129
0.015962098519750611558 12.13291956488112255 0.015962098519750611558 11.56320406586563365
0.020095091452091651263 15.07122184535588083 0.020095091452091651263 14.20895893442132518
0.025298221281346400247 18.67502974810066974 0.025298221281346400247 17.38168903573664892
0.031848573644282396344 23.07369652680177907 0.031848573644282396344 21.15040450743375544
0.040094978690191851456 28.41195321002908969 0.040094978690191851456 25.57619515601153992
0.050476587558421215363 34.84710556524223790 0.050476587558421215363 30.70282422866296557
0.063546258777947173257 42.54378251798749488 0.063546258777947173257 36.54342266231358849
0.079999999999998294697 51.66498238171219270 0.079999999999998294697 43.06437705822904860
0.100714032943542974863 62.35937693544964588 0.100714032943542974863 50.16851799435850268
0.126791455396897845276 74.74459431920045915 0.126791455396897845276 57.67692601211994230
0.159620985197506115583 88.88613589322694963 0.159620985197506115583 65.32105149706677594
0.200950914520774404082 104.77704091701454558 0.200950914520774404082 72.74476619893961526
0.252982212813464002465 122.31779434684349894 0.252982212813464002465 79.53046514625418695
0.318485736442795541734 141.30808760207318642 0.318485736442795541734 85.24835647840393449
0.400949786901819038576 161.44952872792245557 0.400949786901819038576 89.52685409886764489
0.504765875584169521062 182.36990351072918770 0.504765875584169521062 92.13240351554287599
0.635462587779443310865 203.66265903831600781 0.635462587779443310865 93.02652036057429541
0.799999999999997157829 224.93731426742570534 0.799999999999997157829 92.38357932550454166
1.007140329435330272645 245.86685938993764466 1.007140329435330272645 90.55703636672376433
1.267914553968893187630 266.22219091806971392 1.267914553968893187630 88.00103659976969084
1.596209851975103788391 285.88294981540502704 1.596209851975103788391 85.17214132946567418
2.009509145207687197399 304.82631186443308025 2.009509145207687197399 82.45355306340822210
2.529822128134711078928 323.10262452630274765 2.529822128134711078928 80.10800767101572717
3.184857364427983839050 340.80239275052184666 3.184857364427983839050 78.26836191216419536
4.009497869018190385759 358.02756488266356882 4.009497869018190385759 76.95806962071361568
5.009497869018190385759 374.31941996994476085 5.009497869018190385759 76.13888049489577270
6.009497869018190385759 387.41184152119217288 6.009497869018190385759 75.74555267515533785
7.009497869018204596614 398.34279885000489685 7.009497869018204596614 75.56553283292498691
8.009497869018190385759 407.71084626361647452 8.009497869018190385759 75.52020980634034686
9.009497869018204596614 415.90069308594490849 9.009497869018204596614 75.53414330341956884
10.009497869018190385759 423.15773382489112464 10.009497869018190385759 75.55308789197168551
11.009497869018190385759 429.67249803257544727 11.009497869018190385759 75.55868905277405645
12.009497869018190385759 435.56475982728835561 12.009497869018190385759 75.61689813545476113
13.009497869018190385759 440.93728574883465399 13.009497869018190385759 75.64293563187902691
14.009497869018204596614 445.87793766117766836 14.009497869018204596614 75.65565717797446155
15.009497869018190385759 450.43525089674733408 15.009497869018190385759 75.70345007959922157
16.009497869018190385759 454.65947671808834230 16.009497869018190385759 75.70374056286179609
17.009497869018190385759 458.59962010031506452 17.009497869018190385759 75.64797564698433519
18.009497869018190385759 462.28037261274687353 18.009497869018190385759 75.66787356760757177
19.009497869018204596614 465.72466452427755712 19.009497869018204596614 75.66503982283023788
20.009497869018190385759 468.96294580369470850 20.009497869018190385759 75.66626232821509745
21.009497869018204596614 472.02805190058973039 21.009497869018204596614 75.62386597728813342
22.009497869018190385759 474.92782032429300898 22.009497869018190385759 75.60435405882564908
23.009497869018190385759 477.67370529419775949 23.009497869018190385759 75.71108694635029224
24.009497869018190385759 480.27400207684468114 24.009497869018190385759 75.72425991623522634
25.009497869018190385759 482.74735087008593837 25.009497869018190385759 75.72223916776026442
26.009497869018204596614 485.11582838813518492 26.009497869018204596614 75.75986650637456421
27.009497869018190385759 487.38193717947706318 27.009497869018190385759 75.73679132959047422
28.009497869018190385759 489.54741895987524458 28.009497869018190385759 75.76371777424563447
29.009497869018190385759 491.61881593183096584 29.009497869018190385759 75.85105717877155485
30.009497869018190385759 493.59905655749338393 30.009497869018190385759 75.85584718906346779
31.009497869018190385759 495.49826092723458260 31.009497869018190385759 75.82810252539655949
32.009497869018190385759 497.32709670932854351 32.009497869018190385759 75.79360023573788396
33.009497869018190385759 499.09064762024166839 33.009497869018190385759 75.76306058908657803
34.009497869018190385759 500.78904924644149332 34.009497869018190385759 75.70336806155593479
35.009497869018190385759 502.42363986010497001 35.009497869018190385759 75.68906018886791287
36.009497869018190385759 503.99868591179307487 36.009497869018190385759 75.68696569384937334
37.009497869018190385759 505.51661200535062335 37.009497869018190385759 75.65867093182760073
38.009497869018190385759 506.97917756455524341 38.009497869018190385759 75.59165770617480007
39.009497869018190385759 508.39237693353032910 39.009497869018190385759 75.48617076761783551
40.009497869018190385759 509.76102165178605219 40.009497869018190385759 75.33936648404716152
41.009497869018190385759 511.08900757568198969 41.009497869018190385759 75.25500250984360662
42.009497869018190385759 512.37519941859613937 42.009497869018190385759 75.09606387021725027
43.009497869018190385759 513.62050196516236156 43.009497869018190385759 74.98989417701024252
44.009497869018218807469 514.82519850210212553 44.009497869018218807469 74.89538120330210802
46.009497869018190385759 517.12305616448543333 46.009497869018190385759 74.63878060072951826
48.009497869018190385759 519.27249594707859615 48.009497869018190385759 74.37653956873532479
50.009497869018190385759 521.29781726223359328 50.009497869018190385759 74.14526104094889547
52.009497869018190385759 523.21917507402019965 52.009497869018190385759 73.98211804347491238
54.009497869018190385759 525.03980246947730848 54.009497869018190385759 73.82744603948141560
56.009497869018190385759 526.76367292481120330 56.009497869018190385759 73.75986826980785338
58.009497869018218807469 528.40283397921916730 58.009497869018218807469 73.69860614385537190
60.009497869018190385759 529.97650602008764054 60.009497869018190385759 73.61204151815270791
62.009497869018190385759 531.47957548561157637 62.009497869018190385759 73.51310796684215632
64.009497869018190385759 532.91703543175435698 64.009497869018190385759 73.43255410377936698
66.009497869018190385759 534.29223024913824247 66.009497869018190385759 73.34375753795667663
68.009497869018190385759 535.60708863546585690 68.009497869018190385759 73.16083141117780997
70.009497869018190385759 536.86157990948311181 70.009497869018190385759 73.01854584856540953
72.009497869018218807469 538.06311988203401597 72.009497869018218807469 72.63830860119958288
74.009497869018190385759 539.21749185640578617 74.009497869018190385759 72.30359071574483210
76.009497869018190385759 540.32898500955707277 76.009497869018190385759 72.02431454134014643
78.009497869018190385759 541.39580965339371232 78.009497869018190385759 71.65783012106494709
80.009497869018190385759 542.41795859145656777 80.009497869018190385759 71.41636188919905237
82.009497869018218807469 543.39643340647933201 82.009497869018218807469 71.19386576176964354
84.009497869018190385759 544.33455103368169148 84.009497869018190385759 70.88156699063664234
86.009497869018190385759 545.22463545309983601 86.009497869018190385759 70.53903971953370444
88.009497869018190385759 546.07605674768399240 88.009497869018190385759 70.31886504851179609
91.009497869018218807469 547.29653862149746146 91.009497869018218807469 70.12600295751833812
94.009497869018190385759 548.46576714411537523 94.009497869018190385759 70.00110656360833161
97.009497869018190385759 549.58772737975652944 97.009497869018190385759 69.99633487772284468
99.504748934509109403734 550.48439678635202199 99.504748934509109403734 68.34514862935591850
nan nan nan nan

