Time Pressure difference Time.1 Pressure.1 difference.1
(hr) (psi) (hr) (psi)
0.000200000000006639311 0.67947876695465748 0.000200000000006639311 0.54262671518267480
0.000399999999999067768 1.35656081611800561 0.000399999999999067768 1.41102475115291082
0.000600000000005707079 2.03166271951401800 0.000600000000005707079 2.06014677702719862
0.000799999999998135536 2.70497709826050059 0.000799999999998135536 2.71845252689799510
0.001007140329434719206 3.40057362405935004 0.001007140329434719206 3.40688218733546710
0.001267914553963578328 4.27388797078998017 0.001267914553963578328 4.27607161173968198
0.001596209851982166583 5.36975153273525851 0.001596209851982166583 5.36391452254156054
0.002009509145210586212 6.74402108911277853 0.002009509145210586212 6.72389065948809428
0.002529822128138903281 8.46615322213218136 0.002529822128138903281 8.42180132816686466
0.003184857364445292660 10.62230240571372519 0.003184857364445292660 10.53823679487105736
0.004009497869020606231 13.31903070369366660 0.004009497869020606231 13.17134101752851372
0.005047658755842121536 16.68767752541644001 0.005047658755842121536 16.43980268549137946
0.006354625877804664924 20.88944438240510237 0.006354625877804664924 20.48592842631367716
0.008000000000009777068 26.12117629522500906 0.008000000000009777068 25.47852995965478939
0.010071403294347192059 32.62177065830380229 0.010071403294347192059 31.61521141429822990
0.012679145539692626699 40.67900377041228666 0.012679145539692626699 39.12332673543003381
0.015962098519750611558 50.63636838812631424 0.015962098519750611558 48.25867819325555530
0.020095091452091651263 62.89928300765873104 0.020095091452091651263 59.30065514467676024
0.025298221281346400247 77.93966496911401975 0.025298221281346400247 72.54194709812541930
0.031848573644282396344 96.29736611695845738 0.031848573644282396344 88.27056575041230246
0.040094978690191851456 118.57641696838672374 0.040094978690191851456 106.74146753886446959
0.050476587558421215363 145.43332832840894753 0.050476587558421215363 128.13729703595052456
0.063546258777947173257 177.55517397813150637 0.063546258777947173257 152.51285580496178795
0.079999999999998294697 215.62222238898252158 0.079999999999998294697 179.72785935526204071
0.100714032943542974863 260.25495067958064510 0.100714032943542974863 209.37677407849619726
0.126791455396897845276 311.94427629135702773 0.126791455396897845276 240.71288509139853318
0.159620985197506115583 370.96356714622265827 0.159620985197506115583 272.61540879898274170
0.200950914520774404082 437.28377280672390270 0.200950914520774404082 303.59805485067653308
0.252982212813464002465 510.48957028427543037 0.252982212813464002465 331.91796168181593885
0.318485736442795541734 589.74497784946879619 0.318485736442795541734 355.78140611905314472
0.400949786901819038576 673.80466581347229749 0.400949786901819038576 373.63758496364147277
0.504765875584169521062 761.11520954987997811 0.504765875584169521062 384.51176569241874859
0.635462587779443310865 849.97987292521679592 0.635462587779443310865 388.24333497423356221
0.799999999999997157829 938.76899525895009901 0.799999999999997157829 385.56004024623837267
1.007140329435330272645 1026.11781112739299715 1.007140329435330272645 377.93701912234712381
1.267914553968893187630 1111.07016413765836660 1.267914553968893187630 367.26963233985514989
1.596209851975103788391 1193.12373953572091523 1.596209851975103788391 355.46332452807610025
2.009509145207687197399 1272.18328114850146449 2.009509145207687197399 344.11737962177511463
2.529822128134711078928 1348.45891256385539236 2.529822128134711078928 334.32831772903506362
3.184857364427983839050 1422.32835341799432172 3.184857364427983839050 326.65061247015466961
4.009497869018190385759 1494.21708201030014607 4.009497869018190385759 321.18214770277415937
5.009497869018190385759 1562.21064048681023451 5.009497869018190385759 317.76328696339152202
6.009497869018190385759 1616.85146104252658006 6.009497869018190385759 316.12174534835241957
7.009497869018204596614 1662.47147683318394229 7.009497869018204596614 315.37043804761549382
8.009497869018190385759 1701.56873593693012481 8.009497869018190385759 315.18128378360410125
9.009497869018204596614 1735.74881094032093642 9.009497869018204596614 315.23943480712864584
10.009497869018190385759 1766.03584831000466693 10.009497869018190385759 315.31849946751447078
11.009497869018190385759 1793.22501729921805236 11.009497869018190385759 315.34187574065907711
12.009497869018190385759 1817.81619152409120943 12.009497869018190385759 315.58480956531627726
13.009497869018190385759 1840.23826399258541642 13.009497869018190385759 315.69347625957675518
14.009497869018204596614 1860.85792350430256192 14.009497869018204596614 315.74656924277098824
15.009497869018190385759 1879.87773078336385879 15.009497869018190385759 315.94603145465390526
16.009497869018190385759 1897.50740793569502785 16.009497869018190385759 315.94724377765794543
17.009497869018190385759 1913.95147572478435904 17.009497869018190385759 315.71451060833260271
18.009497869018190385759 1929.31298365932116212 18.009497869018190385759 315.79755397093362035
19.009497869018204596614 1943.68763051458722657 19.009497869018204596614 315.78572742385273386
20.009497869018190385759 1957.20249830317493434 20.009497869018190385759 315.79082951265280599
21.009497869018204596614 1969.99462476878784400 21.009497869018204596614 315.61388963990663115
22.009497869018190385759 1982.09671951669224654 22.009497869018190385759 315.53245724550703244
23.009497869018190385759 1993.55658638088675616 23.009497869018190385759 315.97790368425785346
24.009497869018190385759 2004.40884540234173983 24.009497869018190385759 316.03288067081842883
25.009497869018190385759 2014.73129087617508048 25.009497869018190385759 316.02444713891782158
26.009497869018204596614 2024.61605929333973108 26.009497869018204596614 316.18148368476732912
27.009497869018190385759 2034.07359496332810522 27.009497869018190385759 316.08518014084188508
28.009497869018190385759 2043.11116688356105442 28.009497869018190385759 316.19755683333130492
29.009497869018190385759 2051.75607873590661256 29.009497869018190385759 316.56206516446491150
30.009497869018190385759 2060.02055236749765754 30.009497869018190385759 316.58205612578524324
31.009497869018190385759 2067.94682366570350496 31.009497869018190385759 316.46626462129790980
32.009497869018190385759 2075.57941381750379151 32.009497869018190385759 316.32227037159992733
33.009497869018190385759 2082.93953955794722788 33.009497869018190385759 316.19481409118787951
34.009497869018190385759 2090.02776675300583520 34.009497869018190385759 315.94568915486104288
35.009497869018190385759 2096.84968064064196369 35.009497869018190385759 315.88597568619360345
36.009497869018190385759 2103.42308712166686746 36.009497869018190385759 315.87723437535095172
37.009497869018190385759 2109.75810520600407472 37.009497869018190385759 315.75914705221930490
38.009497869018190385759 2115.86207779492951886 38.009497869018190385759 315.47946940638263413
39.009497869018190385759 2121.76002210014166849 39.009497869018190385759 315.03922289750704522
40.009497869018190385759 2127.47201893449482668 40.009497869018190385759 314.42653971403359492
41.009497869018190385759 2133.01432753524431973 41.009497869018190385759 314.07444925026567262
42.009497869018190385759 2138.38220981842641777 42.009497869018190385759 313.41112370325367920
43.009497869018190385759 2143.57944187501425404 43.009497869018190385759 312.96802773874685499
44.009497869018218807469 2148.60720599346677773 44.009497869018218807469 312.57358073623026939
46.009497869018190385759 2158.19724460484212614 46.009497869018190385759 311.50266597651398115
48.009497869018190385759 2167.16786573831768692 48.009497869018190385759 310.40821105727292206
50.009497869018190385759 2175.62048224748514258 50.009497869018190385759 309.44297720151121212
52.009497869018190385759 2183.63921025790068597 52.009497869018190385759 308.76210489572690676
54.009497869018190385759 2191.23754295934941183 54.009497869018190385759 308.11658602191738510
56.009497869018190385759 2198.43206353314053558 56.009497869018190385759 307.83455226889196865
58.009497869018218807469 2205.27305201531271450 58.009497869018218807469 307.57887666160053186
60.009497869018190385759 2211.84072410424323607 60.009497869018190385759 307.21760184616795186
62.009497869018190385759 2218.11373850627705906 62.009497869018190385759 306.80470569835142669
64.009497869018190385759 2224.11293358762804928 64.009497869018190385759 306.46851661679352219
66.009497869018190385759 2229.85226706017920151 66.009497869018190385759 306.09792686759476510
68.009497869018190385759 2235.33978828475028422 68.009497869018190385759 305.33449027726248914
70.009497869018190385759 2240.57536921406745023 70.009497869018190385759 304.74066583738010650
72.009497869018218807469 2245.58995950767257455 72.009497869018218807469 303.15375732541457410
74.009497869018190385759 2250.40769560479566280 74.009497869018190385759 301.75682247693509908
76.009497869018190385759 2255.04647825417168860 76.009497869018190385759 300.59127191232772702
78.009497869018190385759 2259.49883824732705762 78.009497869018190385759 299.06176040322009158
80.009497869018190385759 2263.76474555005825096 80.009497869018190385759 298.05400012941237264
82.009497869018218807469 2267.84838023724523737 82.009497869018218807469 297.12541935269166515
84.009497869018190385759 2271.76358543648802879 84.009497869018190385759 295.82204999153458402
86.009497869018190385759 2275.47832551344708918 86.009497869018190385759 294.39252291111517934
88.009497869018190385759 2279.03170622247762367 88.009497869018190385759 293.47363066164621159
91.009497869018218807469 2284.12534996114754904 91.009497869018218807469 292.66872662882650502
94.009497869018190385759 2289.00508940758300014 94.009497869018190385759 292.14747535220215013
97.009497869018190385759 2293.68755610531025013 97.009497869018190385759 292.12756086723101134
99.504748934509109403734 2297.42977842467325900 99.504748934509109403734 285.23638560618945803
nan nan nan nan

