Time Pressure difference Time.1 Pressure.1 difference.1
(hr) (psi) (hr) (psi)
0.000200000000006639311 0.43277315107992242 0.000200000000006639311 0.34560943595375737
0.000399999999999067768 0.86401978630498888 0.000399999999999067768 0.89870891852159729
0.000600000000005707079 1.29400522844352484 0.000600000000005707079 1.31214727485473159
0.000799999999998135536 1.72285216160601573 0.000799999999998135536 1.73143492238857655
0.001007140329434719206 2.16589102461481797 0.001007140329434719206 2.16990907041782188
0.001267914553963578328 2.72212180046647889 0.001267914553963578328 2.72351260356524971
0.001596209851982166583 3.42009847011622181 0.001596209851982166583 3.41638076557964920
0.002009509145210586212 4.29539729514395852 0.002009509145210586212 4.28257583568862721
0.002529822128138903281 5.39225651434091269 0.002529822128138903281 5.36400793639967777
0.003184857364445292660 6.76554957625531905 0.003184857364445292660 6.71200656494843617
0.004009497869020606231 8.48314791763374032 0.004009497869020606231 8.38908150382928675
0.005047658755842121536 10.62870414516132556 0.005047658755842121536 10.47082787181052232
0.006354625877804664924 13.30489061519933713 0.006354625877804664924 13.04788350869123192
0.008000000000009777068 16.63708172348683334 0.008000000000009777068 16.22776785938892985
0.010071403294347192059 20.77743583493432666 0.010071403294347192059 20.13633881032931683
0.012679145539692626699 25.90924323274425589 0.012679145539692626699 24.91840248063453345
0.015962098519750611558 32.25128108828094042 0.015962098519750611558 30.73688427712242799
0.020095091452091651263 40.06176827260415507 0.020095091452091651263 37.76973267772199705
0.025298221281346400247 49.64127805490024059 0.025298221281346400247 46.20336728376936719
0.031848573644282396344 61.33365250236595756 0.031848573644282396344 56.22122830802544513
0.040094978690191851456 75.52361031849569883 0.040094978690191851456 67.98570243001024949
0.050476587558421215363 92.62929591577146482 0.050476587558421215363 81.61311950578267727
0.063546258777947173257 113.08831985648717477 0.063546258777947173257 97.13838370951722823
0.079999999999998294697 137.33395826975535670 0.079999999999998294697 114.47214513947618286
0.100714032943542974863 165.76140501719012832 0.100714032943542974863 133.35611160745295933
0.126791455396897845276 198.68333489950734361 0.126791455396897845276 153.31468598119636226
0.159620985197506115583 236.27386122638387178 0.159620985197506115583 173.63401954067239785
0.200950914520774404082 278.51448121308459349 0.200950914520774404082 193.36746525330377722
0.252982212813464002465 325.14066762604829819 0.252982212813464002465 211.40496092448177023
0.318485736442795541734 375.61996755449052898 0.318485736442795541734 226.60404961861453899
0.400949786901819038576 429.15920646554900486 0.400949786901819038576 237.97699482403083948
0.504765875584169521062 484.76897820964239827 0.504765875584169521062 244.90297056937674824
0.635462587779443310865 541.36859877021765897 0.635462587779443310865 247.27967912173065201
0.799999999999997157829 597.92010578228973827 0.799999999999997157829 245.57063688055038142
1.007140329435330272645 653.55425378651796109 1.007140329435330272645 240.71538748501572513
1.267914553968893187630 707.66204830772608148 1.267914553968893187630 233.92112279836737798
1.596209851975103788391 759.92355537666333021 1.596209851975103788391 226.40145730944701086
2.009509145207687197399 810.27810449678395344 2.009509145207687197399 219.17500584712084333
2.529822128134711078928 858.85952743981499680 2.529822128134711078928 212.94016324795506989
3.184857364427983839050 905.90840113786680377 3.184857364427983839050 208.05008447059972809
4.009497869018190385759 951.69572093810063507 4.009497869018190385759 204.56711363465197451
5.009497869018190385759 995.00213165480226962 5.009497869018190385759 202.38957519306475774
6.009497869018190385759 1029.80392567623016475 6.009497869018190385759 201.34404563140782329
7.009497869018204596614 1058.86019490230910378 7.009497869018204596614 200.86552349976486198
8.009497869018190385759 1083.76199440481741476 8.009497869018190385759 200.74504749542512627
9.009497869018204596614 1105.53194437641468539 9.009497869018204596614 200.78208500551838256
10.009497869018190385759 1124.82234348351153130 10.009497869018190385759 200.83244281488390470
11.009497869018190385759 1142.13965038250921680 11.009497869018190385759 200.84733161477186059
12.009497869018190385759 1157.80224423478193785 12.009497869018190385759 201.00206086006085116
13.009497869018190385759 1172.08329528134095199 13.009497869018190385759 201.07127277657639297
14.009497869018204596614 1185.21635470139563040 14.009497869018204596614 201.10508872308517425
15.009497869018190385759 1197.33043733268050346 15.009497869018190385759 201.23213005852650781
16.009497869018190385759 1208.55911923532653418 16.009497869018190385759 201.23290221046428883
17.009497869018190385759 1219.03266363400075534 17.009497869018190385759 201.08466995958590928
18.009497869018190385759 1228.81670475123041797 18.009497869018190385759 201.13756188124256141
19.009497869018204596614 1237.97219498545200622 19.009497869018204596614 201.13002932497221309
20.009497869018190385759 1246.58007532512715443 20.009497869018190385759 201.13327894387788319
21.009497869018204596614 1254.72762775615933606 21.009497869018204596614 201.02058252126079196
22.009497869018190385759 1262.43568565794203096 22.009497869018190385759 200.96871665636817283
23.009497869018190385759 1269.73469621569915944 23.009497869018190385759 201.25243009718624876
24.009497869018190385759 1276.64670960222497342 24.009497869018190385759 201.28744600182932345
25.009497869018190385759 1283.22127450670814142 25.009497869018190385759 201.28207452246479647
26.009497869018204596614 1289.51707443988993873 26.009497869018204596614 201.38209413174055840
27.009497869018190385759 1295.54076158422253684 27.009497869018190385759 201.32075654447260149
28.009497869018190385759 1301.29696570456644622 28.009497869018190385759 201.39233143052030073
29.009497869018190385759 1306.80307704328538421 29.009497869018190385759 201.62449382724480529
30.009497869018190385759 1312.06687993088780786 30.009497869018190385759 201.63722645664316246
31.009497869018190385759 1317.11527521984316991 31.009497869018190385759 201.56347661087554002
32.009497869018190385759 1321.97661931408265445 32.009497869018190385759 201.47176389193589330
33.009497869018190385759 1326.66442556196898295 33.009497869018190385759 201.39058452507197217
34.009497869018190385759 1331.17905437446938777 34.009497869018190385759 201.23191204117676989
35.009497869018190385759 1335.52406309752382185 35.009497869018190385759 201.19387937959277224
36.009497869018190385759 1339.71079265328671681 36.009497869018190385759 201.18831186987509341
37.009497869018190385759 1343.74568803463102995 37.009497869018190385759 201.11309977286828143
38.009497869018190385759 1347.63342607721051536 38.009497869018190385759 200.93496767814832538
39.009497869018190385759 1351.38994072637387944 39.009497869018190385759 200.65456617310658771
40.009497869018190385759 1355.02802183969674843 40.009497869018190385759 200.26433641932945307
41.009497869018190385759 1358.55802523944066706 41.009497869018190385759 200.04008320218633799
42.009497869018190385759 1361.97693314841103529 42.009497869018190385759 199.61759834889383569
43.009497869018190385759 1365.28715063188542445 43.009497869018190385759 199.33538197052214969
44.009497869018218807469 1368.48943071222015533 44.009497869018218807469 199.08415105571634740
46.009497869018190385759 1374.59751153926981715 46.009497869018190385759 198.40206476010243364
48.009497869018190385759 1380.31107341034658020 48.009497869018190385759 197.70498528219951595
50.009497869018190385759 1385.69470813073280624 50.009497869018190385759 197.09020919558355445
52.009497869018190385759 1390.80199088553331421 52.009497869018190385759 196.65654847270624828
54.009497869018190385759 1395.64151574794755106 54.009497869018190385759 196.24540503351948928
56.009497869018190385759 1400.22384486646228652 56.009497869018190385759 196.06577228862190054
58.009497869018218807469 1404.58100256721036203 58.009497869018218807469 195.90292755586045814
60.009497869018190385759 1408.76407977788608150 60.009497869018190385759 195.67282464774265804
62.009497869018190385759 1412.75948381634520956 62.009497869018190385759 195.40984311594266387
64.009497869018190385759 1416.58048704053067013 64.009497869018190385759 195.19571779627068508
66.009497869018190385759 1420.23597938674038232 66.009497869018190385759 194.95968202691548754
68.009497869018190385759 1423.73108764835569673 68.009497869018190385759 194.47343451644715628
70.009497869018190385759 1427.06573026959563322 70.009497869018190385759 194.09521626072742606
72.009497869018218807469 1430.25961968642718602 72.009497869018218807469 193.08448357767846915
74.009497869018190385759 1433.32812886320130019 74.009497869018190385759 192.19474879032171089
76.009497869018190385759 1436.28265913254699626 76.009497869018190385759 191.45238712264395531
78.009497869018190385759 1439.11845321131681885 78.009497869018190385759 190.47821169936145225
80.009497869018190385759 1441.83549197014713172 80.009497869018190385759 189.83634971567707339
82.009497869018218807469 1444.43643777946795126 82.009497869018218807469 189.24491868307134723
84.009497869018190385759 1446.93010759463368231 84.009497869018190385759 188.41477756184534087
86.009497869018190385759 1449.29609730135211976 86.009497869018190385759 187.50428415243399627
88.009497869018190385759 1451.55931410991524899 88.009497869018190385759 186.91902392997269544
91.009497869018218807469 1454.80355419285797325 91.009497869018218807469 186.40636500442371926
94.009497869018190385759 1457.91155450042901975 94.009497869018190385759 186.07436999816297885
97.009497869018190385759 1460.89390798394447302 97.009497869018190385759 186.06168607802857196
99.504748934509109403734 1463.27740166168086944 99.504748934509109403734 181.67256344844099658
nan nan nan nan

