Time Pressure difference Time.1 Pressure.1 difference.1
(hr) (psi) (hr) (psi)
0.000200000000006639311 0.82318271155509237 0.000200000000006639311 0.65738762193891276
0.000399999999999067768 1.64346182001582353 0.000399999999999067768 1.70944441123781732
0.000600000000005707079 2.46134199882443960 0.000600000000005707079 2.49585019075055481
0.000799999999998135536 3.27705660681681676 0.000799999999998135536 3.29338197329573745
0.001007140329434719206 4.11976584528461576 0.001007140329434719206 4.12740861570837136
0.001267914553963578328 5.17777870299861931 0.001267914553963578328 5.18042416532276917
0.001596209851982166583 6.50540803048978145 0.001596209851982166583 6.49833654259008142
0.002009509145210586212 8.17032383778822080 0.002009509145210586212 8.14593599456320483
0.002529822128138903281 10.25667217986918267 0.002529822128138903281 10.20294023986963694
0.003184857364445292660 12.86882846462384222 0.003184857364445292660 12.76698369647581544
0.004009497869020606231 16.13589172048951426 0.004009497869020606231 15.95696692954860296
0.005047658755842121536 20.21697851795561007 0.005047658755842121536 19.91668027056473989
0.006354625877804664924 25.30738310875728203 0.006354625877804664924 24.81852698102305155
0.008000000000009777068 31.64558155081660473 0.008000000000009777068 30.86702101469180448
0.010071403294347192059 39.52099599312844447 0.010071403294347192059 38.30155808260335704
0.012679145539692626699 49.28226495902026016 0.012679145539692626699 47.39757554377892745
0.015962098519750611558 61.34552698365914836 0.015962098519750611558 58.46497565955532849
0.020095091452091651263 76.20194310585549147 0.020095091452091651263 71.84223624495680838
0.025298221281346400247 94.42323714473347707 0.025298221281346400247 87.88394813477052026
0.031848573644282396344 116.66343499010491769 0.031848573644282396344 106.93903503503496211
0.040094978690191851456 143.65431444458585020 0.040094978690191851456 129.31637448779304123
0.050476587558421215363 176.19123273038294997 0.050476587558421215363 155.23723882961735399
0.063546258777947173257 215.10657385370208772 0.063546258777947173257 184.76801968547326283
0.079999999999998294697 261.22447724631007304 0.079999999999998294697 217.73876359543359627
0.100714032943542974863 315.29664562770710745 0.100714032943542974863 253.65817006331263883
0.126791455396897845276 377.91782127718192896 0.126791455396897845276 291.62160039801460698
0.159620985197506115583 449.41918709279548239 0.159620985197506115583 330.27123486527125351
0.200950914520774404082 529.76554871817040748 0.200950914520774404082 367.80644542423033272
0.252982212813464002465 618.45374590674441606 0.252982212813464002465 402.11577020376478231
0.318485736442795541734 714.47099394721703902 0.318485736442795541734 431.02612892907296782
0.400949786901819038576 816.30858657842429693 0.400949786901819038576 452.65873679580528233
0.504765875584169521062 922.08456315883995558 0.504765875584169521062 465.83271369338262957
0.635462587779443310865 1029.74334238250617091 0.635462587779443310865 470.35347794555684686
0.799999999999997157829 1137.31060428070850321 0.799999999999997157829 467.10268934477039693
1.007140329435330272645 1243.13294722157252181 1.007140329435330272645 457.86746448685329369
1.267914553968893187630 1346.05199591738301024 1.267914553968893187630 444.94401668557020457
1.596209851975103788391 1445.45920034217533612 1.596209851975103788391 430.64077580357383113
2.009509145207687197399 1541.23915845741407793 2.009509145207687197399 416.89526064202834732
2.529822128134711078928 1633.64643319166339097 2.529822128134711078928 405.03589592845202105
3.184857364427983839050 1723.13862865187343232 3.184857364427983839050 395.73442170895265235
4.009497869018190385759 1810.23120815673291872 4.009497869018190385759 389.10942343942440402
5.009497869018190385759 1892.60482239905763890 5.009497869018190385759 384.96750291041684022
6.009497869018190385759 1958.80170891582361037 6.009497869018190385759 382.97878929121912961
7.009497869018204596614 2014.06996765487178891 7.009497869018204596614 382.06858692565634783
8.009497869018190385759 2061.43596248593848941 8.009497869018190385759 381.83942815348615341
9.009497869018204596614 2102.84483085801775815 9.009497869018204596614 381.90987762086126622
10.009497869018190385759 2139.53731745136246900 10.009497869018190385759 382.00566378032618786
11.009497869018190385759 2172.47676301164437973 11.009497869018190385759 382.03398393519944420
12.009497869018190385759 2202.26876014715708152 12.009497869018190385759 382.32829618487585321
13.009497869018190385759 2229.43290906681158958 13.009497869018190385759 382.45994495506181465
14.009497869018204596614 2254.41345011340308702 14.009497869018204596614 382.52426664986069227
15.009497869018190385759 2277.45578387079876848 15.009497869018190385759 382.76591341266754398
16.009497869018190385759 2298.81398687564023930 16.009497869018190385759 382.76738213161246449
17.009497869018190385759 2318.73583428271558660 17.009497869018190385759 382.48542788857895403
18.009497869018190385759 2337.34616968995987918 18.009497869018190385759 382.58603421173012293
19.009497869018204596614 2354.76093134468919743 19.009497869018204596614 382.57170645114672425
20.009497869018190385759 2371.13407801766015837 20.009497869018190385759 382.57788758806714213
21.009497869018204596614 2386.63162976267585691 21.009497869018204596614 382.36352644639055143
22.009497869018190385759 2401.29321398660385967 22.009497869018190385759 382.26487179742969147
23.009497869018190385759 2415.17674462525519630 23.009497869018190385759 382.80452634608747076
24.009497869018190385759 2428.32416356200565133 24.009497869018190385759 382.87113049484236171
25.009497869018190385759 2440.82971791966929231 25.009497869018190385759 382.86091334311436185
26.009497869018204596614 2452.80503026858150406 26.009497869018204596614 383.05116177457750837
27.009497869018190385759 2464.26275380031529494 27.009497869018190385759 382.93449085522530595
28.009497869018190385759 2475.21169484304255093 28.009497869018190385759 383.07063425651750777
29.009497869018190385759 2485.68493157369630353 29.009497869018190385759 383.51223298042145871
30.009497869018190385759 2495.69727065548931932 30.009497869018190385759 383.53645185898921000
31.009497869018190385759 2505.29988050453812320 31.009497869018190385759 383.39617144218362910
32.009497869018190385759 2514.54669815788065534 32.009497869018190385759 383.22172364089919938
33.009497869018190385759 2523.46342750846679337 33.009497869018190385759 383.06731144788159327
34.009497869018190385759 2532.05075409807932374 34.009497869018190385759 382.76549871939766945
35.009497869018190385759 2540.31544439471417718 35.009497869018190385759 382.69315636310255968
36.009497869018190385759 2548.27907009483124057 36.009497869018190385759 382.68256633981997084
37.009497869018190385759 2555.95389029236002898 37.009497869018190385759 382.53950455837326672
38.009497869018190385759 2563.34880084935775812 38.009497869018190385759 382.20067748377158523
39.009497869018190385759 2570.49410990371688968 39.009497869018190385759 381.66732260565953538
40.009497869018190385759 2577.41414518836745629 40.009497869018190385759 380.92506217189151130
41.009497869018190385759 2584.12860463010656531 41.009497869018190385759 380.49850758803580675
42.009497869018190385759 2590.63174808075882538 42.009497869018190385759 379.69489436421071105
43.009497869018190385759 2596.92815024222363718 43.009497869018190385759 379.15808739498555724
44.009497869018218807469 2603.01924344685266988 44.009497869018218807469 378.68021822689996725
46.009497869018190385759 2614.63749315818859031 46.009497869018190385759 377.38281415981094824
48.009497869018190385759 2625.50532389568797953 48.009497869018190385759 376.05689139090156914
50.009497869018190385759 2635.74559646363968568 50.009497869018190385759 374.88751883459366354
52.009497869018190385759 2645.46021682833679733 52.009497869018190385759 374.06264786267155387
54.009497869018190385759 2654.66553187373483524 54.009497869018190385759 373.28060727105139449
56.009497869018190385759 2663.38163198208121685 56.009497869018190385759 372.93892579275296839
58.009497869018218807469 2671.66943098676620139 58.009497869018218807469 372.62917698245240672
60.009497869018190385759 2679.62610951993292474 60.009497869018190385759 372.19149563514963575
62.009497869018190385759 2687.22581278694451612 62.009497869018190385759 371.69127548541109718
64.009497869018190385759 2694.49378629014563558 64.009497869018190385759 371.28398529002731721
66.009497869018190385759 2701.44693967804141721 66.009497869018190385759 370.83501898017897247
68.009497869018190385759 2708.09502468238088113 68.009497869018190385759 369.91012208406743866
70.009497869018190385759 2714.43788617498876192 70.009497869018190385759 369.19070885677712113
72.009497869018218807469 2720.51301940354960607 72.009497869018218807469 367.26818277443254601
74.009497869018190385759 2726.34966545764382317 74.009497869018190385759 365.57580815970987942
76.009497869018190385759 2731.96951094117912362 76.009497869018190385759 364.16375362483711342
78.009497869018190385759 2737.36350697200577997 78.009497869018190385759 362.31076352028253496
80.009497869018190385759 2742.53161716394561154 80.009497869018190385759 361.08987057242990204
82.009497869018218807469 2747.47890564194358376 82.009497869018218807469 359.96490290772305798
84.009497869018190385759 2752.22214323662592506 84.009497869018190385759 358.38588208020877346
86.009497869018190385759 2756.72251905113262183 86.009497869018190385759 356.65402225539747860
88.009497869018190385759 2761.02740937221869899 88.009497869018190385759 355.54079215854687845
91.009497869018218807469 2767.19831517297916434 91.009497869018218807469 354.56565781071765286
94.009497869018190385759 2773.11007775417465382 94.009497869018190385759 353.93416634967280743
97.009497869018190385759 2778.78284608846252013 97.009497869018190385759 353.91004012154763814
99.504748934509109403734 2783.31651640446398233 99.504748934509109403734 345.56144026373323186
nan nan nan nan

