Time Pressure difference Time.1 Pressure.1 difference.1
(hr) (psi) (hr) (psi)
0.000200000000006639311 0.21181795302376241 0.000200000000006639311 0.16915624984300984
0.000399999999999067768 0.42288876297077188 0.000399999999999067768 0.43986712902688541
0.000600000000005707079 0.63334229031304956 0.000600000000005707079 0.64222179479454233
0.000799999999998135536 0.84323858197607293 0.000799999999998135536 0.84743935740707677
0.001007140329434719206 1.06008101972510294 0.001007140329434719206 1.06204762563636201
0.001267914553963578328 1.33232448967169326 0.001267914553963578328 1.33300520903865394
0.001596209851982166583 1.67394454871331400 0.001596209851982166583 1.67212494284608559
0.002009509145210586212 2.10235376249848249 0.002009509145210586212 2.09607838407024927
0.002529822128138903281 2.63920424406321041 0.002529822128138903281 2.62537816464859475
0.003184857364445292660 3.31135343943398563 0.003184857364445292660 3.28514716710528054
0.004009497869020606231 4.15202057388983548 0.004009497869020606231 4.10598039054984287
0.005047658755842121536 5.20214886183519809 0.005047658755842121536 5.12487736528154247
0.006354625877804664924 6.51199060820697007 0.006354625877804664924 6.38620018179705085
0.008000000000009777068 8.14290948078530263 0.008000000000009777068 7.94257352043028320
0.010071403294347192059 10.16937838370106384 0.010071403294347192059 9.85559769027634403
0.012679145539692626699 12.68110753234123855 0.012679145539692626699 12.19614708745068299
0.015962098519750611558 15.78517596451370508 0.015962098519750611558 15.04396447344763743
0.020095091452091651263 19.60796719676402944 0.020095091452091651263 18.48614555243590729
0.025298221281346400247 24.29659482533505255 0.025298221281346400247 22.61393216384104932
0.031848573644282396344 30.01935007313496939 0.031848573644282396344 27.51710790507963367
0.040094978690191851456 36.96453096202764499 0.040094978690191851456 33.27515186113745926
0.050476587558421215363 45.33679550579985573 0.050476587558421215363 39.94500090974008089
0.063546258777947173257 55.35032929636128785 0.063546258777947173257 47.54373866780593971
0.079999999999998294697 67.21719646600310227 0.079999999999998294697 56.02763341759391125
0.100714032943542974863 81.13082203336560383 0.100714032943542974863 65.27026575796642760
0.126791455396897845276 97.24424260916387652 0.126791455396897845276 75.03885782189074405
0.159620985197506115583 115.64267679986159010 0.159620985197506115583 84.98402108036748359
0.200950914520774404082 136.31706853999341433 0.200950914520774404082 94.64242541188571067
0.252982212813464002465 159.13794672676070263 0.252982212813464002465 103.47075822599397554
0.318485736442795541734 183.84470580881972523 0.318485736442795541734 110.90985154078062180
0.400949786901819038576 210.04913176336850711 0.400949786901819038576 116.47626426128188371
0.504765875584169521062 237.26696630222417639 0.504765875584169521062 119.86613722685424932
0.635462587779443310865 264.96927578964584882 0.635462587779443310865 121.02940148952269794
0.799999999999997157829 292.64803641935486667 0.799999999999997157829 120.19292208165133218
1.007140329435330272645 319.87780175731677446 1.007140329435330272645 117.81655241589061234
1.267914553968893187630 346.36050349034576357 1.267914553968893187630 114.49114455582279959
1.596209851975103788391 371.93955205575650780 1.596209851975103788391 110.81069407660073978
2.009509145207687197399 396.58525268076749626 2.009509145207687197399 107.27375526106682457
2.529822128134711078928 420.36310843983267205 2.529822128134711078928 104.22215283729086366
3.184857364427983839050 443.39086811930144449 3.184857364427983839050 101.82873616123403337
4.009497869018190385759 465.80116859734295076 4.009497869018190385759 100.12401914939781022
5.009497869018190385759 486.99720455273433117 5.009497869018190385759 99.05823737856336209
6.009497869018190385759 504.03071218318376623 6.009497869018190385759 98.54650985798271279
7.009497869018204596614 518.25211074873095640 7.009497869018204596614 98.31230036936668171
8.009497869018190385759 530.44013161848067739 8.009497869018190385759 98.25333418682033937
9.009497869018204596614 541.09528947406101906 9.009497869018204596614 98.27146195087750868
10.009497869018190385759 550.53684757830228591 10.009497869018190385759 98.29610924720806509
11.009497869018190385759 559.01268876687106513 11.009497869018190385759 98.30339647172135642
12.009497869018190385759 566.67864161203340245 12.009497869018190385759 98.37912767622940180
13.009497869018190385759 573.66840747935111722 13.009497869018190385759 98.41300299045485644
14.009497869018204596614 580.09629644694030048 14.009497869018204596614 98.42955398154840907
15.009497869018190385759 586.02545397280903217 15.009497869018190385759 98.49173352192757136
16.009497869018190385759 591.52125797506380422 16.009497869018190385759 98.49211144658039530
17.009497869018190385759 596.64746492643041620 17.009497869018190385759 98.41956015296430849
18.009497869018190385759 601.43619906250239637 18.009497869018190385759 98.44544775377515577
19.009497869018204596614 605.91729313107543931 19.009497869018204596614 98.44176099398832491
20.009497869018190385759 610.13036316297007033 20.009497869018190385759 98.44335149844312127
21.009497869018204596614 614.11812874821623609 21.009497869018204596614 98.38819298065547514
22.009497869018190385759 617.89078664640157967 22.009497869018190385759 98.36280757653337048
23.009497869018190385759 621.46323903071652239 23.009497869018190385759 98.50166924142513381
24.009497869018190385759 624.84627821222136390 24.009497869018190385759 98.51880754408153962
25.009497869018190385759 628.06415546873427047 25.009497869018190385759 98.51617850907585705
26.009497869018204596614 631.14559305599232175 26.009497869018204596614 98.56513244451792843
27.009497869018190385759 634.09384684064627891 27.009497869018190385759 98.53511116859984043
28.009497869018190385759 636.91118283045000226 28.009497869018190385759 98.57014302261549688
29.009497869018190385759 639.60611256437186967 29.009497869018190385759 98.68377337034053198
30.009497869018190385759 642.18244603143273252 30.009497869018190385759 98.69000527148561730
31.009497869018190385759 644.65334967573892300 31.009497869018190385759 98.65390889783736839
32.009497869018190385759 647.03270235142247202 32.009497869018190385759 98.60902071486306397
33.009497869018190385759 649.32711807735529419 33.009497869018190385759 98.56928801131161322
34.009497869018190385759 651.53677325429885059 34.009497869018190385759 98.49162681477940851
35.009497869018190385759 653.66340900166710526 35.009497869018190385759 98.47301198041489556
36.009497869018190385759 655.71257605871039686 36.009497869018190385759 98.47028699965096621
37.009497869018190385759 657.68742888451231465 37.009497869018190385759 98.43347493681653759
38.009497869018190385759 659.59025652531420292 38.009497869018190385759 98.34628936262538446
39.009497869018190385759 661.42885774515434605 39.009497869018190385759 98.20904870276808651
40.009497869018190385759 663.20949245512986181 40.009497869018190385759 98.01805333383687469
41.009497869018190385759 664.93722924387202511 41.009497869018190385759 97.90829408168428927
42.009497869018190385759 666.61059108031633968 42.009497869018190385759 97.70151166788470221
43.009497869018190385759 668.23075510773662700 43.009497869018190385759 97.56338273029395225
44.009497869018218807469 669.79808988793888602 44.009497869018218807469 97.44041942266346723
46.009497869018190385759 672.78764960175396936 46.009497869018190385759 97.10657680196952413
48.009497869018190385759 675.58411462502567701 48.009497869018190385759 96.76539586748728539
50.009497869018190385759 678.21909898913031611 50.009497869018190385759 96.46449778286719834
52.009497869018190385759 680.71882471364881440 52.009497869018190385759 96.25224541370458553
54.009497869018190385759 683.08749811079962910 54.009497869018190385759 96.05101397993755086
56.009497869018190385759 685.33028875421859993 56.009497869018190385759 95.96309392245409242
58.009497869018218807469 687.46287073826988490 58.009497869018218807469 95.88339064634246256
60.009497869018190385759 689.51025017919573656 60.009497869018190385759 95.77076830167827382
62.009497869018190385759 691.46577422872940133 62.009497869018190385759 95.64205373237116703
64.009497869018190385759 693.33593895457840972 64.009497869018190385759 95.53725151257010850
66.009497869018190385759 695.12509547719537295 66.009497869018190385759 95.42172536825997042
68.009497869018190385759 696.83575307165199320 68.009497869018190385759 95.18373474413439794
70.009497869018190385759 698.46787182101127200 70.009497869018190385759 94.99861832338865497
72.009497869018218807469 700.03109984652382991 72.009497869018218807469 94.50392190462190456
74.009497869018190385759 701.53296134379331761 74.009497869018190385759 94.06844710466802439
76.009497869018190385759 702.97903661957673194 76.009497869018190385759 93.70510310225375861
78.009497869018190385759 704.36699725313974341 78.009497869018190385759 93.22829939220186191
80.009497869018190385759 705.69683388174178162 80.009497869018190385759 92.91414429462122371
82.009497869018218807469 706.96984958496022955 82.009497869018218807469 92.62467229209826769
84.009497869018190385759 708.19035976320844838 84.009497869018190385759 92.21836521740992509
86.009497869018190385759 709.34837775785956637 86.009497869018190385759 91.77273024735254126
88.009497869018190385759 710.45609423805831284 88.009497869018190385759 91.48627850699239161
91.009497869018218807469 712.04396606368288758 91.009497869018218807469 91.23536099064884297
94.009497869018190385759 713.56515623341533683 94.009497869018190385759 91.07286823326595027
97.009497869018190385759 715.02484939713212952 97.009497869018190385759 91.06666017254757151
99.504748934509109403734 716.19143459448866906 99.504748934509109403734 88.91843316574366440
nan nan nan nan

