Time Pressure difference Time.1 Pressure.1 difference.1
(hr) (psi) (hr) (psi)
0.000200000000006639311 0.51500835637150078 0.000200000000006639311 0.41128186236339648
0.000399999999999067768 1.02820012957599460 0.000399999999999067768 1.06948086273203513
0.000600000000005707079 1.53989105880035582 0.000600000000005707079 1.56148044224555371
0.000799999999998135536 2.05022714049084387 0.000799999999998135536 2.06044079055838258
0.001007140329434719206 2.57745189109632866 0.001007140329434719206 2.58223344272370348
0.001267914553963578328 3.23937719057431250 0.001267914553963578328 3.24103227295672713
0.001596209851982166583 4.06998282432256708 0.001596209851982166583 4.06555868456695269
0.002009509145210586212 5.11160522646689852 0.002009509145210586212 5.09634744362178260
0.002529822128138903281 6.41688875027133587 0.002529822128138903281 6.38327240032207399
0.003184857364445292660 8.05113385274145443 0.003184857364445292660 7.98741664158931020
0.004009497869020606231 10.09510884632038419 0.004009497869020606231 9.98316800839569574
0.005047658755842121536 12.64836193857969704 0.005047658755842121536 12.46048614303747470
0.006354625877804664924 15.83307520426792614 0.006354625877804664924 15.52723181456537915
0.008000000000009777068 19.79844658073289310 0.008000000000009777068 19.31135522614421873
0.010071403294347192059 24.72554744272415306 0.010071403294347192059 23.96262967831895452
0.012679145539692626699 30.83249674530026851 0.012679145539692626699 29.65337723223303357
0.015962098519750611558 38.37964352156273407 0.015962098519750611558 36.57748224916679902
0.020095091452091651263 47.67427318428901373 0.020095091452091651263 44.94670683337357531
0.025298221281346400247 59.07407369297150268 0.025298221281346400247 54.98289388855471316
0.031848573644282396344 72.98822370723011943 0.031848573644282396344 66.90434078882105950
0.040094978690191851456 89.87454586845936433 0.040094978690191851456 80.90429079962832759
0.050476587558421215363 110.23064005331728765 0.050476587558421215363 97.12117868250530250
0.063546258777947173257 134.57727123036860917 0.063546258777947173257 115.59654107466542428
0.079999999999998294697 163.43004630949775446 0.079999999999998294697 136.22404987807149723
0.100714032943542974863 197.25925357132030058 0.100714032943542974863 158.69633243113406706
0.126791455396897845276 236.43698203012391446 0.126791455396897845276 182.44741901793040029
0.159620985197506115583 281.17042986633015289 0.159620985197506115583 206.62781596010916019
0.200950914520774404082 331.43757841096436323 0.200950914520774404082 230.11099511909469584
0.252982212813464002465 386.92363517879073243 0.252982212813464002465 251.57596117692651205
0.318485736442795541734 446.99497098614995139 0.318485736442795541734 269.66316845209411213
0.400949786901819038576 510.70769291485680696 0.400949786901819038576 283.19719153723440286
0.504765875584169521062 576.88438865638818243 0.504765875584169521062 291.43923561039076731
0.635462587779443310865 644.23902348855062883 0.635462587779443310865 294.26756440589832664
0.799999999999997157829 711.53640227450989642 0.799999999999997157829 292.23377133577969289
1.007140329435330272645 777.74210623347619276 1.007140329435330272645 286.45593136412617241
1.267914553968893187630 842.13142025103684318 1.267914553968893187630 278.37062597886324511
1.596209851975103788391 904.32361676301582065 1.596209851975103788391 269.42207971565670732
2.009509145207687197399 964.24649671402301010 2.009509145207687197399 260.82246377200556253
2.529822128134711078928 1022.05932248116175742 2.529822128134711078928 253.40288140831506780
3.184857364427983839050 1078.04838523124249150 3.184857364427983839050 247.58359380378468018
4.009497869018190385759 1132.53617462883380540 4.009497869018190385759 243.43879165735938841
5.009497869018190385759 1184.07163459880507617 5.009497869018190385759 240.84747911650703145
6.009497869018190385759 1225.48643746499556073 6.009497869018190385759 239.60327887038934591
7.009497869018204596614 1260.06395554593404995 7.009497869018204596614 239.03382834904837750
8.009497869018190385759 1289.69757491552149986 8.009497869018190385759 238.89045959148478460
9.009497869018204596614 1315.60423323105032978 9.009497869018204596614 238.93453493938847032
10.009497869018190385759 1338.56017842567598564 10.009497869018190385759 238.99446169909407445
11.009497869018190385759 1359.16810602141208619 11.009497869018190385759 239.01217965673427557
12.009497869018190385759 1377.80689333121813434 12.009497869018190385759 239.19631042847933600
13.009497869018190385759 1394.80161818508895522 13.009497869018190385759 239.27867393757651371
14.009497869018204596614 1410.43021096903112266 14.009497869018204596614 239.31891556298043611
15.009497869018190385759 1424.84620181624154611 15.009497869018190385759 239.47009719056896415
16.009497869018190385759 1438.20854880211595628 16.009497869018190385759 239.47101606619546033
17.009497869018190385759 1450.67226766426210816 17.009497869018190385759 239.29461684250145481
18.009497869018190385759 1462.31546438726059023 18.009497869018190385759 239.35755924447295229
19.009497869018204596614 1473.21067349516374634 19.009497869018204596614 239.34859535793236773
20.009497869018190385759 1483.45421631780959615 20.009497869018190385759 239.35246246680284798
21.009497869018204596614 1493.14996009370224783 21.009497869018204596614 239.21835156080939555
22.009497869018190385759 1502.32269694419210282 22.009497869018190385759 239.15663018608114498
23.009497869018190385759 1511.00865960409487343 23.009497869018190385759 239.49425462621013594
24.009497869018190385759 1519.23408820226381977 24.009497869018190385759 239.53592422482569191
25.009497869018190385759 1527.05794662986386356 25.009497869018190385759 239.52953206128248098
26.009497869018204596614 1534.55006939103986952 26.009497869018204596614 239.64855731608281530
27.009497869018190385759 1541.71837271059098384 27.009497869018190385759 239.57556440992902935
28.009497869018190385759 1548.56836609756464895 28.009497869018190385759 239.66073989812394984
29.009497869018190385759 1555.12074427415905120 29.009497869018190385759 239.93701760631816455
30.009497869018190385759 1561.38477074309116688 30.009497869018190385759 239.95216967969054167
31.009497869018190385759 1567.39245803513017563 31.009497869018190385759 239.86440594768299661
32.009497869018190385759 1573.17755081522295768 32.009497869018190385759 239.75526605182389517
33.009497869018190385759 1578.75613022729498880 33.009497869018190385759 239.65866104711059847
34.009497869018190385759 1584.12862516731502183 34.009497869018190385759 239.46983774573817527
35.009497869018190385759 1589.29926894522986913 35.009497869018190385759 239.42457814845974440
36.009497869018190385759 1594.28155747608025194 36.009497869018190385759 239.41795270503371285
37.009497869018190385759 1599.08316042508886312 37.009497869018190385759 239.32844886598530820
38.009497869018190385759 1603.70964331644995582 38.009497869018190385759 239.11646825422641882
39.009497869018190385759 1608.17996785096352141 39.009497869018190385759 238.78278508124006407
40.009497869018190385759 1612.50935420462951697 40.009497869018190385759 238.31840418423081474
41.009497869018190385759 1616.71012600470839971 41.009497869018190385759 238.05153855154611620
42.009497869018190385759 1620.77869203841623857 42.009497869018190385759 237.54877346701377405
43.009497869018190385759 1624.71791437959495852 43.009497869018190385759 237.21293055993038479
44.009497869018218807469 1628.52868913930251438 44.009497869018218807469 236.91396094922097859
46.009497869018190385759 1635.79742256112717769 46.009497869018190385759 236.10226516557293053
48.009497869018190385759 1642.59667085300361578 48.009497869018190385759 235.27272720722399413
50.009497869018190385759 1649.00329950298350923 50.009497869018190385759 234.54113186422614490
52.009497869018190385759 1655.08106400965584726 52.009497869018190385759 234.02506728037977268
54.009497869018190385759 1660.84019148508150465 54.009497869018190385759 233.53579869631874999
56.009497869018190385759 1666.29325108868852112 56.009497869018190385759 233.32203228204525658
58.009497869018218807469 1671.47835238324432794 58.009497869018218807469 233.12824392444048271
60.009497869018190385759 1676.45629455333846636 60.009497869018190385759 232.85441704721776546
62.009497869018190385759 1681.21090204632264431 62.009497869018190385759 232.54146397674557534
64.009497869018190385759 1685.75796922289646318 64.009497869018190385759 232.28665073644495465
66.009497869018190385759 1690.10807527788642801 66.009497869018190385759 232.00576364047523725
68.009497869018190385759 1694.26732119382063502 68.009497869018190385759 231.42711977005225776
70.009497869018190385759 1698.23560991775275397 70.009497869018190385759 230.97703278627830059
72.009497869018218807469 1702.03639962684246711 72.009497869018218807469 229.77424149359052308
74.009497869018190385759 1705.68798444373283019 74.009497869018190385759 228.71544001919284028
76.009497869018190385759 1709.20393217308878775 76.009497869018190385759 227.83201538587184132
78.009497869018190385759 1712.57858155665348932 78.009497869018190385759 226.67272793398097974
80.009497869018190385759 1715.81190983011742901 80.009497869018190385759 225.90889985358884928
82.009497869018218807469 1718.90708526539356171 82.009497869018218807469 225.20508557294479601
84.009497869018190385759 1721.87460020858520693 84.009497869018190385759 224.21720170507509806
86.009497869018190385759 1724.69017337205059448 86.009497869018190385759 223.13369707199439063
88.009497869018190385759 1727.38344481410263143 88.009497869018190385759 222.43722617386384854
91.009497869018218807469 1731.24415278228775605 91.009497869018218807469 221.82715221255796223
94.009497869018190385759 1734.94273280281390726 94.009497869018190385759 221.43207178284268366
97.009497869018190385759 1738.49179069106639872 97.009497869018190385759 221.41697767442940403
99.504748934509109403734 1741.32819391601174175 99.504748934509109403734 216.19383750102380759
nan nan nan nan

