Time Pressure difference Time.1 Pressure.1 difference.1
(hr) (psi) (hr) (psi)
0.000200000000006639311 0.71602774708424777 0.000200000000006639311 0.57181446025362537
0.000399999999999067768 1.42952985757178586 0.000399999999999067768 1.48692339302421650
0.000600000000005707079 2.14094531078372041 0.000600000000005707079 2.17096151808978632
0.000799999999998135536 2.85047708887597961 0.000799999999998135536 2.86467735719568717
0.001007140329434719206 3.58348956471779889 0.001007140329434719206 3.59013746391585897
0.001267914553963578328 4.50377925528235057 0.001267914553963578328 4.50608035369145021
0.001596209851982166583 5.65858902349363380 0.001596209851982166583 5.65243804209147349
0.002009509145210586212 7.10678016970075266 0.002009509145210586212 7.08556692968060808
0.002529822128138903281 8.92154532699014702 0.002529822128138903281 8.87480775657681775
0.003184857364445292660 11.19367319526311988 0.003184857364445292660 11.10508571782255771
0.004009497869020606231 14.03545778310995296 0.004009497869020606231 13.87982390844691771
0.005047658755842121536 17.58530321138015751 0.005047658755842121536 17.32409525048113252
0.006354625877804664924 22.01308197754669749 0.006354625877804664924 21.58786100670219099
0.008000000000009777068 27.52622734288992490 0.008000000000009777068 26.84901323376825033
0.010071403294347192059 34.37648692843261244 0.010071403294347192059 33.31578513340473791
0.012679145539692626699 42.86711644265940180 0.012679145539692626699 41.22775995836270368
0.015962098519750611558 53.36008502514044238 0.015962098519750611558 50.85449951416416781
0.020095091452091651263 66.28261852396310871 0.020095091452091651263 62.49042143607746880
0.025298221281346400247 82.13201858603457595 0.025298221281346400247 76.44395892247446511
0.031848573644282396344 101.47717554134253248 0.031848573644282396344 93.01861574187702786
0.040094978690191851456 124.95461054614834495 0.040094978690191851456 112.48306236980583606
0.050476587558421215363 153.25614794509596095 0.050476587558421215363 135.02976778116058654
0.063546258777947173257 187.10581903318990271 0.063546258777947173257 160.71648130058321158
0.079999999999998294697 227.22048373997910176 0.079999999999998294697 189.39537257241551060
0.100714032943542974863 274.25399448141627090 0.100714032943542974863 220.63909444457669906
0.126791455396897845276 328.72367501607550366 0.126791455396897845276 253.66076644105811511
0.159620985197506115583 390.91759765286548145 0.159620985197506115583 287.27931831873240753
0.200950914520774404082 460.80514933911496200 0.200950914520774404082 319.92851256880584288
0.252982212813464002465 537.94866697438317260 0.252982212813464002465 349.77173957179132913
0.318485736442795541734 621.46720159687299656 0.318485736442795541734 374.91879226726626939
0.400949786901819038576 710.04843756872014637 0.400949786901819038576 393.73545016950970421
0.504765875584169521062 802.05539197065593271 0.504765875584169521062 405.19455015509163331
0.635462587779443310865 895.70006168892041387 0.635462587779443310865 409.12683954497475725
0.799999999999997157829 989.26512703327011877 0.799999999999997157829 406.29921111522918409
1.007140329435330272645 1081.31241221492973636 1.007140329435330272645 398.26614973528512564
1.267914553968893187630 1170.83432944579635659 1.267914553968893187630 387.02496708674215142
1.596209851975103788391 1257.30154459632217367 1.596209851975103788391 374.58360115305816862
2.009509145207687197399 1340.61367768949639867 2.009509145207687197399 362.62736092172389135
2.529822128134711078928 1420.99215480445400317 2.529822128134711078928 352.31174802252832023
3.184857364427983839050 1498.83501301505043557 3.184857364427983839050 344.22106106268131498
4.009497869018190385759 1574.59061698395930762 4.009497869018190385759 338.45844904619968929
5.009497869018190385759 1646.24153068414511836 5.009497869018190385759 334.85568870714365630
6.009497869018190385759 1703.82146628197801874 6.009497869018190385759 333.12584901012195360
7.009497869018204596614 1751.89537045257270620 7.009497869018204596614 332.33412909174148808
8.009497869018190385759 1793.09566060835436474 8.009497869018190385759 332.13480027074177769
9.009497869018204596614 1829.11427265349243498 9.009497869018204596614 332.19607922218204976
10.009497869018190385759 1861.03044161763318698 10.009497869018190385759 332.27939674938568260
11.009497869018190385759 1889.68210869428594378 11.009497869018190385759 332.30403042597572494
12.009497869018190385759 1915.59603556695196858 12.009497869018190385759 332.56003159572452432
13.009497869018190385759 1939.22418528313983188 13.009497869018190385759 332.67454344224347551
14.009497869018204596614 1960.95297073436290702 14.009497869018204596614 332.73049228272441269
15.009497869018190385759 1980.99584833161338793 15.009497869018190385759 332.94068351333947930
16.009497869018190385759 1999.57382107649027603 16.009497869018190385759 332.94196104687176785
17.009497869018190385759 2016.90241084934496030 17.009497869018190385759 332.69670922296171511
18.009497869018190385759 2033.09021016422366301 18.009497869018190385759 332.78421946570267664
19.009497869018204596614 2048.23806540779196439 19.009497869018204596614 332.77175677183498692
20.009497869018190385759 2062.47989429992230725 20.009497869018190385759 332.77713330061942543
21.009497869018204596614 2075.96010580769552689 21.009497869018204596614 332.59067587970594104
22.009497869018190385759 2088.71316897724773298 22.009497869018190385759 332.50486325871281679
23.009497869018190385759 2100.78945899795144214 23.009497869018190385759 332.97427014160183489
24.009497869018190385759 2112.22545811347026756 24.009497869018190385759 333.03220432548346253
25.009497869018190385759 2123.10314515313302763 25.009497869018190385759 333.02331715617009422
26.009497869018204596614 2133.51961260496227624 26.009497869018204596614 333.18880065558613524
27.009497869018190385759 2143.48586657504756658 27.009497869018190385759 333.08731696993362448
28.009497869018190385759 2153.00956705822682125 28.009497869018190385759 333.20573837448847598
29.009497869018190385759 2162.11948639407273731 29.009497869018190385759 333.58985351071976311
30.009497869018190385759 2170.82850383958793827 30.009497869018190385759 333.61091978047295470
31.009497869018190385759 2179.18112713916434586 31.009497869018190385759 333.48889988210117963
32.009497869018190385759 2187.22427226245508791 32.009497869018190385759 333.33716022043904559
33.009497869018190385759 2194.98029718698126089 33.009497869018190385759 333.20284810098280559
34.009497869018190385759 2202.44979821649258156 34.009497869018190385759 332.94032280133279755
35.009497869018190385759 2209.63866101740040904 35.009497869018190385759 332.87739736124564160
36.009497869018190385759 2216.56564926513101454 36.009497869018190385759 332.86818585764365253
37.009497869018190385759 2223.24142626843013204 37.009497869018190385759 332.74374664916018673
38.009497869018190385759 2229.67372990125795695 38.009497869018190385759 332.44902521797285999
39.009497869018190385759 2235.88892304440378211 39.009497869018190385759 331.98509796778859027
40.009497869018190385759 2241.90816665224292592 40.009497869018190385759 331.33945872065640970
41.009497869018190385759 2247.74859454202987763 41.009497869018190385759 330.96842940553671042
42.009497869018190385759 2253.40521376953984145 42.009497869018190385759 330.26942375575140431
43.009497869018190385759 2258.88200354066248110 43.009497869018190385759 329.80249377848389258
44.009497869018218807469 2264.18020973883676561 44.009497869018218807469 329.38682957778792115
46.009497869018190385759 2274.28609394788963982 46.009497869018190385759 328.25831060116757953
48.009497869018190385759 2283.73924237949859162 48.009497869018190385759 327.10498524617270277
50.009497869018190385759 2292.64652285737383863 50.009497869018190385759 326.08783172090790003
52.009497869018190385759 2301.09657609084433716 52.009497869018190385759 325.37033547691515878
54.009497869018190385759 2309.10362106474212851 54.009497869018190385759 324.69009431649482167
56.009497869018190385759 2316.68513296524133693 56.009497869018190385759 324.39289004374677461
58.009497869018218807469 2323.89409637799462871 58.009497869018218807469 324.12346171430277764
60.009497869018190385759 2330.81504178222212431 60.009497869018190385759 323.74275402371239352
62.009497869018190385759 2337.42547994182268667 62.009497869018190385759 323.30764830315274594
64.009497869018190385759 2343.74737011312390678 64.009497869018190385759 322.95337570131539451
66.009497869018190385759 2349.79542078957774720 66.009497869018190385759 322.56285202917683819
68.009497869018190385759 2355.57811430495667082 68.009497869018190385759 321.75835038997587390
70.009497869018190385759 2361.09531572435935232 70.009497869018190385759 321.13258429318045728
72.009497869018218807469 2366.37963948119022461 72.009497869018218807469 319.46031639915327105
74.009497869018190385759 2371.45652030725432269 74.009497869018190385759 317.98824080087780430
76.009497869018190385759 2376.34482182774581815 76.009497869018190385759 316.75999558487347940
78.009497869018190385759 2381.03667306747638577 78.009497869018190385759 315.14821206305094847
80.009497869018190385759 2385.53204237671161536 80.009497869018190385759 314.08624463515093339
82.009497869018218807469 2389.83533467543429651 82.009497869018218807469 313.10771574819096941
84.009497869018190385759 2393.96113770935517095 84.009497869018190385759 311.73423849963666044
86.009497869018190385759 2397.87569265597994672 86.009497869018190385759 310.22781754203089122
88.009497869018190385759 2401.62020875767166217 88.009497869018190385759 309.25949832559780361
91.009497869018218807469 2406.98783822311588665 91.009497869018218807469 308.41129872133058143
94.009497869018190385759 2412.13005754197638453 94.009497869018190385759 307.86200947872646339
97.009497869018190385759 2417.06439286403110600 97.009497869018190385759 307.84102379896478396
99.504748934509109403734 2421.00790831548692950 99.504748934509109403734 300.57917407400407228
nan nan nan nan

