Time Pressure difference Time.1 Pressure.1 difference.1
(hr) (psi) (hr) (psi)
0.000200000000006639311 0.35552189762419728 0.000200000000006639311 0.28391715659924793
0.000399999999999067768 0.70978976686858974 0.000399999999999067768 0.73828678911179191
0.000600000000005707079 1.06302156962347150 0.000600000000005707079 1.07792520851789853
0.000799999999998135536 1.41531809053238899 0.000799999999998135536 1.42236880380481900
0.001007140329434719206 1.77927324095036865 0.001007140329434719206 1.78257405400926650
0.001267914553963578328 2.23621522188033195 0.001267914553963578328 2.23735776262174069
0.001596209851982166583 2.80960104646783693 0.001596209851982166583 2.80654696289460626
0.002009509145210586212 3.52865651117392343 0.002009509145210586212 3.51812371914535982
0.002529822128138903281 4.42972320180021217 0.002529822128138903281 4.40651707635136614
0.003184857364445292660 5.55787949834410089 0.003184857364445292660 5.51389406871003995
0.004009497869020606231 6.96888159068568402 0.004009497869020606231 6.89160630256993212
0.005047658755842121536 8.73144985437437171 0.005047658755842121536 8.60175495035490201
0.006354625877804664924 10.92992933455914972 0.006354625877804664924 10.71879873650642345
0.008000000000009777068 13.66731473637690009 0.008000000000009777068 13.33106457546729828
0.010071403294347192059 17.06860371852570424 0.010071403294347192059 16.54194435858147116
0.012679145539692626699 21.28436872094921384 0.012679145539692626699 20.47039589579958019
0.015962098519750611558 26.49433456004653209 0.015962098519750611558 25.25026193974740352
0.020095091452091651263 32.91062729496080408 0.020095091452091651263 31.02772665271595187
0.025298221281346400247 40.78016700095452052 0.025298221281346400247 37.95593320048615738
0.031848573644282396344 50.38541894628144036 0.031848573644282396344 46.18557718970227910
0.040094978690191851456 62.04242843822678566 0.040094978690191851456 55.85005881006600958
0.050476587558421215363 76.09469990777387238 0.050476587558421215363 67.04494270340688900
0.063546258777947173257 92.90172917193187629 0.063546258777947173257 79.79890254831741458
0.079999999999998294697 112.81945132333069637 0.079999999999998294697 94.03853765776547391
0.100714032943542974863 136.17251698149206618 0.100714032943542974863 109.55166174278285496
0.126791455396897845276 163.21778759498877776 0.126791455396897845276 125.94757312850678943
0.159620985197506115583 194.09829674643435737 0.159620985197506115583 142.63984714665602382
0.200950914520774404082 228.79884445143991911 0.200950914520774404082 158.85081598543956716
0.252982212813464002465 267.10212234922965990 0.252982212813464002465 173.66856674794280480
0.318485736442795541734 308.57072190656799648 0.318485736442795541734 186.15457435080043069
0.400949786901819038576 352.55305252832044971 0.400949786901819038576 195.49741609344567905
0.504765875584169521062 398.23631991118418227 0.504765875584169521062 201.18708522781813031
0.635462587779443310865 444.73274524693499643 0.635462587779443310865 203.13954446084591154
0.799999999999997157829 491.18964544111332771 0.799999999999997157829 201.73557118018339906
1.007140329435330272645 536.89293785149652649 1.007140329435330272645 197.74699778039678222
1.267914553968893187630 581.34233527007052089 1.267914553968893187630 192.16552890153789690
1.596209851975103788391 624.27501286221092869 1.596209851975103788391 185.98814535209848486
2.009509145207687197399 665.64112998968039392 2.009509145207687197399 180.05163628132001463
2.529822128134711078928 705.55062906764067066 2.529822128134711078928 174.92973103670780688
3.184857364427983839050 744.20114335318044141 3.184857364427983839050 170.91254540003203033
4.009497869018190385759 781.81529474377566657 4.009497869018190385759 168.05129488604808330
5.009497869018190385759 817.39138646498145135 5.009497869018190385759 166.26245332558872292
6.009497869018190385759 845.98096005648085338 6.009497869018190385759 165.40355380084943704
7.009497869018204596614 869.85060157041891671 7.009497869018204596614 165.01044924740759257
8.009497869018190385759 890.30735816748904199 8.009497869018190385759 164.91147855670240574
9.009497869018204596614 908.19130939175727235 9.009497869018204596614 164.94190476461011485
10.009497869018190385759 924.03831671966020167 10.009497869018190385759 164.98327356001979638
11.009497869018190385759 938.26443447929739250 11.009497869018190385759 164.99550466626172351
12.009497869018190385759 951.13121023509904717 12.009497869018190385759 165.12261429578896355
13.009497869018190385759 962.86305255357763144 13.009497869018190385759 165.17947168593991591
14.009497869018204596614 973.65182305604105295 14.009497869018204596614 165.20725138863809889
15.009497869018190385759 983.60350706024416922 15.009497869018190385759 165.31161547994116745
16.009497869018190385759 992.82783691500924306 16.009497869018190385759 165.31224980053494278
17.009497869018190385759 1001.43182348436153006 17.009497869018190385759 165.19047743321070243
18.009497869018190385759 1009.46938509314122712 18.009497869018190385759 165.23392799457164415
19.009497869018204596614 1016.99059396117741016 19.009497869018204596614 165.22774002128235793
20.009497869018190385759 1024.06194287745574911 20.009497869018190385759 165.23040957385742900
21.009497869018204596614 1030.75513374210413531 21.009497869018204596614 165.13782978713939542
22.009497869018190385759 1037.08728111631330648 22.009497869018190385759 165.09522212845601530
23.009497869018190385759 1043.08339727508496253 23.009497869018190385759 165.32829190325475111
24.009497869018190385759 1048.76159637188538909 24.009497869018190385759 165.35705736810550093
25.009497869018190385759 1054.16258251222848230 25.009497869018190385759 165.35264471327241154
26.009497869018204596614 1059.33456403123409473 26.009497869018204596614 165.43481053432813610
27.009497869018190385759 1064.28300567763380968 27.009497869018190385759 165.38442188298327551
28.009497869018190385759 1069.01171078993161245 28.009497869018190385759 165.44322044580169973
29.009497869018190385759 1073.53496540216156063 29.009497869018190385759 165.63394118629705076
30.009497869018190385759 1077.85916431942405325 30.009497869018190385759 165.64440100468959827
31.009497869018190385759 1082.00640651457365493 31.009497869018190385759 165.58381571872311611
32.009497869018190385759 1085.99998669179922217 32.009497869018190385759 165.50847398416232181
33.009497869018190385759 1089.85100602787451862 33.009497869018190385759 165.44178536800535539
34.009497869018190385759 1093.55976059937233913 34.009497869018190385759 165.31143637931603507
35.009497869018190385759 1097.12917275573931875 35.009497869018190385759 165.28019265732379495
36.009497869018190385759 1100.56855903187465628 36.009497869018190385759 165.27561896412004216
37.009497869018190385759 1103.88321397086770048 37.009497869018190385759 165.21383244297049941
38.009497869018190385759 1107.07697957974278324 38.009497869018190385759 165.06749744001436397
39.009497869018190385759 1110.16294554872956724 39.009497869018190385759 164.83714841092057668
40.009497869018190385759 1113.15161870900237773 40.009497869018190385759 164.51657579169483370
41.009497869018190385759 1116.05150633873427068 41.009497869018190385759 164.33235241945439498
42.009497869018190385759 1118.86012934264886098 42.009497869018190385759 163.98528232884174827
43.009497869018190385759 1121.57946347494612382 43.009497869018190385759 163.75344238653258344
44.009497869018218807469 1124.21012734132500555 44.009497869018218807469 163.54705691333319351
46.009497869018190385759 1129.22789815510077460 46.009497869018190385759 162.98672498526647701
48.009497869018190385759 1133.92157278239596963 48.009497869018190385759 162.41407620111593246
50.009497869018190385759 1138.34421320528531396 50.009497869018190385759 161.90903941594964977
52.009497869018190385759 1142.53983128408503944 52.009497869018190385759 161.55278838064927527
54.009497869018190385759 1146.51548702518539358 54.009497869018190385759 161.21503522907167394
56.009497869018190385759 1150.27985720315905382 56.009497869018190385759 161.06746744631510637
58.009497869018218807469 1153.85924970972359915 58.009497869018218807469 160.93369096719442268
60.009497869018190385759 1157.29563559488519786 60.009497869018190385759 160.74466209066000033
62.009497869018190385759 1160.57784850939674470 62.009497869018190385759 160.52862351943082331
64.009497869018190385759 1163.71679165709633708 64.009497869018190385759 160.35272018580394615
66.009497869018190385759 1166.71976809505713391 66.009497869018190385759 160.15881748084419200
68.009497869018190385759 1169.59098946928247642 68.009497869018190385759 159.75936655093931904
70.009497869018190385759 1172.33038878193269738 70.009497869018190385759 159.44866134278566960
72.009497869018218807469 1174.95415974240086143 72.009497869018218807469 158.61834735363990490
74.009497869018190385759 1177.47493119664113692 74.009497869018190385759 157.88743278744280474
76.009497869018190385759 1179.90206930658382589 76.009497869018190385759 157.27758481476314500
78.009497869018190385759 1182.23166597781892051 78.009497869018190385759 156.47730250926429107
80.009497869018190385759 1184.46370549562948327 80.009497869018190385759 155.95001473763875310
82.009497869018218807469 1186.60037498965880332 82.009497869018218807469 155.46415584712963209
84.009497869018190385759 1188.64891756334577622 84.009497869018190385759 154.78219730608410032
86.009497869018190385759 1190.59257129554453059 86.009497869018190385759 154.03422959163484052
88.009497869018190385759 1192.45179738779984291 88.009497869018190385759 153.55344000389308690
91.009497869018218807469 1195.11693127551484395 91.009497869018218807469 153.13229217254001924
94.009497869018190385759 1197.67014458000699051 94.009497869018190385759 152.85955923073657914
97.009497869018190385759 1200.12013938028462690 97.009497869018190385759 152.84913942686418409
99.504748934509109403734 1202.07817257427905133 99.504748934509109403734 149.24348782328740981
nan nan nan nan

