Time Pressure difference Time.1 Pressure.1 difference.1
(hr) (psi) (hr) (psi)
0.000200000000006639311 0.82069073563716566 0.000200000000006639311 0.65539754841134801
0.000399999999999067768 1.63848665809852023 0.000399999999999067768 1.70426950383750109
0.000600000000005707079 2.45389091305605112 0.000600000000005707079 2.48829464022356017
0.000799999999998135536 3.26713615291121595 0.000799999999998135536 3.28341209850271287
0.001007140329434719206 4.10729430387608474 0.001007140329434719206 4.11491393775970860
0.001267914553963578328 5.16210429723777597 0.001267914553963578328 5.16474175109878519
0.001596209851982166583 6.48571456521080059 0.001596209851982166583 6.47866448443895049
0.002009509145210586212 8.14559026411176745 0.002009509145210586212 8.12127624886825927
0.002529822128138903281 10.22562271817432134 0.002529822128138903281 10.17205343793259509
0.003184857364445292660 12.82987136533638228 0.003184857364445292660 12.72833490627457742
0.004009497869020606231 16.08704441962022358 0.004009497869020606231 15.90866127789507445
0.005047658755842121536 20.15577676663990303 0.005047658755842121536 19.85638759567907385
0.006354625877804664924 25.23077145454308123 0.006354625877804664924 24.74339521417838128
0.008000000000009777068 31.54978261574854415 0.008000000000009777068 30.77357897327497938
0.010071403294347192059 39.40135624743784604 0.010071403294347192059 38.18560987448245925
0.012679145539692626699 49.13307545863978021 0.012679145539692626699 47.25409146039715580
0.015962098519750611558 61.15981903113544860 0.015962098519750611558 58.28798784222064455
0.020095091452091651263 75.97126113883474829 0.020095091452091651263 71.62475217963402940
0.025298221281346400247 94.13739485267070961 0.025298221281346400247 87.61790187401945218
0.031848573644282396344 116.31026616571509180 0.031848573644282396344 106.61530435379873438
0.040094978690191851456 143.21943760973849180 0.040094978690191851456 128.92490211295611857
0.050476587558421215363 175.65785866560884187 0.050476587558421215363 154.76729764244393550
0.063546258777947173257 214.45539350903902687 0.063546258777947173257 184.20868158349907162
0.079999999999998294697 260.43368669965121853 0.079999999999998294697 217.07961496699130066
0.100714032943542974863 314.34216536849106660 0.100714032943542974863 252.89028458380715847
0.126791455396897845276 376.77377136413298331 0.126791455396897845276 290.73879030599232465
0.159620985197506115583 448.05868501279707061 0.159620985197506115583 329.27142285256104515
0.200950914520774404082 528.16181850005284559 0.200950914520774404082 366.69300512526700686
0.252982212813464002465 616.58153476878248966 0.252982212813464002465 400.89846716581189412
0.318485736442795541734 712.30811505534859407 0.318485736442795541734 429.72130714624023540
0.400949786901819038576 813.83742032238455977 0.400949786901819038576 451.28842780449610927
0.504765875584169521062 919.29318708469611465 0.504765875584169521062 464.42252384365491480
0.635462587779443310865 1026.62605678498084671 0.635462587779443310865 468.92960263391535136
0.799999999999997157829 1133.86768620518682837 0.799999999999997157829 465.68865496733923237
1.007140329435330272645 1239.36967896560395275 1.007140329435330272645 456.48138739960751309
1.267914553968893187630 1341.97716646455546652 1.267914553968893187630 443.59706204373702576
1.596209851975103788391 1441.08344090622517797 1.596209851975103788391 429.33712057914328852
2.009509145207687197399 1536.57344960234649989 2.009509145207687197399 415.63321646248635943
2.529822128134711078928 1628.70098485707694635 2.529822128134711078928 403.80975295389561097
3.184857364427983839050 1717.92226549752876963 3.184857364427983839050 394.53643657764405361
4.009497869018190385759 1804.75119440852859043 4.009497869018190385759 387.93149380237269952
5.009497869018190385759 1886.87544352196664477 5.009497869018190385759 383.80211188243373499
6.009497869018190385759 1952.87193583131556807 6.009497869018190385759 381.81941858700753301
7.009497869018204596614 2007.97288399900457989 7.009497869018204596614 380.91197162719328162
8.009497869018190385759 2055.19549034925057640 8.009497869018190385759 380.68350657481767030
9.009497869018204596614 2096.47900392302835826 9.009497869018204596614 380.75374277438032777
10.009497869018190385759 2133.06041336220596349 10.009497869018190385759 380.84923896565317136
11.009497869018190385759 2165.90014314379868665 11.009497869018190385759 380.87747338847333367
12.009497869018190385759 2195.60195259877991703 12.009497869018190385759 381.17089468280255460
13.009497869018190385759 2222.68386897881919140 13.009497869018190385759 381.30214491987999281
14.009497869018204596614 2247.58878780226268645 14.009497869018204596614 381.36627189713658481
15.009497869018190385759 2270.56136676523647111 15.009497869018190385759 381.60718713593894336
16.009497869018190385759 2291.85491325240400329 16.009497869018190385759 381.60865140871152335
17.009497869018190385759 2311.71645234240440914 17.009497869018190385759 381.32755071030879890
18.009497869018190385759 2330.27044970098950216 18.009497869018190385759 381.42785247345040034
19.009497869018204596614 2347.63249260197062540 19.009497869018204596614 381.41356808651158872
20.009497869018190385759 2363.95607374515475385 20.009497869018190385759 381.41973051161488684
21.009497869018204596614 2379.40671060093200140 21.009497869018204596614 381.20601829367694791
22.009497869018190385759 2394.02391061429307229 22.009497869018190385759 381.10766229652926995
23.009497869018190385759 2407.86541240136421038 23.009497869018190385759 381.64568317854133284
24.009497869018190385759 2420.97303087715590664 24.009497869018190385759 381.71208570020610296
25.009497869018190385759 2433.44072785533126080 25.009497869018190385759 381.70189947830175470
26.009497869018204596614 2445.37978799733446067 26.009497869018204596614 381.89157198111257685
27.009497869018190385759 2456.80282619042554870 27.009497869018190385759 381.77525425324171238
28.009497869018190385759 2467.71862210386098013 28.009497869018190385759 381.91098551507496950
29.009497869018190385759 2478.16015377882149551 29.009497869018190385759 382.35124741135865634
30.009497869018190385759 2488.14218305511940343 30.009497869018190385759 382.37539297344233091
31.009497869018190385759 2497.71572344952983258 31.009497869018190385759 382.23553721985609855
32.009497869018190385759 2506.93454871845187881 32.009497869018190385759 382.06161751484199840
33.009497869018190385759 2515.82428494285068155 33.009497869018190385759 381.90767276539560271
34.009497869018190385759 2524.38561558920491734 34.009497869018190385759 381.60677369804727732
35.009497869018190385759 2532.62528664175351878 35.009497869018190385759 381.53465033980359067
36.009497869018190385759 2540.56480449414084433 36.009497869018190385759 381.52409237511824358
37.009497869018190385759 2548.21639112901266344 37.009497869018190385759 381.38146367676364434
38.009497869018190385759 2555.58891547847224501 38.009497869018190385759 381.04366231479951921
39.009497869018190385759 2562.71259393024502060 39.009497869018190385759 380.51192203268578851
40.009497869018190385759 2569.61168057124814368 40.009497869018190385759 379.77190860325811173
41.009497869018190385759 2576.30581369782566981 41.009497869018190385759 379.34664530472184651
42.009497869018190385759 2582.78927053863753827 42.009497869018190385759 378.54546481517678558
43.009497869018190385759 2589.06661194683874783 43.009497869018190385759 378.01028289227616597
44.009497869018218807469 2595.13926591875906524 44.009497869018218807469 377.53386035133922860
46.009497869018190385759 2606.72234433934499975 46.009497869018190385759 376.24038384449369232
48.009497869018190385759 2617.55727548833465335 48.009497869018190385759 374.91847496893115022
50.009497869018190385759 2627.76654824023808033 50.009497869018190385759 373.75264239008936329
52.009497869018190385759 2637.45176006700012294 52.009497869018190385759 372.93026850486324975
54.009497869018190385759 2646.62920836654893719 54.009497869018190385759 372.15059534187571444
56.009497869018190385759 2655.31892270261960221 56.009497869018190385759 371.80994821719468746
58.009497869018218807469 2663.58163250749294093 58.009497869018218807469 371.50113709249546901
60.009497869018190385759 2671.51422422370706045 60.009497869018190385759 371.06478071395343932
62.009497869018190385759 2679.09092132543037224 62.009497869018190385759 370.56607485326560436
64.009497869018190385759 2686.33689289068024664 64.009497869018190385759 370.16001762517356610
66.009497869018190385759 2693.26899737830990489 66.009497869018190385759 369.71241044643471696
68.009497869018190385759 2699.89695699918502214 68.009497869018190385759 368.79031344001879233
70.009497869018190385759 2706.22061709474155577 70.009497869018190385759 368.07307805297256209
72.009497869018218807469 2712.27735940535512782 72.009497869018218807469 366.15637192849584380
74.009497869018190385759 2718.09633650065779875 74.009497869018190385759 364.46912054671372516
76.009497869018190385759 2723.69916933388958569 76.009497869018190385759 363.06134064716354715
78.009497869018190385759 2729.07683641608628022 78.009497869018190385759 361.21395999802132337
80.009497869018190385759 2734.22930147121951450 80.009497869018190385759 359.99676299249318845
82.009497869018218807469 2739.16161329388569357 82.009497869018218807469 358.87520088075723379
84.009497869018190385759 2743.89049194529388842 84.009497869018190385759 357.30096013647448672
86.009497869018190385759 2748.37724401868717905 86.009497869018190385759 355.57434307601687351
88.009497869018190385759 2752.66910238118271081 88.009497869018190385759 354.46448299964112039
91.009497869018218807469 2758.82132733693606497 91.009497869018218807469 353.49230062259238139
94.009497869018190385759 2764.71519356319367944 94.009497869018190385759 352.86272084104609803
97.009497869018190385759 2770.37078903673182140 97.009497869018190385759 352.83866764892940182
99.504748934509109403734 2774.89073482099911416 99.504748934509109403734 344.51534105001860553
nan nan nan nan

