Time Pressure difference Time.1 Pressure.1 difference.1
(hr) (psi) (hr) (psi)
0.000200000000006639311 0.60555014805616780 0.000200000000006639311 0.48358786719825170
0.000399999999999067768 1.20896434590467727 0.000399999999999067768 1.25750249827686056
0.000600000000005707079 1.81061384171848272 0.000600000000005707079 1.83599877805969158
0.000799999999998135536 2.41067029906100849 0.000799999999998135536 2.42267957470493700
0.001007140329434719206 3.03058456227294126 0.001007140329434719206 3.03620674152512926
0.001267914553963578328 3.80888059988495842 0.001267914553963578328 3.81082665642815188
0.001596209851982166583 4.78551206279217922 0.001596209851982166583 4.78031013072469158
0.002009509145210586212 6.01025840337801487 0.002009509145210586212 5.99231820387141845
0.002529822128138903281 7.54501919185129655 0.002529822128138903281 7.50549287070127669
0.003184857364445292660 9.46657512685245273 0.003184857364445292660 9.39165601890097967
0.004009497869020606231 11.86989411123800053 0.004009497869020606231 11.73827335180719622
0.005047658755842121536 14.87202556971709555 0.005047658755842121536 14.65111999721664482
0.006354625877804664924 18.61663197405051307 0.006354625877804664924 18.25701934325509868
0.008000000000009777068 23.27914122153915599 0.008000000000009777068 22.70641606428892700
0.010071403294347192059 29.07245820281598014 0.010071403294347192059 28.17541457337825150
0.012679145539692626699 36.25304859245788691 0.012679145539692626699 34.86663226177078201
0.015962098519750611558 45.12703246325683182 0.015962098519750611558 43.00803961232676897
0.020095091452091651263 56.05571798604304945 0.020095091452091651263 52.84862787343441681
0.025298221281346400247 69.45967697125198015 0.025298221281346400247 64.64924136251030973
0.031848573644282396344 85.82002432672703662 0.031848573644282396344 78.66655554040411857
0.040094978690191851456 105.67507086791432869 0.040094978690191851456 95.12778708536943384
0.050476587558421215363 129.60989774011017062 0.050476587558421215363 114.19570848313929901
0.063546258777947173257 158.23682375312696990 0.063546258777947173257 135.91915877972755311
0.079999999999998294697 192.16210283810298165 0.079999999999998294697 160.17311671147436414
0.100714032943542974863 231.93870298950400866 0.100714032943542974863 186.59617151983340477
0.126791455396897845276 278.00412887090379854 0.126791455396897845276 214.52285236140528468
0.159620985197506115583 330.60200543960428377 0.159620985197506115583 242.95431908857997882
0.200950914520774404082 389.70644300256941506 0.200950914520774404082 270.56599264809682381
0.252982212813464002465 454.94730652473936061 0.252982212813464002465 295.80463822254745310
0.318485736442795541734 525.57957072403746679 0.318485736442795541734 317.07169322834931791
0.400949786901819038576 600.49340021762998276 0.400949786901819038576 332.98508488813524764
0.504765875584169521062 678.30438601694686440 0.504765875584169521062 342.67613348383042648
0.635462587779443310865 757.50040019863467933 0.635462587779443310865 346.00170072887073047
0.799999999999997157829 836.62909235180268297 0.799999999999997157829 343.61035371577963815
1.007140329435330272645 914.47418620032931358 1.007140329435330272645 336.81673220072258346
1.267914553968893187630 990.18355703710608395 1.267914553968893187630 327.30997796546989775
1.596209851975103788391 1063.30954293586864878 1.596209851975103788391 316.78821953663504019
2.009509145207687197399 1133.76725178148853956 2.009509145207687197399 306.67673562869691750
2.529822128134711078928 1201.74394530446284080 2.529822128134711078928 297.95274281719622422
3.184857364427983839050 1267.57624650576758540 3.184857364427983839050 291.11038690799847473
4.009497869018190385759 1331.64334081358038020 4.009497869018190385759 286.23690180357255031
5.009497869018190385759 1392.23906713311089334 5.009497869018190385759 283.19001979989292295
6.009497869018190385759 1440.93485953545473421 6.009497869018190385759 281.72708112340944808
7.009497869018204596614 1481.59132837578363251 7.009497869018204596614 281.05751752654236952
8.009497869018190385759 1516.43472921518582552 8.009497869018190385759 280.88894361643940556
9.009497869018204596614 1546.89594520231548813 9.009497869018204596614 280.94076769486161993
10.009497869018190385759 1573.88769366502879166 10.009497869018190385759 281.01122996554772726
11.009497869018190385759 1598.11862788646681111 11.009497869018190385759 281.03206285445048707
12.009497869018190385759 1620.03423425557753035 12.009497869018190385759 281.24856500380872149
13.009497869018190385759 1640.01674138214502818 13.009497869018190385759 281.34540854918270725
14.009497869018204596614 1658.39294160713529891 14.009497869018204596614 281.39272491195606563
15.009497869018190385759 1675.34335665167759544 15.009497869018190385759 281.57048524503994713
16.009497869018190385759 1691.05489044635896789 16.009497869018190385759 281.57156566492989214
17.009497869018190385759 1705.70981149555973388 17.009497869018190385759 281.36415431965093603
18.009497869018190385759 1719.39995731985959537 18.009497869018190385759 281.43816240196895251
19.009497869018204596614 1732.21061448060390831 19.009497869018204596614 281.42762260634310678
20.009497869018190385759 1744.25503821884399258 20.009497869018190385759 281.43216957790207289
21.009497869018204596614 1755.65535630372414744 21.009497869018204596614 281.27448110940326842
22.009497869018190385759 1766.44071947147722312 22.009497869018190385759 281.20190871879538008
23.009497869018190385759 1776.65373040546000993 23.009497869018190385759 281.59888971372123478
24.009497869018190385759 1786.32524241846840596 24.009497869018190385759 281.64788509660957061
25.009497869018190385759 1795.52458563414620585 25.009497869018190385759 281.64036914947564583
26.009497869018204596614 1804.33387191301312669 26.009497869018204596614 281.78031981197477762
27.009497869018190385759 1812.76240920325949446 27.009497869018190385759 281.69449428199720842
28.009497869018190385759 1820.81667562116876979 28.009497869018190385759 281.79464417053605985
29.009497869018190385759 1828.52100415461609373 29.009497869018190385759 282.11949328226762645
30.009497869018190385759 1835.88628688986045745 30.009497869018190385759 282.13730918789417501
31.009497869018190385759 1842.95016436711262031 31.009497869018190385759 282.03411602558213644
32.009497869018190385759 1849.75231378112516722 32.009497869018190385759 281.90578863190262382
33.009497869018190385759 1856.31164344467424598 33.009497869018190385759 281.79219984410264033
34.009497869018190385759 1862.62865765640754034 34.009497869018190385759 281.57018018813408844
35.009497869018190385759 1868.70833396947182337 35.009497869018190385759 281.51696366165668906
36.009497869018190385759 1874.56654096784268404 36.009497869018190385759 281.50917342253160314
37.009497869018190385759 1880.21229669337049017 37.009497869018190385759 281.40393423113431481
38.009497869018190385759 1885.65214512530997126 38.009497869018190385759 281.15468606021141795
39.009497869018190385759 1890.90838155379401542 39.009497869018190385759 280.76233923261935388
40.009497869018190385759 1895.99890195995953945 40.009497869018190385759 280.21631717791012761
41.009497869018190385759 1900.93819654424601140 41.009497869018190385759 279.90253484528562922
42.009497869018190385759 1905.72204273549277787 42.009497869018190385759 279.31138041524684468
43.009497869018190385759 1910.35380577858813922 43.009497869018190385759 278.91649415836974413
44.009497869018218807469 1914.83453932669567621 44.009497869018218807469 278.56496376126142422
46.009497869018190385759 1923.38116297913188646 46.009497869018190385759 277.61056662210108925
48.009497869018190385759 1931.37576298683802634 48.009497869018190385759 276.63519053881657328
50.009497869018190385759 1938.90871828657259357 50.009497869018190385759 275.77497601454979304
52.009497869018190385759 1946.05499300490191672 52.009497869018190385759 275.16818394741426346
54.009497869018190385759 1952.82661224616845175 54.009497869018190385759 274.59289878970383825
56.009497869018190385759 1959.23835490911915258 56.009497869018190385759 274.34155086066289186
58.009497869018218807469 1965.33503046352461752 58.009497869018218807469 274.11369325954370879
60.009497869018190385759 1971.18812698287706553 60.009497869018190385759 273.79172585068022272
62.009497869018190385759 1976.77862514801472571 62.009497869018190385759 273.42375361136697620
64.009497869018190385759 1982.12509607014771973 64.009497869018190385759 273.12414255946509911
66.009497869018190385759 1987.23997883480524251 66.009497869018190385759 272.79387369984914358
68.009497869018190385759 1992.13044701660510327 68.009497869018190385759 272.11350050381952315
70.009497869018190385759 1996.79638650006722855 70.009497869018190385759 271.58428532451108595
72.009497869018218807469 2001.26537956123888762 72.009497869018218807469 270.17003556262500297
74.009497869018190385759 2005.55893654755004718 74.009497869018190385759 268.92508995805093264
76.009497869018190385759 2009.69301057126062915 76.009497869018190385759 267.88635357467836684
78.009497869018190385759 2013.66094508838796173 78.009497869018190385759 266.52325590947123146
80.009497869018190385759 2017.46271333250911084 80.009497869018190385759 265.62514192462299434
82.009497869018218807469 2021.10204057818054935 82.009497869018218807469 264.79759255270448648
84.009497869018190385759 2024.59126379364306558 84.009497869018190385759 263.63603232741894544
86.009497869018190385759 2027.90183288423372687 86.009497869018190385759 262.36204058949022055
88.009497869018190385759 2031.06859882174330778 88.009497869018190385759 261.54312561410762328
91.009497869018218807469 2035.60804415852885541 91.009497869018218807469 260.82579671444312908
94.009497869018190385759 2039.95685840846954306 94.009497869018190385759 260.36125859627799173
97.009497869018190385759 2044.12986357062504794 97.009497869018190385759 260.34351084622426242
99.504748934509109403734 2047.46492478189111353 99.504748934509109403734 254.20210893265542040
nan nan nan nan

