Time Pressure difference Time.1 Pressure.1 difference.1
(hr) (psi) (hr) (psi)
0.000200000000006639311 0.57066248520519525 0.000200000000006639311 0.45572683781234413
0.000399999999999067768 1.13931207906243248 0.000399999999999067768 1.18505379467243244
0.000600000000005707079 1.70629864096103945 0.000600000000005707079 1.73022107068176689
0.000799999999998135536 2.27178394438259623 0.000799999999998135536 2.28310132760259510
0.001007140329434719206 2.85598298255351279 0.001007140329434719206 2.86128125024384561
0.001267914553963578328 3.58943891923314995 0.001267914553963578328 3.59127285729237355
0.001596209851982166583 4.50980354888645785 0.001596209851982166583 4.50490131660886561
0.002009509145210586212 5.66398837190767601 0.002009509145210586212 5.64708176414220109
0.002529822128138903281 7.11032672812323785 0.002529822128138903281 7.07307764358268543
0.003184857364445292660 8.92117573682803133 0.003184857364445292660 8.85057295608364036
0.004009497869020606231 11.18603189906790796 0.004009497869020606231 11.06199422865781123
0.005047658755842121536 14.01520105129717919 0.005047658755842121536 13.80702254881733104
0.006354625877804664924 17.54406881505171967 0.006354625877804664924 17.20517460742970073
0.008000000000009777068 21.93795613058628291 0.008000000000009777068 21.39822748445335066
0.010071403294347192059 27.39750176314757013 0.010071403294347192059 26.55213965968567891
0.012679145539692626699 34.16439558713109648 0.012679145539692626699 32.85785509442595753
0.015962098519750611558 42.52712112792515597 0.015962098519750611558 40.53021016964127909
0.020095091452091651263 52.82617044775250292 0.020095091452091651263 49.80385095891556091
0.025298221281346400247 65.45788488237326419 0.025298221281346400247 60.92459371199529983
0.031848573644282396344 80.87566078526950264 0.031848573644282396344 74.13432600309688780
0.040094978690191851456 99.58679518005095588 0.040094978690191851456 89.64717383765268721
0.050476587558421215363 122.14266083327254364 0.050476587558421215363 107.61653186271151128
0.063546258777947173257 149.12029892784394747 0.063546258777947173257 128.08842535208893310
0.079999999999998294697 181.09103518487896167 0.079999999999998294697 150.94503591328242464
0.100714032943542974863 218.57597936047909570 0.100714032943542974863 175.84577480675659444
0.126791455396897845276 261.98743008821793410 0.126791455396897845276 202.16351107309387203
0.159620985197506115583 311.55497631962708738 0.159620985197506115583 228.95695091063709015
0.200950914520774404082 367.25421994892343491 0.200950914520774404082 254.97782846260977863
0.252982212813464002465 428.73635059327290264 0.252982212813464002465 278.76239569120724582
0.318485736442795541734 495.29926623787906692 0.318485736442795541734 298.80418826869134818
0.400949786901819038576 565.89707263307514040 0.400949786901819038576 313.80075900980648385
0.504765875584169521062 639.22512097893343253 0.504765875584169521062 322.93347558764264704
0.635462587779443310865 713.85840183328116382 0.635462587779443310865 326.06744636589053243
0.799999999999997157829 788.42823929449718889 0.799999999999997157829 323.81387243174299329
1.007140329435330272645 861.78843061677127935 1.007140329435330272645 317.41165297928176869
1.267914553968893187630 933.13594469751978977 1.267914553968893187630 308.45261297980493964
1.596209851975103788391 1002.04891083256768525 1.596209851975103788391 298.53704639460664794
2.009509145207687197399 1068.44732781053835424 2.009509145207687197399 289.00811711510942814
2.529822128134711078928 1132.50766862025511728 2.529822128134711078928 280.78674117340716521
3.184857364427983839050 1194.54716234494162563 3.184857364427983839050 274.33859506967758080
4.009497869018190385759 1254.92314833872387680 4.009497869018190385759 269.74588688484823251
5.009497869018190385759 1312.02776285383720278 5.009497869018190385759 266.87454540812956338
6.009497869018190385759 1357.91803635234214198 6.009497869018190385759 265.49589126444755038
7.009497869018204596614 1396.23215719363975040 7.009497869018204596614 264.86490334805847624
8.009497869018190385759 1429.06811930155390655 8.009497869018190385759 264.70604151508075574
9.009497869018204596614 1457.77436811247025616 9.009497869018204596614 264.75487984412882270
10.009497869018190385759 1483.21103641683771457 10.009497869018190385759 264.82128256012521206
11.009497869018190385759 1506.04594973662915436 11.009497869018190385759 264.84091520028459854
12.009497869018190385759 1526.69892857830154753 12.009497869018190385759 265.04494397478276824
13.009497869018190385759 1545.53018015025190834 13.009497869018190385759 265.13620805663720148
14.009497869018204596614 1562.84766925116855418 14.009497869018204596614 265.18079837381861807
15.009497869018190385759 1578.82151717380315858 15.009497869018190385759 265.34831737084010683
16.009497869018190385759 1593.62785972105439214 16.009497869018190385759 265.34933554431660241
17.009497869018190385759 1607.43846433120643269 17.009497869018190385759 265.15387382386853687
18.009497869018190385759 1620.33987747427090653 18.009497869018190385759 265.22361806605312040
19.009497869018204596614 1632.41247208254435463 19.009497869018204596614 265.21368550145086829
20.009497869018190385759 1643.76297840376651038 20.009497869018190385759 265.21797050757021452
21.009497869018204596614 1654.50648803931198927 21.009497869018204596614 265.06936697141298964
22.009497869018190385759 1664.67047225912892827 22.009497869018190385759 265.00097570618993359
23.009497869018190385759 1674.29507927098916298 23.009497869018190385759 265.37508536807479231
24.009497869018190385759 1683.40938483057311714 24.009497869018190385759 265.42125797170206170
25.009497869018190385759 1692.07872473341353725 25.009497869018190385759 265.41417504209846356
26.009497869018204596614 1700.38048011555565608 26.009497869018204596614 265.54606270346596375
27.009497869018190385759 1708.32342266479986392 27.009497869018190385759 265.46518185422780789
28.009497869018190385759 1715.91365727262382279 28.009497869018190385759 265.55956179034058096
29.009497869018190385759 1723.17411502636673504 29.009497869018190385759 265.86569531538799538
30.009497869018190385759 1730.11506048468322660 30.009497869018190385759 265.88248479023769733
31.009497869018190385759 1736.77196559699086720 31.009497869018190385759 265.78523691299716347
32.009497869018190385759 1743.18222162912616113 32.009497869018190385759 265.66430286710169639
33.009497869018190385759 1749.36364752605118156 33.009497869018190385759 265.55725828929837462
34.009497869018190385759 1755.31671853216994350 34.009497869018190385759 265.34802988922922395
35.009497869018190385759 1761.04612542802101416 35.009497869018190385759 265.29787933547072498
36.009497869018190385759 1766.56682255817281657 36.009497869018190385759 265.29053791670668261
37.009497869018190385759 1771.88730840650964637 37.009497869018190385759 265.19136188859982894
38.009497869018190385759 1777.01374993290528437 38.009497869018190385759 264.95647369460249365
39.009497869018190385759 1781.96715792518034505 39.009497869018190385759 264.58673121098695447
40.009497869018190385759 1786.76439732029098195 40.009497869018190385759 264.07216721704287465
41.009497869018190385759 1791.41912349231392909 41.009497869018190385759 263.77646287889058385
42.009497869018190385759 1795.92735714579362138 42.009497869018190385759 263.21936672877171759
43.009497869018190385759 1800.29226964319627768 43.009497869018190385759 262.84723112043900528
44.009497869018218807469 1804.51485393338816721 44.009497869018218807469 262.51595350341102630
46.009497869018190385759 1812.56907951531366052 46.009497869018190385759 261.61654220765905166
48.009497869018190385759 1820.10308528389259664 48.009497869018190385759 260.69736063123048098
50.009497869018190385759 1827.20204315895125546 50.009497869018190385759 259.88670579148924844
52.009497869018190385759 1833.93659834618324567 52.009497869018190385759 259.31487293809823313
54.009497869018190385759 1840.31808314556610640 54.009497869018190385759 258.77273178124352171
56.009497869018190385759 1846.36042499665973082 56.009497869018190385759 258.53586480284690197
58.009497869018218807469 1852.10585175369169519 58.009497869018218807469 258.32113480014612605
60.009497869018190385759 1857.62173283571542015 60.009497869018190385759 258.01771695393318851
62.009497869018190385759 1862.89014468681216385 62.009497869018190385759 257.67094476132939462
64.009497869018190385759 1867.92858847762863661 64.009497869018190385759 257.38859525151241314
66.009497869018190385759 1872.74878663856134153 66.009497869018190385759 257.07735422742979381
68.009497869018190385759 1877.35749945186239529 68.009497869018190385759 256.43617948713858823
70.009497869018190385759 1881.75461937660679723 70.009497869018190385759 255.93745407124708890
72.009497869018218807469 1885.96613958651732901 72.009497869018218807469 254.60468371951077415
74.009497869018190385759 1890.01233114974888849 74.009497869018190385759 253.43146337610562568
76.009497869018190385759 1893.90822806921278243 76.009497869018190385759 252.45257188724832531
78.009497869018190385759 1897.64755730551769375 78.009497869018190385759 251.16800659781443983
80.009497869018190385759 1901.23029363433988692 80.009497869018190385759 250.32163580550894721
82.009497869018218807469 1904.65994770536349279 82.009497869018218807469 249.54176417518237940
84.009497869018190385759 1907.94814571499682643 84.009497869018190385759 248.44712511513967002
86.009497869018190385759 1911.06798242999821014 86.009497869018190385759 247.24653207816155032
88.009497869018190385759 1914.05230094723947332 88.009497869018190385759 246.47479738942655558
91.009497869018218807469 1918.33021445392205351 91.009497869018218807469 245.79879608068921470
94.009497869018190385759 1922.42847973473089951 94.009497869018190385759 245.36102147550474228
97.009497869018190385759 1926.36106484639140035 97.009497869018190385759 245.34429622956938033
99.504748934509109403734 1929.50398261338705197 99.504748934509109403734 239.55671994065059494
nan nan nan nan

