Time Pressure difference Time.1 Pressure.1 difference.1
(hr) (psi) (hr) (psi)
0.000200000000006639311 0.71519708844493901 0.000200000000006639311 0.57115110241110389
0.000399999999999067768 1.42787147026601824 0.000399999999999067768 1.48519842389077761
0.000600000000005707079 2.13846161552759106 0.000600000000005707079 2.16844300124745493
0.000799999999998135536 2.84717027090744601 0.000799999999998135536 2.86135406559801231
0.001007140329434719206 3.57933238424828870 0.001007140329434719206 3.58597257126630442
0.001267914553963578328 4.49855445336206916 0.001267914553963578328 4.50085288228345437
0.001596209851982166583 5.65202453506730684 0.001596209851982166583 5.64588068937443044
0.002009509145210586212 7.09853564514193458 0.002009509145210586212 7.07734701444895986
0.002529822128138903281 8.91119550642519265 0.002529822128138903281 8.86451215593113773
0.003184857364445292660 11.18068749550063323 0.003184857364445292660 11.09220278775547719
0.004009497869020606231 14.01917534948685429 0.004009497869020606231 13.86372202456240821
0.005047658755842121536 17.56490262760825516 0.005047658755842121536 17.30399769218591288
0.006354625877804664924 21.98754475947529841 0.006354625877804664924 21.56281708442063305
0.008000000000009777068 27.49429436453390707 0.008000000000009777068 26.81786588662930626
0.010071403294347192059 34.33660701320241060 0.010071403294347192059 33.27713573069777198
0.012679145539692626699 42.81738660919923234 0.012679145539692626699 41.17993193056877743
0.015962098519750611558 53.29818237429921624 0.015962098519750611558 50.79550357505260649
0.020095091452091651263 66.20572453495618959 0.020095091452091651263 62.41792674763653537
0.025298221281346400247 82.03673782201364872 0.025298221281346400247 76.35527683555743295
0.031848573644282396344 101.35945259987924771 0.031848573644282396344 92.91070551479828055
0.040094978690191851456 124.80965160119923496 0.040094978690191851456 112.35257157819353324
0.050476587558421215363 153.07835659017126773 0.050476587558421215363 134.87312071876945652
0.063546258777947173257 186.88875891830221576 0.063546258777947173257 160.53003526659179556
0.079999999999998294697 226.95688689109283587 0.079999999999998294697 189.17565636293474540
0.100714032943542974863 273.93583439501094290 0.100714032943542974863 220.38313261807485333
0.126791455396897845276 328.34232504505922634 0.126791455396897845276 253.36649641038400205
0.159620985197506115583 390.46409695953263963 0.159620985197506115583 286.94604764782900475
0.200950914520774404082 460.27057259974242243 0.200950914520774404082 319.55736580248469636
0.252982212813464002465 537.32459659506253047 0.252982212813464002465 349.36597189247373763
0.318485736442795541734 620.74624196625018158 0.318485736442795541734 374.48385167298869192
0.400949786901819038576 709.22471548337375680 0.400949786901819038576 393.27868050573999881
0.504765875584169521062 801.12493327927461451 0.504765875584169521062 404.72448687184908067
0.635462587779443310865 894.66096648974541949 0.635462587779443310865 408.65221444109425875
0.799999999999997157829 988.11748767476296962 0.799999999999997157829 405.82786632275212924
1.007140329435330272645 1080.05798946294044072 1.007140329435330272645 397.80412403953653211
1.267914553968893187630 1169.47605296152050869 1.267914553968893187630 386.57598220613112971
1.596209851975103788391 1255.84295811767196938 1.596209851975103788391 374.14904941158135898
2.009509145207687197399 1339.05844140447402424 2.009509145207687197399 362.20667952854324767
2.529822128134711078928 1419.34367202625844584 2.529822128134711078928 351.90303369767622144
3.184857364427983839050 1497.09622529693524484 3.184857364427983839050 343.82173268557846768
4.009497869018190385759 1572.76394573455809223 4.009497869018190385759 338.06580583384908323
5.009497869018190385759 1644.33173772511463540 5.009497869018190385759 334.46722503114921210
6.009497869018190385759 1701.84487525380859552 6.009497869018190385759 332.73939210871810701
7.009497869018204596614 1749.86300923395015161 7.009497869018204596614 331.94859065892046601
8.009497869018190385759 1791.01550322945831795 8.009497869018190385759 331.74949307785220753
9.009497869018204596614 1826.99233034182952906 9.009497869018204596614 331.81070094002177484
10.009497869018190385759 1858.87147358791435181 10.009497869018190385759 331.89392181116130587
11.009497869018190385759 1887.48990207167071276 11.009497869018190385759 331.91852691040031686
12.009497869018190385759 1913.37376638415958041 12.009497869018190385759 332.17423109503334899
13.009497869018190385759 1936.97450525380918407 13.009497869018190385759 332.28861009718286823
14.009497869018204596614 1958.67808329731587946 14.009497869018204596614 332.34449403181639582
15.009497869018190385759 1978.69770929642550072 15.009497869018190385759 332.55444142109661243
16.009497869018190385759 1997.25412986874493981 16.009497869018190385759 332.55571747257147308
17.009497869018190385759 2014.56261686924108290 17.009497869018190385759 332.31075016353833007
18.009497869018190385759 2030.73163683456664330 18.009497869018190385759 332.39815888627612139
19.009497869018204596614 2045.86191916021925863 19.009497869018204596614 332.38571065028997964
20.009497869018190385759 2060.08722620908702083 20.009497869018190385759 332.39108094180204489
21.009497869018204596614 2073.55179942044742347 21.009497869018204596614 332.20483982880142548
22.009497869018190385759 2086.29006785314413719 22.009497869018190385759 332.11912675841267628
23.009497869018190385759 2098.35234825665429526 23.009497869018190385759 332.58798908575312225
24.009497869018190385759 2109.77508055185353442 24.009497869018190385759 332.64585606060472855
25.009497869018190385759 2120.64014846502050204 25.009497869018190385759 332.63697920123257745
26.009497869018204596614 2131.04453184787962527 26.009497869018204596614 332.80227072443113912
27.009497869018190385759 2140.99922403841719643 27.009497869018190385759 332.70090476927242662
28.009497869018190385759 2150.51187614516629765 28.009497869018190385759 332.81918879400762989
29.009497869018190385759 2159.61122712911446797 29.009497869018190385759 333.20285832103218127
30.009497869018190385759 2168.31014130613175439 30.009497869018190385759 333.22390015195730939
31.009497869018190385759 2176.65307478749491565 31.009497869018190385759 333.10202180799205962
32.009497869018190385759 2184.68688911597928382 32.009497869018190385759 332.95045817841997859
33.009497869018190385759 2192.43391633177589028 33.009497869018190385759 332.81630187348747540
34.009497869018190385759 2199.89475204686823417 34.009497869018190385759 332.55408112754929562
35.009497869018190385759 2207.07527509974670465 35.009497869018190385759 332.49122868681263299
36.009497869018190385759 2213.99422739823376105 36.009497869018190385759 332.48202786940970554
37.009497869018190385759 2220.66225988064752528 37.009497869018190385759 332.35773302195701717
38.009497869018190385759 2227.08710144429596767 38.009497869018190385759 332.06335349498215237
39.009497869018190385759 2233.29508438657967417 39.009497869018190385759 331.59996444346404587
40.009497869018190385759 2239.30734511320315505 40.009497869018190385759 330.95507419777857194
41.009497869018190385759 2245.14099756460336721 41.009497869018190385759 330.58447531109874262
42.009497869018190385759 2250.79105458883304891 42.009497869018190385759 329.88628057274007688
43.009497869018190385759 2256.26149077553418465 43.009497869018190385759 329.41989227758074321
44.009497869018218807469 2261.55355056280541248 44.009497869018218807469 329.00471028593426581
46.009497869018190385759 2271.64771100827510963 46.009497869018190385759 327.87750049606177072
48.009497869018190385759 2281.08989291038096781 48.009497869018190385759 326.72551310551591541
50.009497869018190385759 2289.98684011623981860 50.009497869018190385759 325.70953957273985679
52.009497869018190385759 2298.42709050373150603 52.009497869018190385759 324.99287569097901951
54.009497869018190385759 2306.42484656234682916 54.009497869018190385759 324.31342367343620481
56.009497869018190385759 2313.99756320542064714 56.009497869018190385759 324.01656418522736658
58.009497869018218807469 2321.19816355156990539 58.009497869018218807469 323.74744841765044612
60.009497869018190385759 2328.11108001681350288 60.009497869018190385759 323.36718238331366138
62.009497869018190385759 2334.71384945465115379 62.009497869018190385759 322.93258142577087710
64.009497869018190385759 2341.02840564663529221 64.009497869018190385759 322.57871981303082976
66.009497869018190385759 2347.06944002300042484 66.009497869018190385759 322.18864918459541968
68.009497869018190385759 2352.84542507722517257 68.009497869018190385759 321.38508084195967740
70.009497869018190385759 2358.35622603094361693 70.009497869018190385759 320.76004069191230883
72.009497869018218807469 2363.63441948179251995 72.009497869018218807469 319.08971278384103698
74.009497869018190385759 2368.70541065492579946 74.009497869018190385759 317.61934492987910517
76.009497869018190385759 2373.58804129198279043 76.009497869018190385759 316.39252459231562398
78.009497869018190385759 2378.27444954883685568 78.009497869018190385759 314.78261088896391584
80.009497869018190385759 2382.76460381246943143 80.009497869018190385759 313.72187544183873342
82.009497869018218807469 2387.06290389274818153 82.009497869018218807469 312.74448173920234240
84.009497869018190385759 2391.18392061224494682 84.009497869018190385759 311.37259785172528836
86.009497869018190385759 2395.09393431183161738 86.009497869018190385759 309.86792448223735619
88.009497869018190385759 2398.83410642732633278 88.009497869018190385759 308.90072860596256987
91.009497869018218807469 2404.19550894443500511 91.009497869018218807469 308.05351299195547199
94.009497869018190385759 2409.33176281164924148 94.009497869018190385759 307.50486097585087464
97.009497869018190385759 2414.26037384678738817 97.009497869018190385759 307.48389964142535291
99.504748934509109403734 2418.19931445433257977 99.504748934509109403734 300.23047433609923473
nan nan nan nan

