Time Pressure difference Time.1 Pressure.1 difference.1
(hr) (psi) (hr) (psi)
0.000200000000006639311 0.62963924859612508 0.000200000000006639311 0.50282524463137834
0.000399999999999067768 1.25705757777194171 0.000399999999999067768 1.30752660314658486
0.000600000000005707079 1.88264100414624136 0.000600000000005707079 1.90903576648730633
0.000799999999998135536 2.50656802014848346 0.000799999999998135536 2.51905503103750616
0.001007140329434719206 3.15114279588873725 0.001007140329434719206 3.15698862836220551
0.001267914553963578328 3.96039985557311125 0.001267914553963578328 3.96242332725999891
0.001596209851982166583 4.97588222715565465 0.001596209851982166583 4.97047335951895253
0.002009509145210586212 6.24934961558372404 0.002009509145210586212 6.23069574558921246
0.002529822128138903281 7.84516398823495553 0.002529822128138903281 7.80406528942601962
0.003184857364445292660 9.84316041996455127 0.003184857364445292660 9.76526099084628640
0.004009497869020606231 12.34208468630782285 0.004009497869020606231 12.20522798445796298
0.005047658755842121536 15.46364249910227429 0.005047658755842121536 15.23394918777807483
0.006354625877804664924 19.35721129812110775 0.006354625877804664924 18.98329308942025406
0.008000000000009777068 24.20519759386376180 0.008000000000009777068 23.60968913131825531
0.010071403294347192059 30.22897574449178748 0.010071403294347192059 29.29624725188026702
0.012679145539692626699 37.69521376280258096 0.012679145539692626699 36.25364506779457940
0.015962098519750611558 46.92220933765249669 0.015962098519750611558 44.71892184656199021
0.020095091452091651263 58.28564366724366153 0.020095091452091651263 54.95097383822124470
0.025298221281346400247 72.22281912785871327 0.025298221281346400247 67.22102188310398674
0.031848573644282396344 89.23398962916198229 0.031848573644282396344 81.79595212568769114
0.040094978690191851456 109.87888027143903003 0.040094978690191851456 98.91202004212625809
0.050476587558421215363 134.76584703292661516 0.050476587558421215363 118.73847329248228277
0.063546258777947173257 164.53156708487000515 0.063546258777947173257 141.32609376547802071
0.079999999999998294697 199.80641145580528928 0.079999999999998294697 166.54488678641641286
0.100714032943542974863 241.16534549525931652 0.100714032943542974863 194.01906448838647634
0.126791455396897845276 289.06327803037731883 0.126791455396897845276 223.05668325095365390
0.159620985197506115583 343.75352554625527546 0.159620985197506115583 252.61916854477863126
0.200950914520774404082 405.20916844437255122 0.200950914520774404082 281.32924887140933379
0.252982212813464002465 473.04534752503764139 0.252982212813464002465 307.57190092275857296
0.318485736442795541734 546.48740001209944239 0.318485736442795541734 329.68497046239889414
0.400949786901819038576 624.38134069267971427 0.400949786901819038576 346.23140513745755698
0.504765875584169521062 705.28768806700361438 0.504765875584169521062 356.30796869786479419
0.635462587779443310865 787.63416097471201738 0.635462587779443310865 359.76582874140467538
0.799999999999997157829 869.91063374851364642 0.799999999999997157829 357.27935269761451309
1.007140329435330272645 950.85244600802411696 1.007140329435330272645 350.21547737743168227
1.267914553968893187630 1029.57357508110612798 1.267914553968893187630 340.33053950319089154
1.596209851975103788391 1105.60855081671934386 1.596209851975103788391 329.39022003946416817
2.009509145207687197399 1178.86910404714421929 2.009509145207687197399 318.87649603093592532
2.529822128134711078928 1249.54994587212991064 2.529822128134711078928 309.80545823790777149
3.184857364427983839050 1318.00109033109993106 3.184857364427983839050 302.69090984398195587
4.009497869018190385759 1384.61680704621949189 4.009497869018190385759 297.62355496173938718
5.009497869018190385759 1447.62306294499057913 5.009497869018190385759 294.45546640372953107
6.009497869018190385759 1498.25599935236550664 6.009497869018190385759 292.93433126412116962
7.009497869018204596614 1540.52980371583544184 7.009497869018204596614 292.23813207835274852
8.009497869018190385759 1576.75929320316981830 8.009497869018190385759 292.06285221023460963
9.009497869018204596614 1608.43227224054226099 9.009497869018204596614 292.11673787751038844
10.009497869018190385759 1636.49776652687501155 10.009497869018190385759 292.19000317405374290
11.009497869018190385759 1661.69261994230714663 11.009497869018190385759 292.21166480613641170
12.009497869018190385759 1684.48004055655383127 12.009497869018190385759 292.43677952385053231
13.009497869018190385759 1705.25746223273790747 13.009497869018190385759 292.53747555594031837
14.009497869018204596614 1724.36467728149295908 14.009497869018204596614 292.58667418828900963
15.009497869018190385759 1741.98938867211472825 15.009497869018190385759 292.77150592008274543
16.009497869018190385759 1758.32593547097394548 16.009497869018190385759 292.77262931963895198
17.009497869018190385759 1773.56383691856535734 17.009497869018190385759 292.55696704292921595
18.009497869018190385759 1787.79858387990884694 18.009497869018190385759 292.63391920533945267
19.009497869018204596614 1801.11885566021624072 19.009497869018204596614 292.62296013114956850
20.009497869018190385759 1813.64241285306411555 20.009497869018190385759 292.62768798360735900
21.009497869018204596614 1825.49624153391346226 21.009497869018204596614 292.46372658563473124
22.009497869018190385759 1836.71065207047990953 22.009497869018190385759 292.38826722749917053
23.009497869018190385759 1847.32994190307113058 23.009497869018190385759 292.80104033333435609
24.009497869018190385759 1857.38619170534821023 24.009497869018190385759 292.85198477809331052
25.009497869018190385759 1866.95148958941399542 25.009497869018190385759 292.84416984266471218
26.009497869018204596614 1876.11121386840045488 26.009497869018204596614 292.98968781546898299
27.009497869018190385759 1884.87504276552886040 27.009497869018190385759 292.90044810117126417
28.009497869018190385759 1893.24971209992577315 28.009497869018190385759 293.00458200448059642
29.009497869018190385759 1901.26052283840749624 29.009497869018190385759 293.34235378320835252
30.009497869018190385759 1908.91880036010161348 30.009497869018190385759 293.36087841484743421
31.009497869018190385759 1916.26368256552973435 31.009497869018190385759 293.25358017474792405
32.009497869018190385759 1923.33642502893417259 32.009497869018190385759 293.12014785045568033
33.009497869018190385759 1930.15668824562840200 33.009497869018190385759 293.00204044146749993
34.009497869018190385759 1936.72499657552361896 34.009497869018190385759 292.77118872785405301
35.009497869018190385759 1943.04652558142629459 35.009497869018190385759 292.71585522021371162
36.009497869018190385759 1949.13777510785303093 36.009497869018190385759 292.70775508131544029
37.009497869018190385759 1955.00812193906040193 37.009497869018190385759 292.59832942002719847
38.009497869018190385759 1960.66437037720834269 38.009497869018190385759 292.33916602694131370
39.009497869018190385759 1966.12970263069382781 39.009497869018190385759 291.93121143803222139
40.009497869018190385759 1971.42272659211153041 40.009497869018190385759 291.36346834136605821
41.009497869018190385759 1976.55850888962754652 41.009497869018190385759 291.03720358398703638
42.009497869018190385759 1981.53265897599908385 42.009497869018190385759 290.42253272257488561
43.009497869018190385759 1986.34867596731146477 43.009497869018190385759 290.01193768456005273
44.009497869018218807469 1991.00765543159877780 44.009497869018218807469 289.64642322501532590
46.009497869018190385759 1999.89426822795894623 46.009497869018190385759 288.65405967016823752
48.009497869018190385759 2008.20689759125275486 48.009497869018190385759 287.63988261786420253
50.009497869018190385759 2016.03951777945417234 50.009497869018190385759 286.74544831142486601
52.009497869018190385759 2023.47007503115992222 52.009497869018190385759 286.11451773956105171
54.009497869018190385759 2030.51107281563167817 54.009497869018190385759 285.51634743840259034
56.009497869018190385759 2037.17787794391279022 56.009497869018190385759 285.25500075772629316
58.009497869018218807469 2043.51708242983772834 58.009497869018218807469 285.01807886246115231
60.009497869018190385759 2049.60301817972685967 60.009497869018190385759 284.68330342224362539
62.009497869018190385759 2055.41590927598781491 62.009497869018190385759 284.30069305544060398
64.009497869018190385759 2060.97506559831526829 64.009497869018190385759 283.98916331971815907
66.009497869018190385759 2066.29342106554531711 66.009497869018190385759 283.64575619271005280
68.009497869018190385759 2071.37843462083219492 68.009497869018190385759 282.93831739628973310
70.009497869018190385759 2076.22998760912332727 70.009497869018190385759 282.38804976128864155
72.009497869018218807469 2080.87675954378482857 72.009497869018218807469 280.91754040667996151
74.009497869018190385759 2085.34111646507972182 74.009497869018190385759 279.62307021701320764
76.009497869018190385759 2089.63964610838911540 76.009497869018190385759 278.54301235885623100
78.009497869018190385759 2093.76542712894070064 78.009497869018190385759 277.12568995799614413
80.009497869018190385759 2097.71843169553085318 80.009497869018190385759 276.19184853067793028
82.009497869018218807469 2101.50253327607833853 82.009497869018218807469 275.33137881337444242
84.009497869018190385759 2105.13055960985093407 84.009497869018190385759 274.12361111684987236
86.009497869018190385759 2108.57282486453914316 86.009497869018190385759 272.79893932350285013
88.009497869018190385759 2111.86556640175786015 88.009497869018190385759 271.94744748353031127
91.009497869018218807469 2116.58559324028101400 91.009497869018218807469 271.20158286632090494
94.009497869018190385759 2121.10740558795623656 94.009497869018190385759 270.71856517966898537
97.009497869018190385759 2125.44641507069081854 97.009497869018190385759 270.70011141486691031
99.504748934509109403734 2128.91414675538226220 99.504748934509109403734 264.31440133189687458
nan nan nan nan

