Time Pressure difference Time.1 Pressure.1 difference.1
(hr) (psi) (hr) (psi)
0.000200000000006639311 0.05814610475162105 0.000200000000006639311 0.04643504897651250
0.000399999999999067768 0.11608711140374131 0.000399999999999067768 0.12074783934071365
0.000600000000005707079 0.17385866792907245 0.000600000000005707079 0.17629617896320768
0.000799999999998135536 0.23147725779735334 0.000799999999998135536 0.23263041183723673
0.001007140329434719206 0.29100263286571454 0.001007140329434719206 0.29154248546880523
0.001267914553963578328 0.36573613441968050 0.001267914553963578328 0.36592299855963045
0.001596209851982166583 0.45951418984287046 0.001596209851982166583 0.45901469019304308
0.002009509145210586212 0.57711671911723050 0.002009509145210586212 0.57539406621536260
0.002529822128138903281 0.72448743954676376 0.002529822128138903281 0.72069204519765351
0.003184857364445292660 0.90899898337403517 0.003184857364445292660 0.90180510469556729
0.004009497869020606231 1.13977035361681756 0.004009497869020606231 1.12713187191564290
0.005047658755842121536 1.42804086403319141 0.005047658755842121536 1.40682908066552148
0.006354625877804664924 1.78760526499799166 0.006354625877804664924 1.75307455970899451
0.008000000000009777068 2.23530848492145573 0.008000000000009777068 2.18031429972596014
0.010071403294347192059 2.79159406611401728 0.010071403294347192059 2.70545818948762395
0.012679145539692626699 3.48108834221131991 0.012679145539692626699 3.34796194557469740
0.015962098519750611558 4.33318555888611545 0.015962098519750611558 4.12971573780915513
0.020095091452091651263 5.38257923048424303 0.020095091452091651263 5.07462819086475836
0.025298221281346400247 6.66965348146452364 0.025298221281346400247 6.20774608419166096
0.031848573644282396344 8.24060590242920732 0.031848573644282396344 7.55371589551205513
0.040094978690191851456 10.14712614643896238 0.040094978690191851456 9.13435541286126274
0.050476587558421215363 12.44539484472937119 0.050476587558421215363 10.96529436737963081
0.063546258777947173257 15.19420804213839205 0.063546258777947173257 13.05122237939770713
0.079999999999998294697 18.45177942204006527 0.079999999999998294697 15.38013466365323012
0.100714032943542974863 22.27120604837487150 0.100714032943542974863 17.91732785512803972
0.126791455396897845276 26.69449797114302569 0.126791455396897845276 20.59890214718569013
0.159620985197506115583 31.74504853329533915 0.159620985197506115583 23.32894696323813122
0.200950914520774404082 37.42037175607661936 0.200950914520774404082 25.98027364247843352
0.252982212813464002465 43.68492655244411083 0.252982212813464002465 28.40373755223363617
0.318485736442795541734 50.46717414359756759 0.318485736442795541734 30.44584159942997914
0.400949786901819038576 57.66054597425802086 0.400949786901819038576 31.97387646388130378
0.504765875584169521062 65.13210839668900576 0.504765875584169521062 32.90442982697959451
0.635462587779443310865 72.73666394225573129 0.635462587779443310865 33.22375727163367998
0.799999999999997157829 80.33475509550918048 0.799999999999997157829 32.99413547339447916
1.007140329435330272645 87.80959263926344249 1.007140329435330272645 32.34179870240134846
1.267914553968893187630 95.07935389931060399 1.267914553968893187630 31.42894164277488400
1.596209851975103788391 102.10105350550178116 1.596209851975103788391 30.41862190338058980
2.009509145207687197399 108.86653995158324904 2.009509145207687197399 29.44769752264579310
2.529822128134711078928 115.39379447367954867 2.529822128134711078928 28.61000273964847551
3.184857364427983839050 121.71514026804354103 3.184857364427983839050 27.95298639720149936
4.009497869018190385759 127.86698745809412969 4.009497869018190385759 27.48502486454057347
5.009497869018190385759 133.68550713212314918 5.009497869018190385759 27.19245731960563006
6.009497869018190385759 138.36137197185433934 6.009497869018190385759 27.05198309826976555
7.009497869018204596614 142.26528530357319369 7.009497869018204596614 26.98769029747320403
8.009497869018190385759 145.61101652272017759 8.009497869018190385759 26.97150350226440807
9.009497869018204596614 148.53596181640889995 9.009497869018204596614 26.97647975122127662
10.009497869018190385759 151.12776208031826286 10.009497869018190385759 26.98324567570417187
11.009497869018190385759 153.45446358306264756 11.009497869018190385759 26.98524609027645127
12.009497869018190385759 155.55884279546012294 12.009497869018190385759 27.00603504837669888
13.009497869018190385759 157.47760205315523763 13.009497869018190385759 27.01533415424250961
14.009497869018204596614 159.24212059327771840 14.009497869018204596614 27.01987756356230719
15.009497869018190385759 160.86973246312405195 15.009497869018190385759 27.03694645699972199
16.009497869018190385759 162.37838454217438766 16.009497869018190385759 27.03705020102206902
17.009497869018190385759 163.78557860725538831 17.009497869018190385759 27.01713415963726206
18.009497869018190385759 165.10013307598103438 18.009497869018190385759 27.02424055985984808
19.009497869018204596614 166.33023733009912348 19.009497869018204596614 27.02322850815365385
20.009497869018190385759 167.48676635846240401 20.009497869018190385759 27.02366511721967868
21.009497869018204596614 168.58144710735345484 21.009497869018204596614 27.00852356331719051
22.009497869018190385759 169.61707868724749915 22.009497869018190385759 27.00155502100916038
23.009497869018190385759 170.59775189078493440 23.009497869018190385759 27.03967390941082272
24.009497869018190385759 171.52642931315884312 24.009497869018190385759 27.04437854151257881
25.009497869018190385759 172.40976816788784731 25.009497869018190385759 27.04365684562866434
26.009497869018204596614 173.25565299576257416 26.009497869018204596614 27.05709518084805865
27.009497869018190385759 174.06497756409896738 27.009497869018190385759 27.04885404628231171
28.009497869018190385759 174.83836391424117096 28.009497869018190385759 27.05847063365915872
29.009497869018190385759 175.57814854708249186 29.009497869018190385759 27.08966327813269714
30.009497869018190385759 176.28537734196191877 30.009497869018190385759 27.09137399609409513
31.009497869018190385759 176.96366461686949378 31.009497869018190385759 27.08146518764162636
32.009497869018190385759 177.61682025333163892 32.009497869018190385759 27.06914294133495957
33.009497869018190385759 178.24665986437202037 33.009497869018190385759 27.05823592467377736
34.009497869018190385759 178.85323187372910070 34.009497869018190385759 27.03691716484140883
35.009497869018190385759 179.43701423575177500 35.009497869018190385759 27.03180721030997091
36.009497869018190385759 179.99953068278327351 36.009497869018190385759 27.03105917637477518
37.009497869018190385759 180.54164714476809195 37.009497869018190385759 27.02095390422414312
38.009497869018190385759 181.06399198734112588 38.009497869018190385759 26.99702060934814440
39.009497869018190385759 181.56870604768940325 39.009497869018190385759 26.95934670272065503
40.009497869018190385759 182.05750773278074917 40.009497869018190385759 26.90691660144541331
41.009497869018190385759 182.53178841988645331 41.009497869018190385759 26.87678661065842789
42.009497869018190385759 182.99114264949861308 42.009497869018190385759 26.82002281079187966
43.009497869018190385759 183.43589355898652116 43.009497869018190385759 26.78210506321794426
44.009497869018218807469 183.86614232217928588 44.009497869018218807469 26.74835042975075439
46.009497869018190385759 184.68680577303049972 46.009497869018190385759 26.65670735740339836
48.009497869018190385759 185.45446283824233547 48.009497869018190385759 26.56304984597690222
50.009497869018190385759 186.17779187936912422 50.009497869018190385759 26.48045037176746419
52.009497869018190385759 186.86399109786438544 52.009497869018190385759 26.42218501552675036
54.009497869018190385759 187.51421516767047137 54.009497869018190385759 26.36694501410050506
56.009497869018190385759 188.12988318743256855 56.009497869018190385759 26.34281009635994764
58.009497869018218807469 188.71529784972113930 58.009497869018218807469 26.32093076566263434
60.009497869018190385759 189.27732357860273282 60.009497869018190385759 26.29001482791167987
62.009497869018190385759 189.81413410200414660 62.009497869018190385759 26.25468141672934053
64.009497869018190385759 190.32751265419798870 64.009497869018190385759 26.22591217992120605
66.009497869018190385759 190.81865366040656795 66.009497869018190385759 26.19419912069881562
68.009497869018190385759 191.28824594123778979 68.009497869018190385759 26.12886836113493416
70.009497869018190385759 191.73627853910113572 70.009497869018190385759 26.07805208877335801
72.009497869018218807469 192.16539995786931172 72.009497869018218807469 25.94225307185699236
74.009497869018190385759 192.57767566300208273 74.009497869018190385759 25.82271096990887216
76.009497869018190385759 192.97463750341324840 76.009497869018190385759 25.72296947905004671
78.009497869018190385759 193.35564630478344839 78.009497869018190385759 25.59208218609462904
80.009497869018190385759 193.72069949694875390 80.009497869018190385759 25.50584353185680442
82.009497869018218807469 194.07015478802833286 82.009497869018218807469 25.42638062920344311
84.009497869018190385759 194.40519679774348560 84.009497869018190385759 25.31484535379880185
86.009497869018190385759 194.72308409039280264 86.009497869018190385759 25.19251418554775412
88.009497869018190385759 195.02716312417288691 88.009497869018190385759 25.11388037446850063
91.009497869018218807469 195.46304950767765263 91.009497869018218807469 25.04500105625654527
94.009497869018190385759 195.88063112289833612 94.009497869018190385759 25.00039520128869341
97.009497869018190385759 196.28133120705587089 97.009497869018190385759 24.99869102775815932
99.504748934509109403734 196.60157028084003628 99.504748934509109403734 24.40898165334139946
nan nan nan nan

