Time Pressure difference Time.1 Pressure.1 difference.1
(hr) (psi) (hr) (psi)
0.000200000000006639311 0.28076262008639880 0.000200000000006639311 0.22421495077230322
0.000399999999999067768 0.56053490934949379 0.000399999999999067768 0.58303956710230309
0.000600000000005707079 0.83948899657180687 0.000600000000005707079 0.85125869270806009
0.000799999999998135536 1.11770447336436352 0.000799999999998135536 1.12327256001408604
0.001007140329434719206 1.40512699869445012 0.001007140329434719206 1.40773371554937388
0.001267914553963578328 1.76598304905502856 0.001267914553963578328 1.76688533590221586
0.001596209851982166583 2.21879708809843157 0.001596209851982166583 2.21638521836069380
0.002009509145210586212 2.78664930088034168 0.002009509145210586212 2.77833134829703665
0.002529822128138903281 3.49823935095437299 0.002529822128138903281 3.47991301824009813
0.003184857364445292660 4.38916651972034177 0.003184857364445292660 4.35443036267288175
0.004009497869020606231 5.50346256460691841 0.004009497869020606231 5.44243675296410512
0.005047658755842121536 6.89539731490312491 0.005047658755842121536 6.79297470378494594
0.006354625877804664924 8.63157970813315956 0.006354625877804664924 8.46484573116628880
0.008000000000009777068 10.79334668433502920 0.008000000000009777068 10.52780333296249360
0.010071403294347192059 13.47941134780768380 0.010071403294347192059 13.06349811495452684
0.012679145539692626699 16.80868370953466240 0.012679145539692626699 16.16587339434639503
0.015962098519750611558 20.92309598433581286 0.015962098519750611558 19.94062741970706298
0.020095091452091651263 25.99016828433820336 0.020095091452091651263 24.50320469303269277
0.025298221281346400247 32.20489823907156079 0.025298221281346400247 29.97454537795402274
0.031848573644282396344 39.79035421458674193 0.031848573644282396344 36.47365675261535500
0.040094978690191851456 48.99612339280526641 0.040094978690191851456 44.10588756495867102
0.050476587558421215363 60.09347796455039514 0.050476587558421215363 52.94670708820449789
0.063546258777947173257 73.36631883203966709 0.063546258777947173257 63.01875948909178504
0.079999999999998294697 89.09573492356490476 0.079999999999998294697 74.26407880449703214
0.100714032943542974863 107.53810920501008752 0.100714032943542974863 86.51509735761823094
0.126791455396897845276 128.89629020351918598 0.126791455396897845276 99.46327036783948472
0.159620985197506115583 153.28323434648319790 0.159620985197506115583 112.64548676534984395
0.200950914520774404082 180.68693790791283504 0.200950914520774404082 125.44760701653869717
0.252982212813464002465 210.93578821037300486 0.252982212813464002465 137.14947560935669912
0.318485736442795541734 243.68435515051399420 0.318485736442795541734 147.00992086581902640
0.400949786901819038576 278.41806484713163172 0.400949786901819038576 154.38814635416972010
0.504765875584169521062 314.49503768686969352 0.504765875584169521062 158.88138973598719872
0.635462587779443310865 351.21417732117760124 0.635462587779443310865 160.42328511160263815
0.799999999999997157829 387.90210317545859198 0.799999999999997157829 159.31453985724763811
1.007140329435330272645 423.99489017244349043 1.007140329435330272645 156.16468516302361991
1.267914553968893187630 459.09745168524261771 1.267914553968893187630 151.75688964654159463
1.596209851975103788391 493.00222978370857163 1.596209851975103788391 146.87848861918058674
2.009509145207687197399 525.66986433764486719 2.009509145207687197399 142.19031089506111698
2.529822128134711078928 557.18717903005267544 2.529822128134711078928 138.14544180001689710
3.184857364427983839050 587.71024872283874174 3.184857364427983839050 134.97299146077293130
4.009497869018190385759 617.41488229765457163 4.009497869018190385759 132.71340577449592502
5.009497869018190385759 645.51002015225174091 5.009497869018190385759 131.30072248609576491
6.009497869018190385759 668.08776752123958431 6.009497869018190385759 130.62243267450259054
7.009497869018204596614 686.93809189439627971 7.009497869018204596614 130.31199029351347463
8.009497869018190385759 703.09319406684892328 8.009497869018190385759 130.23383119664813989
9.009497869018204596614 717.21650134208869076 9.009497869018204596614 130.25785937018275717
10.009497869018190385759 729.73119404496537754 10.009497869018190385759 130.29052911982870455
11.009497869018190385759 740.96583844393114759 11.009497869018190385759 130.30018826447772540
12.009497869018190385759 751.12698378379309361 12.009497869018190385759 130.40056923359034613
13.009497869018190385759 760.39184991380659540 13.009497869018190385759 130.44547063048526070
14.009497869018204596614 768.91195372182664869 14.009497869018204596614 130.46740880691515940
15.009497869018190385759 776.77099389337047342 15.009497869018190385759 130.54982717808439929
16.009497869018190385759 784.05562821792784689 16.009497869018190385759 130.55032811350656630
17.009497869018190385759 790.85036527503314119 17.009497869018190385759 130.45416208510565070
18.009497869018190385759 797.19778542402275434 18.009497869018190385759 130.48847584618042106
19.009497869018204596614 803.13743167962149982 19.009497869018204596614 130.48358908222763830
20.009497869018190385759 808.72181470228974831 20.009497869018190385759 130.48569728028931536
21.009497869018204596614 814.00755888979244901 21.009497869018204596614 130.41258520573157398
22.009497869018190385759 819.00817994699502833 22.009497869018190385759 130.37893710144422244
23.009497869018190385759 823.74343055836152416 23.009497869018190385759 130.56299687686939137
24.009497869018190385759 828.22761582639543576 24.009497869018190385759 130.58571352901788032
25.009497869018190385759 832.49288058208708208 25.009497869018190385759 130.58222876889269060
26.009497869018204596614 836.57729589382506674 26.009497869018204596614 130.64711673038064532
27.009497869018190385759 840.48517738093505614 27.009497869018190385759 130.60732382347742941
28.009497869018190385759 844.21952861447869054 28.009497869018190385759 130.65375820252563699
29.009497869018190385759 847.79163155591254508 29.009497869018190385759 130.80437411441215545
30.009497869018190385759 851.20653630833032821 30.009497869018190385759 130.81263443828288473
31.009497869018190385759 854.48169486431277164 31.009497869018190385759 130.76478904889813748
32.009497869018190385759 857.63550350894411167 32.009497869018190385759 130.70529020244595131
33.009497869018190385759 860.67672905939639350 33.009497869018190385759 130.65262489342481445
34.009497869018190385759 863.60560533314912846 34.009497869018190385759 130.54968573880566396
35.009497869018190385759 866.42444016691570141 35.009497869018190385759 130.52501195835384351
36.009497869018190385759 869.14059101115333306 36.009497869018190385759 130.52140002306677502
37.009497869018190385759 871.75823907045162287 37.009497869018190385759 130.47260599468231135
38.009497869018190385759 874.28041845316147374 38.009497869018190385759 130.35704237085246859
39.009497869018190385759 876.71746634455746516 39.009497869018190385759 130.17513122170831252
40.009497869018190385759 879.07768019542709226 40.009497869018190385759 129.92196873269358548
41.009497869018190385759 881.36777837030888350 41.009497869018190385759 129.77648392003641220
42.009497869018190385759 883.58580307900763273 42.009497869018190385759 129.50239585782364315
43.009497869018190385759 885.73331461339216730 43.009497869018190385759 129.31930730525238005
44.009497869018218807469 887.81080149852289196 44.009497869018218807469 129.15632064651080668
46.009497869018190385759 891.77343358977577736 46.009497869018190385759 128.71381552574783314
48.009497869018190385759 895.48012056179868523 48.009497869018190385759 128.26158354200276790
50.009497869018190385759 898.97276650323942704 50.009497869018190385759 127.86274608082005955
52.009497869018190385759 902.28612844397366644 52.009497869018190385759 127.58140764640057796
54.009497869018190385759 905.42578180960890677 54.009497869018190385759 127.31467735379958128
56.009497869018190385759 908.39857881931732209 56.009497869018190385759 127.19814017956660734
58.009497869018218807469 911.22529533151066516 58.009497869018218807469 127.09249426848529652
60.009497869018190385759 913.93907670811040589 60.009497869018190385759 126.94321445477355326
62.009497869018190385759 916.53110466396287848 62.009497869018190385759 126.77260455506453241
64.009497869018190385759 919.00998967312727927 64.009497869018190385759 126.63369024019097253
66.009497869018190385759 921.38149910310585256 66.009497869018190385759 126.48056146851713777
68.009497869018190385759 923.64895897340534248 68.009497869018190385759 126.16510722948011392
70.009497869018190385759 925.81231637451685401 70.009497869018190385759 125.91973722864848639
72.009497869018218807469 927.88435979656890140 72.009497869018218807469 125.26402197553804285
74.009497869018190385759 929.87506248706722545 74.009497869018190385759 124.68680439755998179
76.009497869018190385759 931.79182108790962502 76.009497869018190385759 124.20519548455594361
78.009497869018190385759 933.63154930024018086 78.009497869018190385759 123.57319684142834149
80.009497869018190385759 935.39423471383827291 80.009497869018190385759 123.15678733953714641
82.009497869018218807469 937.08160454790811400 82.009497869018218807469 122.77309503815378378
84.009497869018190385759 938.69937882339002044 84.009497869018190385759 122.23453899405706125
86.009497869018190385759 940.23432032218238419 86.009497869018190385759 121.64385421021630407
88.009497869018190385759 941.70258765672053869 88.009497869018190385759 121.26416523671932168
91.009497869018218807469 943.80729619421492771 91.009497869018218807469 120.93157652878160491
94.009497869018190385759 945.82361885056616302 94.009497869018190385759 120.71619397193681777
97.009497869018190385759 947.75842782835559319 97.009497869018190385759 120.70796524831796148
99.504748934509109403734 949.30472507034176033 99.504748934509109403734 117.86051141184846358
nan nan nan nan

