Time Pressure difference Time.1 Pressure.1 difference.1
(hr) (psi) (hr) (psi)
0.000200000000006639311 0.45935422753780630 0.000200000000006639311 0.36683688691444882
0.000399999999999067768 0.91708818008955639 0.000399999999999067768 0.95390793079163771
0.000600000000005707079 1.37348347663967219 0.000600000000005707079 1.39273981380934075
0.000799999999998135536 1.82867033659909151 0.000799999999998135536 1.83778025351417029
0.001007140329434719206 2.29892079963914497 0.001007140329434719206 2.30318563520356179
0.001267914553963578328 2.88931546191547550 0.001267914553963578328 2.89079168862108071
0.001596209851982166583 3.63016209975867721 0.001596209851982166583 3.62621605252504020
0.002009509145210586212 4.55922208102612103 0.002009509145210586212 4.54561312310136412
0.002529822128138903281 5.72345077241943301 0.002529822128138903281 5.69346715706146256
0.003184857364445292660 7.18109196865487753 0.003184857364445292660 7.12426032709498180
0.004009497869020606231 9.00418579357285864 0.004009497869020606231 8.90434178813358024
0.005047658755842121536 11.28152282586221311 0.005047658755842121536 11.11394973725761837
0.006354625877804664924 14.12208159348413439 0.006354625877804664924 13.84928902170105580
0.008000000000009777068 17.65893703087949973 0.008000000000009777068 17.22448296783508326
0.010071403294347192059 22.05359312230073598 0.010071403294347192059 21.37311969695223013
0.012679145539692626699 27.50059790346942989 0.012679145539692626699 26.44889937004010960
0.015962098519750611558 34.23216591520030505 0.015962098519750611558 32.62475432869232606
0.020095091452091651263 42.52237592082551743 0.020095091452091651263 40.08956270783158971
0.025298221281346400247 52.69026250356974117 0.025298221281346400247 49.04119406511412649
0.031848573644282396344 65.10078662919073622 0.031848573644282396344 59.67435557454524542
0.040094978690191851456 80.16229655686778699 0.040094978690191851456 72.16140776160398218
0.050476587558421215363 98.31861927336203166 0.050476587558421215363 86.62582550229907952
0.063546258777947173257 120.03424353289329929 0.063546258777947173257 103.10465679724190124
0.079999999999998294697 145.76905743411651883 0.079999999999998294697 121.50306384286051298
0.100714032943542974863 175.94252778216147703 0.100714032943542974863 141.54689005551151126
0.126791455396897845276 210.88653397202989481 0.126791455396897845276 162.73132696276695697
0.159620985197506115583 250.78588341303316156 0.159620985197506115583 184.29868100958125865
0.200950914520774404082 295.62093687300529155 0.200950914520774404082 205.24416177557961305
0.252982212813464002465 345.11091976430850536 0.252982212813464002465 224.38952666264572144
0.318485736442795541734 398.69067573442083585 0.318485736442795541734 240.52214863549681922
0.400949786901819038576 455.51831319663835984 0.400949786901819038576 252.59362406466226503
0.504765875584169521062 514.54365633384304601 0.504765875584169521062 259.94499563313883073
0.635462587779443310865 574.61964514382020752 0.635462587779443310865 262.46768244590606400
0.799999999999997157829 634.64456525452249025 0.799999999999997157829 260.65367023981639250
1.007140329435330272645 693.69578185018121985 1.007140329435330272645 255.50020974897063297
1.267914553968893187630 751.12689580455378291 1.267914553968893187630 248.28863897792157900
1.596209851975103788391 806.59832269346406974 1.596209851975103788391 240.30711303670670986
2.009509145207687197399 860.04566561750755227 2.009509145207687197399 232.63681042890178219
2.529822128134711078928 911.61097634206851126 2.529822128134711078928 226.01902164322294198
3.184857364427983839050 961.54960811754392580 3.184857364427983839050 220.82859253789183640
4.009497869018190385759 1010.14920091894373400 4.009497869018190385759 217.13169642987054431
5.009497869018190385759 1056.11550634377272218 5.009497869018190385759 214.82041282488447109
6.009497869018190385759 1093.05483857764920685 6.009497869018190385759 213.71066647633116986
7.009497869018204596614 1123.89575389822812213 7.009497869018204596614 213.20275335003833561
8.009497869018190385759 1150.32703052948954792 8.009497869018190385759 213.07487766788884187
9.009497869018204596614 1173.43409834963017602 9.009497869018204596614 213.11419003464808952
10.009497869018190385759 1193.90932043451425670 10.009497869018190385759 213.16764083806293684
11.009497869018190385759 1212.29026230619501803 11.009497869018190385759 213.18344411318398102
12.009497869018190385759 1228.91485808413494851 12.009497869018190385759 213.34767688217593218
13.009497869018190385759 1244.07305621992622946 13.009497869018190385759 213.42113981851582594
14.009497869018204596614 1258.01275268689414588 14.009497869018204596614 213.45703275214222572
15.009497869018190385759 1270.87088645867993364 15.009497869018190385759 213.59187701029779305
16.009497869018190385759 1282.78923788317752042 16.009497869018190385759 213.59269658807434666
17.009497869018190385759 1293.90607099731755625 17.009497869018190385759 213.43535986113437275
18.009497869018190385759 1304.29105130025004655 18.009497869018190385759 213.49150042289278417
19.009497869018204596614 1314.00887490778313804 19.009497869018204596614 213.48350521441389560
20.009497869018190385759 1323.14545423185290929 20.009497869018190385759 213.48695442603545303
21.009497869018204596614 1331.79343214809227902 21.009497869018204596614 213.36733615020580146
22.009497869018190385759 1339.97492162925504999 22.009497869018190385759 213.31228466597238480
23.009497869018190385759 1347.72223993720081126 23.009497869018190385759 213.61342388434550799
24.009497869018190385759 1355.05879157395474977 24.009497869018190385759 213.65059047794937896
25.009497869018190385759 1362.03716852631396250 25.009497869018190385759 213.64488908046644156
26.009497869018204596614 1368.71965866652453769 26.009497869018204596614 213.75105192869966686
27.009497869018190385759 1375.11332275638187639 27.009497869018190385759 213.68594696563025082
28.009497869018190385759 1381.22307492250524774 28.009497869018190385759 213.76191800590734715
29.009497869018190385759 1387.06737352195159474 29.009497869018190385759 214.00833989724830531
30.009497869018190385759 1392.65448100149910715 30.009497869018190385759 214.02185456914332917
31.009497869018190385759 1398.01295047326925669 31.009497869018190385759 213.94357498236885817
32.009497869018190385759 1403.17288000131998160 32.009497869018190385759 213.84622923654617921
33.009497869018190385759 1408.14861292853902341 33.009497869018190385759 213.76006380492282233
34.009497869018190385759 1412.94053180245987278 34.009497869018190385759 213.59164560224712659
35.009497869018190385759 1417.55241246243895148 35.009497869018190385759 213.55127696144876381
36.009497869018190385759 1421.99629239398768732 36.009497869018190385759 213.54536749336071466
37.009497869018190385759 1426.27901244366785249 37.009497869018190385759 213.46553584337075904
38.009497869018190385759 1430.40553669999508202 38.009497869018190385759 213.27646281385034399
39.009497869018190385759 1434.39277777674647041 39.009497869018190385759 212.97883895149317368
40.009497869018190385759 1438.25431108896805199 40.009497869018190385759 212.56464115141878324
41.009497869018190385759 1442.00112851710287032 41.009497869018190385759 212.32661422420159170
42.009497869018190385759 1445.63002693103908314 42.009497869018190385759 211.87818020525583051
43.009497869018190385759 1449.14355911599363935 43.009497869018190385759 211.57862999942179272
44.009497869018218807469 1452.54252434521663417 44.009497869018218807469 211.31196839503095930
46.009497869018190385759 1459.02576560694092223 46.009497869018190385759 210.58798812348683782
48.009497869018190385759 1465.09025642211440754 48.009497869018190385759 209.84809378321753570
50.009497869018190385759 1470.80455584701599037 50.009497869018190385759 209.19555793696298451
52.009497869018190385759 1476.22552967312867622 52.009497869018190385759 208.73526162266131223
54.009497869018190385759 1481.36229982459690291 54.009497869018190385759 208.29886561139397827
56.009497869018190385759 1486.22607718071731142 56.009497869018190385759 208.10819976124358277
58.009497869018218807469 1490.85085301279718806 58.009497869018218807469 207.93535304873483938
60.009497869018190385759 1495.29085627096151256 60.009497869018190385759 207.69111714050228557
62.009497869018190385759 1499.53165940583289739 62.009497869018190385759 207.41198319216178447
64.009497869018190385759 1503.58734996816406237 64.009497869018190385759 207.18470622137752457
66.009497869018190385759 1507.46736391721174186 66.009497869018190385759 206.93417305352065227
68.009497869018190385759 1511.17714293577864737 68.009497869018190385759 206.41806005296598414
70.009497869018190385759 1514.71660045889893809 70.009497869018190385759 206.01661150130951228
72.009497869018218807469 1518.10665966716760522 72.009497869018218807469 204.94379926767024358
74.009497869018190385759 1521.36363773771631713 74.009497869018190385759 203.99941666228005488
76.009497869018190385759 1524.49963627696456570 76.009497869018190385759 203.21145888449538575
78.009497869018190385759 1527.50960580778951226 78.009497869018190385759 202.17744927014757650
80.009497869018190385759 1530.39352602589519847 80.009497869018190385759 201.49616390166875135
82.009497869018218807469 1533.15422282542363064 82.009497869018218807469 200.86840697070721262
84.009497869018190385759 1535.80105470217358743 84.009497869018190385759 199.98727829501052611
86.009497869018190385759 1538.31236431410320620 86.009497869018190385759 199.02086206582725936
88.009497869018190385759 1540.71458868096578954 88.009497869018190385759 198.39965495830114151
91.009497869018218807469 1544.15809111065345860 91.009497869018218807469 197.85550834442670975
94.009497869018190385759 1547.45698587089691500 94.009497869018190385759 197.50312209018068188
97.009497869018190385759 1550.62251653574139709 97.009497869018190385759 197.48965911928945616
99.504748934509109403734 1553.15240521863620415 99.504748934509109403734 192.83095506139707709
nan nan nan nan

