Time Pressure difference Time.1 Pressure.1 difference.1
(hr) (psi) (hr) (psi)
0.000200000000006639311 0.86139300896330040 0.000200000000006639311 0.68790208269490671
0.000399999999999067768 1.71974763608113923 0.000399999999999067768 1.78879299137600078
0.000600000000005707079 2.57559198060640160 0.000600000000005707079 2.61170196549780576
0.000799999999998135536 3.42917023336936300 0.000799999999998135536 3.44625338678877879
0.001007140329434719206 4.31099614688208455 0.001007140329434719206 4.31899367758787189
0.001267914553963578328 5.41811959133155252 0.001267914553963578328 5.42088785009052554
0.001596209851982166583 6.80737449810080975 0.001596209851982166583 6.79997476757408137
0.002009509145210586212 8.54957196749382753 0.002009509145210586212 8.52405209521901419
0.002529822128138903281 10.73276392585705707 0.002529822128138903281 10.67653786957095186
0.003184857364445292660 13.46617065369820843 0.003184857364445292660 13.35959847956147506
0.004009497869020606231 16.88488366715199618 0.004009497869020606231 16.69765358823602597
0.005047658755842121536 21.15540537146313582 0.005047658755842121536 20.84116795214493933
0.006354625877804664924 26.48209514004167531 0.006354625877804664924 25.97054740597467415
0.008000000000009777068 33.11449855519356333 0.008000000000009777068 32.29979898308315711
0.010071403294347192059 41.35547209371765831 0.010071403294347192059 40.07943060712380401
0.012679145539692626699 51.56983729818770001 0.012679145539692626699 49.59766482229944984
0.015962098519750611558 64.19304892235572879 0.015962098519750611558 61.17878885868704941
0.020095091452091651263 79.73906660017371451 0.020095091452091651263 75.17699191323936247
0.025298221281346400247 98.80615228969588770 0.025298221281346400247 91.96332413295361619
0.031848573644282396344 122.07869029741554812 0.031848573644282396344 111.90290548065716791
0.040094978690191851456 150.32242591224576245 0.040094978690191851456 135.31895090195899911
0.050476587558421215363 184.36963505691940668 0.050476587558421215363 162.44300369960967600
0.063546258777947173257 225.09133913853588638 0.063546258777947173257 193.34453724907746164
0.079999999999998294697 273.34993229507932710 0.079999999999998294697 227.84570923154856814
0.100714032943542974863 329.93200960235350294 0.100714032943542974863 265.43241408239680368
0.126791455396897845276 395.45991994393307323 0.126791455396897845276 305.15802180902232976
0.159620985197506115583 470.28021898610376184 0.159620985197506115583 345.60168572682772492
0.200950914520774404082 554.35607872930654594 0.200950914520774404082 384.87919667500193555
0.252982212813464002465 647.16098335549349940 0.252982212813464002465 420.78108345237546928
0.318485736442795541734 747.63513695586686936 0.318485736442795541734 451.03339626584119060
0.400949786901819038576 854.19980250436526603 0.400949786901819038576 473.67014132921298142
0.504765875584169521062 964.88566296237831921 0.504765875584169521062 487.45562472254061959
0.635462587779443310865 1077.54172154455977761 0.635462587779443310865 492.18623272405898206
0.799999999999997157829 1190.10201477204304865 0.799999999999997157829 488.78454979871531805
1.007140329435330272645 1300.83639381308853444 1.007140329435330272645 479.12064649128853944
1.267914553968893187630 1408.53271419407269605 1.267914553968893187630 465.59732119367936320
1.596209851975103788391 1512.55417836007654842 1.596209851975103788391 450.63015591150963246
2.009509145207687197399 1612.78002756845467047 2.009509145207687197399 436.24660472833841141
2.529822128134711078928 1709.47664098865288906 2.529822128134711078928 423.83675487164953211
3.184857364427983839050 1803.12286368515924551 3.184857364427983839050 414.10352705568504916
4.009497869018190385759 1894.25808562919451106 4.009497869018190385759 407.17101120755108923
5.009497869018190385759 1980.45529851445280656 5.009497869018190385759 402.83683200615769238
6.009497869018190385759 2049.72489621161366813 6.009497869018190385759 400.75580675579641365
7.009497869018204596614 2107.55858371150543462 7.009497869018204596614 399.80335483542449992
8.009497869018190385759 2157.12320191515482293 8.009497869018190385759 399.56355902640279965
9.009497869018204596614 2200.45417719451461380 9.009497869018204596614 399.63727860023521998
10.009497869018190385759 2238.84984681842934151 10.009497869018190385759 399.73751093864603945
11.009497869018190385759 2273.31826765194273321 11.009497869018190385759 399.76714565166685134
12.009497869018190385759 2304.49314255560238962 12.009497869018190385759 400.07511921666622356
13.009497869018190385759 2332.91819041602775542 13.009497869018190385759 400.21287882784974954
14.009497869018204596614 2359.05827221755725986 14.009497869018204596614 400.28018619163020730
15.009497869018190385759 2383.17017948942338990 15.009497869018190385759 400.53304965583873809
16.009497869018190385759 2405.51978243192661466 16.009497869018190385759 400.53458654942699013
17.009497869018190385759 2426.36635736748303316 17.009497869018190385759 400.23954462205489335
18.009497869018190385759 2445.84054285417641950 18.009497869018190385759 400.34482086535234657
19.009497869018204596614 2464.06365873304002889 19.009497869018204596614 400.32982804221916240
20.009497869018190385759 2481.19681019607833150 20.009497869018190385759 400.33629609366863633
21.009497869018204596614 2497.41372357607906451 21.009497869018204596614 400.11198478799894929
22.009497869018190385759 2512.75586569536653769 22.009497869018190385759 400.00875081123569998
23.009497869018190385759 2527.28383872491349393 23.009497869018190385759 400.57345491512887747
24.009497869018190385759 2541.04153139636719061 24.009497869018190385759 400.64315067926492020
25.009497869018190385759 2554.12756557285274539 25.009497869018190385759 400.63245927024178172
26.009497869018204596614 2566.65874509436844164 26.009497869018204596614 400.83153860770624988
27.009497869018190385759 2578.64831048529458712 27.009497869018190385759 400.70945208563932738
28.009497869018190385759 2590.10547684382936495 28.009497869018190385759 400.85191495863637101
29.009497869018190385759 2601.06485776177896696 29.009497869018190385759 401.31401170605147399
30.009497869018190385759 2611.54194719449287732 30.009497869018190385759 401.33935477070821207
31.009497869018190385759 2621.59028868133873402 31.009497869018190385759 401.19256285120525263
32.009497869018190385759 2631.26632289578446944 32.009497869018190385759 401.01001757377645163
33.009497869018190385759 2640.59694684791156760 33.009497869018190385759 400.84843791266717972
34.009497869018190385759 2649.58287790081521962 34.009497869018190385759 400.53261571343625747
35.009497869018190385759 2658.23119660677957654 35.009497869018190385759 400.45691538702055823
36.009497869018190385759 2666.56447597208898515 36.009497869018190385759 400.44583379858056560
37.009497869018190385759 2674.59554413034993559 37.009497869018190385759 400.29613140972060137
38.009497869018190385759 2682.33370986961108429 38.009497869018190385759 399.94157674134322633
39.009497869018190385759 2689.81068816362721918 39.009497869018190385759 399.38346472459022607
40.009497869018190385759 2697.05193598419464251 40.009497869018190385759 398.60675022426994474
41.009497869018190385759 2704.07806559174605354 41.009497869018190385759 398.16039593218272330
42.009497869018190385759 2710.88307039328674364 42.009497869018190385759 397.31948078273109104
43.009497869018190385759 2717.47173743812891189 43.009497869018190385759 396.75775643652872304
44.009497869018218807469 2723.84556554428490927 44.009497869018218807469 396.25770565216481600
46.009497869018190385759 2736.00310838046607387 46.009497869018190385759 394.90007899467605057
48.009497869018190385759 2747.37539947510458660 48.009497869018190385759 393.51260986111498141
50.009497869018190385759 2758.09100255579687655 50.009497869018190385759 392.28895765032660847
52.009497869018190385759 2768.25655383550520128 52.009497869018190385759 391.42579801573197074
54.009497869018190385759 2777.88915898391860537 54.009497869018190385759 390.60745685174606479
56.009497869018190385759 2787.00984093382248830 56.009497869018190385759 390.24991528464664725
58.009497869018218807469 2795.68234100229756223 58.009497869018218807469 389.92578862845931553
60.009497869018190385759 2804.00835072872905585 60.009497869018190385759 389.46779109349159853
62.009497869018190385759 2811.96081519683275474 62.009497869018190385759 388.94435184497609725
64.009497869018190385759 2819.56615174861872219 64.009497869018190385759 388.51815615111837587
66.009497869018190385759 2826.84205494059415287 66.009497869018190385759 388.04834983092388256
68.009497869018190385759 2833.79872915805162847 68.009497869018190385759 387.08052129281321641
70.009497869018190385759 2840.43601207211213477 70.009497869018190385759 386.32771451511388250
72.009497869018218807469 2846.79313937586402972 72.009497869018218807469 384.31594907879571110
74.009497869018190385759 2852.90070946475952951 74.009497869018190385759 382.54501822564998292
76.009497869018190385759 2858.78141558627930863 76.009497869018190385759 381.06741928249857665
78.009497869018190385759 2864.42578882943507779 78.009497869018190385759 379.12841752828757080
80.009497869018190385759 2869.83379111908379855 80.009497869018190385759 377.85085346479297641
82.009497869018218807469 2875.01072164550487287 82.009497869018218807469 376.67366732119961625
84.009497869018190385759 2879.97412970371442498 84.009497869018190385759 375.02135188413365086
86.009497869018190385759 2884.68340288196168331 86.009497869018190385759 373.20910300590031738
88.009497869018190385759 2889.18811656810385102 88.009497869018190385759 372.04419926176905165
91.009497869018218807469 2895.64546199231017454 91.009497869018218807469 371.02380136197194815
94.009497869018190385759 2901.83163534922232429 94.009497869018190385759 370.36299748194818449
97.009497869018190385759 2907.76772088167081165 97.009497869018190385759 370.33775136836015918
99.504748934509109403734 2912.51183401758726177 99.504748934509109403734 361.60162820735757805
nan nan nan nan

