Time Pressure difference Time.1 Pressure.1 difference.1
(hr) (psi) (hr) (psi)
0.000200000000006639311 0.35386058034557955 0.000200000000006639311 0.28259044091420471
0.000399999999999067768 0.70647299225705429 0.000399999999999067768 0.73483685084491446
0.000600000000005707079 1.05805417911121236 0.000600000000005707079 1.07288817483323529
0.000799999999998135536 1.40870445459532179 0.000799999999998135536 1.41572222060946928
0.001007140329434719206 1.77095888001134849 0.001007140329434719206 1.77424426871015761
0.001267914553963578328 2.22576561803977002 0.001267914553963578328 2.22690281980575122
0.001596209851982166583 2.79647206961518346 0.001596209851982166583 2.79343225746051926
0.002009509145210586212 3.51216746205628860 0.002009509145210586212 3.50168388868206337
0.002529822128138903281 4.40902356067030521 0.002529822128138903281 4.38592587506000520
0.003184857364445292660 5.53190809881912848 0.003184857364445292660 5.48812820857588068
0.004009497869020606231 6.93631672343948935 0.004009497869020606231 6.85940253480091311
0.005047658755842121536 8.69064868683056524 0.005047658755842121536 8.56155983376445917
0.006354625877804664924 10.87885489841634801 0.006354625877804664924 10.66871089194330935
0.008000000000009777068 13.60344877966485910 0.008000000000009777068 13.26876988118941370
0.010071403294347192059 16.98884388806530765 0.010071403294347192059 16.46464555316753930
0.012679145539692626699 21.18490905402888913 0.012679145539692626699 20.37473984021172768
0.015962098519750611558 26.37052925836407269 0.015962098519750611558 25.13227006152428800
0.020095091452091651263 32.75683931694696582 0.020095091452091651263 30.88273727583410633
0.025298221281346400247 40.58960547291267318 0.025298221281346400247 37.77856902665210725
0.031848573644282396344 50.14997306335489213 0.031848573644282396344 45.96975673554479869
0.040094978690191851456 61.75251054832853725 0.040094978690191851456 55.58907722684140396
0.050476587558421215363 75.73911719792445751 0.050476587558421215363 66.73164857862461474
0.063546258777947173257 92.46760894215650239 0.063546258777947173257 79.42601048033462519
0.079999999999998294697 112.29225762555812196 0.079999999999998294697 93.59910523880394351
0.100714032943542974863 135.53619680868135333 0.100714032943542974863 109.03973808977920612
0.126791455396897845276 162.45508765295613784 0.126791455396897845276 125.35903306715863437
0.159620985197506115583 193.19129535976878742 0.159620985197506115583 141.97330580484918983
0.200950914520774404082 227.72969097269486838 0.200950914520774404082 158.10852245279733097
0.252982212813464002465 265.85398159058843248 0.252982212813464002465 172.85703138930756495
0.318485736442795541734 307.12880264532236652 0.318485736442795541734 185.28469316224527574
0.400949786901819038576 350.90560835762738634 0.400949786901819038576 194.58387676590621140
0.504765875584169521062 396.37540252842160271 0.504765875584169521062 200.24695866133299660
0.635462587779443310865 442.65455484858478030 0.635462587779443310865 202.19029425308497139
0.799999999999997157829 488.89436672409874518 0.799999999999997157829 200.79288159522928936
1.007140329435330272645 534.38409234751748045 1.007140329435330272645 196.82294638889962357
1.267914553968893187630 578.62578230151882508 1.267914553968893187630 191.26755914031573980
1.596209851975103788391 621.35783990491086115 1.596209851975103788391 185.11904186914475190
2.009509145207687197399 662.53065741963519031 2.009509145207687197399 179.21027349495869885
2.529822128134711078928 702.25366351124978337 2.529822128134711078928 174.11230238700358086
3.184857364427983839050 740.72356791695062839 3.184857364427983839050 170.11388864582625047
4.009497869018190385759 778.16195224497289473 4.009497869018190385759 167.26600846134692802
5.009497869018190385759 813.57180054692082649 5.009497869018190385759 165.48552597359997662
6.009497869018190385759 842.02777800014212062 6.009497869018190385759 164.63063999804171544
7.009497869018204596614 865.78587913317403491 7.009497869018204596614 164.23937238176552000
8.009497869018190385759 886.14704340969706209 8.009497869018190385759 164.14086417092340753
9.009497869018204596614 903.94742476843134682 9.009497869018204596614 164.17114820028947975
10.009497869018190385759 919.72038066022253133 10.009497869018190385759 164.21232368357109976
11.009497869018190385759 933.88002123406704413 11.009497869018190385759 164.22449763511096421
12.009497869018190385759 946.68667186951438453 12.009497869018190385759 164.35101329440678342
13.009497869018190385759 958.36369249491610844 13.009497869018190385759 164.40760499581870135
14.009497869018204596614 969.10204818194722520 14.009497869018204596614 164.43525488682203672
15.009497869018190385759 979.00722898986919063 15.009497869018190385759 164.53913129545546212
16.009497869018190385759 988.18845449951845694 16.009497869018190385759 164.53976265193429640
17.009497869018190385759 996.75223552415411632 17.009497869018190385759 164.41855931436390392
18.009497869018190385759 1004.75223843382752875 18.009497869018190385759 164.46180683571850523
19.009497869018204596614 1012.23830146603177127 19.009497869018204596614 164.45564777819225810
20.009497869018190385759 1019.27660669578540364 20.009497869018190385759 164.45830485622261108
21.009497869018204596614 1025.93852096760838322 21.009497869018204596614 164.36615768533033588
22.009497869018190385759 1032.24107886810611490 22.009497869018190385759 164.32374912785573429
23.009497869018190385759 1038.20917579249112350 23.009497869018190385759 164.55572979155726898
24.009497869018190385759 1043.86084124865215017 24.009497869018190385759 164.58436083834797614
25.009497869018190385759 1049.23658913600320375 25.009497869018190385759 164.57996880339729273
26.009497869018204596614 1054.38440251706924755 26.009497869018204596614 164.66175067201820070
27.009497869018190385759 1059.30972060437375148 27.009497869018190385759 164.61159748166090822
28.009497869018190385759 1064.01632896381056526 28.009497869018190385759 164.67012128484000755
29.009497869018190385759 1068.51844687224479458 29.009497869018190385759 164.85995080692185866
30.009497869018190385759 1072.82243925251100336 30.009497869018190385759 164.87036174765833607
31.009497869018190385759 1076.95030181123433977 31.009497869018190385759 164.81005957050476241
32.009497869018190385759 1080.92522039884670448 32.009497869018190385759 164.73506990012415940
33.009497869018190385759 1084.75824431746400478 33.009497869018190385759 164.66869291301469502
34.009497869018190385759 1088.44966826012273486 34.009497869018190385759 164.53895303174914488
35.009497869018190385759 1092.00240092043213735 35.009497869018190385759 164.50785530845780613
36.009497869018190385759 1095.42571529808105879 36.009497869018190385759 164.50330298765220505
37.009497869018190385759 1098.72488119530294171 37.009497869018190385759 164.44180518856410345
38.009497869018190385759 1101.90372266581903204 38.009497869018190385759 164.29615399403300557
39.009497869018190385759 1104.97526823308135135 39.009497869018190385759 164.06688136227140262
40.009497869018190385759 1107.94997563092283599 40.009497869018190385759 163.74780674593924346
41.009497869018190385759 1110.83631238388034035 41.009497869018190385759 163.56444423057845938
42.009497869018190385759 1113.63181098123436641 42.009497869018190385759 163.21899596281915024
43.009497869018190385759 1116.33843794468953092 43.009497869018190385759 162.98823938472636996
44.009497869018218807469 1118.95680898926252667 44.009497869018218807469 162.78281832962602493
46.009497869018190385759 1123.95113227587125948 46.009497869018190385759 162.22510477505497306
48.009497869018190385759 1128.62287384416049463 48.009497869018190385759 161.65513191980230090
50.009497869018190385759 1133.02484772301772864 50.009497869018190385759 161.15245511961342118
52.009497869018190385759 1137.20086010986028668 52.009497869018190385759 160.79786880877708199
54.009497869018190385759 1141.15793802039456750 54.009497869018190385759 160.46169394295452548
56.009497869018190385759 1144.90471768351835635 56.009497869018190385759 160.31481572927623347
58.009497869018218807469 1148.46738405687437989 58.009497869018218807469 160.18166437388973122
60.009497869018190385759 1151.88771206406818237 60.009497869018190385759 159.99351880986250762
62.009497869018190385759 1155.15458753505367895 62.009497869018190385759 159.77848976466714248
64.009497869018190385759 1158.27886272411910795 64.009497869018190385759 159.60340840923475980
66.009497869018190385759 1161.26780656190271657 66.009497869018190385759 159.41041179168135500
68.009497869018190385759 1164.12561101381857043 68.009497869018190385759 159.01282745490686921
70.009497869018190385759 1166.85220939510122662 70.009497869018190385759 158.70357414024928744
72.009497869018218807469 1169.46371974360476997 72.009497869018218807469 157.87714012301540834
74.009497869018190385759 1171.97271189198409047 74.009497869018190385759 157.14964104544540646
76.009497869018190385759 1174.38850823505754306 76.009497869018190385759 156.54264282964743416
78.009497869018190385759 1176.70721894053940559 78.009497869018190385759 155.74610016109016897
80.009497869018190385759 1178.92882836714534278 80.009497869018190385759 155.22127635101426790
82.009497869018218807469 1181.05551342428657335 82.009497869018218807469 154.73768782915240649
84.009497869018190385759 1183.09448336912464583 84.009497869018190385759 154.05891601026127091
86.009497869018190385759 1185.02905460724764453 86.009497869018190385759 153.31444347204777046
88.009497869018190385759 1186.87959272710918412 88.009497869018190385759 152.83590056462259099
91.009497869018218807469 1189.53227271815262611 91.009497869018218807469 152.41672071378982878
94.009497869018190385759 1192.07355511935270442 94.009497869018190385759 152.14526222498548691
97.009497869018190385759 1194.51210134579741862 97.009497869018190385759 152.13489111178537883
99.504748934509109403734 1196.46098485196921501 99.504748934509109403734 148.54608834747764945
nan nan nan nan

