Time Pressure difference Time.1 Pressure.1 difference.1
(hr) (psi) (hr) (psi)
0.000200000000006639311 0.06645269114470978 0.000200000000006639311 0.05306862740172858
0.000399999999999067768 0.13267098446141865 0.000399999999999067768 0.13799753067510132
0.000600000000005707079 0.19869562049036849 0.000600000000005707079 0.20148134738652310
0.000799999999998135536 0.26454543748268955 0.000799999999998135536 0.26586332781398486
0.001007140329434719206 0.33257443756081662 0.001007140329434719206 0.33319141196434887
0.001267914553963578328 0.41798415362249197 0.001267914553963578328 0.41819771263957767
0.001596209851982166583 0.52515907410613771 0.001596209851982166583 0.52458821736347772
0.002009509145210586212 0.65956196470540629 0.002009509145210586212 0.65759321853184294
0.002529822128138903281 0.82798564519630136 0.002529822128138903281 0.82364805165446109
0.003184857364445292660 1.03885598099889731 0.003184857364445292660 1.03063440536636253
0.004009497869020606231 1.30259468984779136 0.004009497869020606231 1.28815071076073484
0.005047658755842121536 1.63204670175221889 0.005047658755842121536 1.60780466361773877
0.006354625877804664924 2.04297744571199047 0.006354625877804664924 2.00351378252456547
0.008000000000009777068 2.55463826848166375 0.008000000000009777068 2.49178777111538308
0.010071403294347192059 3.19039321841601975 0.010071403294347192059 3.09195221655728458
0.012679145539692626699 3.97838667681293678 0.012679145539692626699 3.82624222351393950
0.015962098519750611558 4.95221206729841690 0.015962098519750611558 4.71967512892474872
0.020095091452091651263 6.15151912055342098 0.020095091452091651263 5.79957507527401006
0.025298221281346400247 7.62246112167374168 0.025298221281346400247 7.09456695336189913
0.031848573644282396344 9.41783531706195198 0.031848573644282396344 8.63281816629949184
0.040094978690191851456 11.59671559593024170 0.040094978690191851456 10.43926332898430154
0.050476587558421215363 14.22330839397642421 0.050476587558421215363 12.53176499129100563
0.063546258777947173257 17.36480919101530773 0.063546258777947173257 14.91568271931166656
0.079999999999998294697 21.08774791090293377 0.079999999999998294697 17.57729675846083595
0.100714032943542974863 25.45280691242842508 0.100714032943542974863 20.47694612014632654
0.126791455396897845276 30.50799768130631406 0.126791455396897845276 23.54160245392650452
0.159620985197506115583 36.28005546662324576 0.159620985197506115583 26.66165367227215199
0.200950914520774404082 42.76613914980185172 0.200950914520774404082 29.69174130568963577
0.252982212813464002465 49.92563034565041136 0.252982212813464002465 32.46141434540987092
0.318485736442795541734 57.67677044982579559 0.318485736442795541734 34.79524754220568639
0.400949786901819038576 65.89776682772345850 0.400949786901819038576 36.54157310157862781
0.504765875584169521062 74.43669531050170463 0.504765875584169521062 37.60506265940525594
0.635462587779443310865 83.12761593400654192 0.635462587779443310865 37.97000831043849445
0.799999999999997157829 91.81114868058192258 0.799999999999997157829 37.70758339816512006
1.007140329435330272645 100.35382015915821796 1.007140329435330272645 36.96205565988725539
1.267914553968893187630 108.66211874206926780 1.267914553968893187630 35.91879044888558070
1.596209851975103788391 116.68691829200204779 1.596209851975103788391 34.76413931814925462
2.009509145207687197399 124.41890280180943762 2.009509145207687197399 33.65451145445234005
2.529822128134711078928 131.87862225563378615 2.529822128134711078928 32.69714598816968021
3.184857364427983839050 139.10301744919260614 3.184857364427983839050 31.94627016823028498
4.009497869018190385759 146.13369995210757679 4.009497869018190385759 31.41145698804637121
5.009497869018190385759 152.78343672242641560 5.009497869018190385759 31.07709407954929048
6.009497869018190385759 158.12728225354783262 6.009497869018190385759 30.91655211230830602
7.009497869018204596614 162.58889748979791534 7.009497869018204596614 30.84307462568366631
8.009497869018190385759 166.41259031168021920 8.009497869018190385759 30.82457543115932808
9.009497869018204596614 169.75538493303875498 9.009497869018204596614 30.83026257282431715
10.009497869018190385759 172.71744237750655770 10.009497869018190385759 30.83799505794762652
11.009497869018190385759 175.37652980921447465 11.009497869018190385759 30.84028124603022647
12.009497869018190385759 177.78153462338300983 12.009497869018190385759 30.86404005528765282
13.009497869018190385759 179.97440234646310842 13.009497869018190385759 30.87466760484858241
14.009497869018204596614 181.99099496374594764 14.009497869018204596614 30.87986007264263577
15.009497869018190385759 183.85112281499891651 15.009497869018190385759 30.89936737942825218
16.009497869018190385759 185.57529661962786349 16.009497869018190385759 30.89948594402522630
17.009497869018190385759 187.18351840829186017 17.009497869018190385759 30.87672475387115512
18.009497869018190385759 188.68586637254975358 18.009497869018190385759 30.88484635412553914
19.009497869018204596614 190.09169980582757375 19.009497869018204596614 30.88368972360418141
20.009497869018190385759 191.41344726681415978 20.009497869018190385759 30.88418870539391747
21.009497869018204596614 192.66451097983252794 21.009497869018204596614 30.86688407236250598
22.009497869018190385759 193.84808992828283181 22.009497869018190385759 30.85892002401047307
23.009497869018190385759 194.96885930375421481 23.009497869018190385759 30.90248446789808412
24.009497869018190385759 196.03020492932435559 24.009497869018190385759 30.90786119030009260
25.009497869018190385759 197.03973504901469482 25.009497869018190385759 30.90703639500418376
26.009497869018204596614 198.00646056658581529 26.009497869018204596614 30.92239449239778182
27.009497869018190385759 198.93140293039883204 27.009497869018190385759 30.91297605289407002
28.009497869018190385759 199.81527304484703222 28.009497869018190385759 30.92396643846760540
29.009497869018190385759 200.66074119666569686 29.009497869018190385759 30.95961517500879623
30.009497869018190385759 201.46900267652787875 30.009497869018190385759 30.96157028125039190
31.009497869018190385759 202.24418813356516011 31.009497869018190385759 30.95024592873328473
32.009497869018190385759 202.99065171809328945 32.009497869018190385759 30.93616336152566859
33.009497869018190385759 203.71046841642518643 33.009497869018190385759 30.92369819962717514
34.009497869018190385759 204.40369356997612726 34.009497869018190385759 30.89933390267589886
35.009497869018190385759 205.07087341228773880 35.009497869018190385759 30.89349395463996828
36.009497869018190385759 205.71374935175228416 36.009497869018190385759 30.89263905871402827
37.009497869018190385759 206.33331102259211320 37.009497869018190385759 30.88109017625616559
38.009497869018190385759 206.93027655696130296 38.009497869018190385759 30.85373783925501812
39.009497869018190385759 207.50709262593076687 39.009497869018190385759 30.81068194596646137
40.009497869018190385759 208.06572312317800311 40.009497869018190385759 30.75076183022333609
41.009497869018190385759 208.60775819415590604 41.009497869018190385759 30.71632755503820533
42.009497869018190385759 209.13273445656983540 42.009497869018190385759 30.65145464090500127
43.009497869018190385759 209.64102121027030989 43.009497869018190385759 30.60812007224907916
44.009497869018218807469 210.13273408249062868 44.009497869018218807469 30.56954334828657949
46.009497869018190385759 211.07063516917773427 46.009497869018190385759 30.46480840846102822
48.009497869018190385759 211.94795752941982414 48.009497869018190385759 30.35777125254503161
50.009497869018190385759 212.77461929070756241 50.009497869018190385759 30.26337185344853253
52.009497869018190385759 213.55884696898783659 52.009497869018190385759 30.19678287488771318
54.009497869018190385759 214.30196019162340804 54.009497869018190385759 30.13365144468628998
56.009497869018190385759 215.00558078563724962 56.009497869018190385759 30.10606868155422688
58.009497869018218807469 215.67462611396703664 58.009497869018218807469 30.08106373218586782
60.009497869018190385759 216.31694123268886187 60.009497869018190385759 30.04573123189906170
62.009497869018190385759 216.93043897371902062 62.009497869018190385759 30.00535019054781927
64.009497869018190385759 217.51715731908339535 64.009497869018190385759 29.97247106276709516
66.009497869018190385759 218.07846132617891044 66.009497869018190385759 29.93622756651293315
68.009497869018190385759 218.61513821855749029 68.009497869018190385759 29.86156384129706609
70.009497869018190385759 219.12717547325843270 70.009497869018190385759 29.80348810145526528
72.009497869018218807469 219.61759995185062166 72.009497869018218807469 29.64828922497941832
74.009497869018190385759 220.08877218628808237 74.009497869018190385759 29.51166967989584933
76.009497869018190385759 220.54244286104369621 76.009497869018190385759 29.39767940462862938
78.009497869018190385759 220.97788149118110823 78.009497869018190385759 29.24809392696528931
80.009497869018190385759 221.39508513936999634 80.009497869018190385759 29.14953546497920556
82.009497869018218807469 221.79446261488948267 82.009497869018218807469 29.05872071908965282
84.009497869018190385759 222.17736776884970595 84.009497869018190385759 28.93125183291291691
86.009497869018190385759 222.54066753187751715 86.009497869018190385759 28.79144478348314706
88.009497869018190385759 222.88818642762612399 88.009497869018190385759 28.70157757082114003
91.009497869018218807469 223.38634229448874180 91.009497869018218807469 28.62285835000747980
94.009497869018190385759 223.86357842616953917 94.009497869018190385759 28.57188023004421851
97.009497869018190385759 224.32152137949245230 97.009497869018190385759 28.56993260315217853
99.504748934509109403734 224.68750889238862101 99.504748934509109403734 27.89597903239016929
nan nan nan nan

