Time Pressure difference Time.1 Pressure.1 difference.1
(hr) (psi) (hr) (psi)
0.000200000000006639311 0.22843112580993985 0.000200000000006639311 0.18242340669344198
0.000399999999999067768 0.45605650908612655 0.000399999999999067768 0.47436651169566074
0.000600000000005707079 0.68301619543564174 0.000600000000005707079 0.69259213164117306
0.000799999999998135536 0.90937494134674535 0.000799999999998135536 0.91390518936057297
0.001007140329434719206 1.14322462911530720 0.001007140329434719206 1.14534547862744929
0.001267914553963578328 1.43682052807731608 0.001267914553963578328 1.43755463719854837
0.001596209851982166583 1.80523431723984840 0.001596209851982166583 1.80327199718695508
0.002009509145210586212 2.26724425367483429 0.002009509145210586212 2.26047668870321017
0.002529822128138903281 2.84620065536228584 0.002529822128138903281 2.83129017756220991
0.003184857364445292660 3.57106743468371013 0.003184857364445292660 3.54280576844687145
0.004009497869020606231 4.47766924635178309 0.004009497869020606231 4.42801806824002586
0.005047658755842121536 5.61016053727325215 0.005047658755842121536 5.52682853118597706
0.006354625877804664924 7.02273496963496680 0.006354625877804664924 6.88707862742819277
0.008000000000009777068 8.78156904790571957 0.008000000000009777068 8.56552046320912908
0.010071403294347192059 10.96697668830506878 0.010071403294347192059 10.62858574441566617
0.012679145539692626699 13.67570420154447142 0.012679145539692626699 13.15270764332916897
0.015962098519750611558 17.02322898133830975 0.015962098519750611558 16.22388325567882461
0.020095091452091651263 21.14584697690238357 0.020095091452091651263 19.93603932125440892
0.025298221281346400247 26.20221010575348686 0.025298221281346400247 24.38757390218152565
0.031848573644282396344 32.37380890240046227 0.031848573644282396344 29.67531244665450529
0.040094978690191851456 39.86370986101020009 0.040094978690191851456 35.88496769338353687
0.050476587558421215363 48.89262260429396179 0.050476587558421215363 43.07794215756283052
0.063546258777947173257 59.69153159411511211 0.063546258777947173257 51.27265934763384791
0.079999999999998294697 72.48913344372883216 0.079999999999998294697 60.42195760720911579
0.100714032943542974863 87.49402376147271809 0.100714032943542974863 70.38950228800300124
0.126791455396897845276 104.87124202949044616 0.126791455396897845276 80.92425843537236574
0.159620985197506115583 124.71269066651740332 0.159620985197506115583 91.64943449843551093
0.200950914520774404082 147.00860332744386483 0.200950914520774404082 102.06536073830812938
0.252982212813464002465 171.61935431317328948 0.252982212813464002465 111.58611181234643084
0.318485736442795541734 198.26389842127616703 0.318485736442795541734 119.60866342633205761
0.400949786901819038576 226.52357347029936818 0.400949786901819038576 125.61165753667654599
0.504765875584169521062 255.87614012984963097 0.504765875584169521062 129.26740289170555798
0.635462587779443310865 285.75117977314749851 0.635462587779443310865 130.52190356713231267
0.799999999999997157829 315.60082358950035086 0.799999999999997157829 129.61981793119261397
1.007140329435330272645 344.96625679710638224 1.007140329435330272645 127.05706633086242618
1.267914553968893187630 373.52603317586311960 1.267914553968893187630 123.47084216804420009
1.596209851975103788391 401.11128162875701264 1.596209851975103788391 119.50172890613805521
2.009509145207687197399 427.68997838121993027 2.009509145207687197399 115.68738312467991136
2.529822128134711078928 453.33276400374109016 2.529822128134711078928 112.39643933433329437
3.184857364427983839050 478.16662248159957471 3.184857364427983839050 109.81530370329160462
4.009497869018190385759 502.33459358536981654 4.009497869018190385759 107.97688339640940569
5.009497869018190385759 525.19306373334086402 5.009497869018190385759 106.82751089845068293
6.009497869018190385759 543.56253274657069596 6.009497869018190385759 106.27564788605980084
7.009497869018204596614 558.89933512118034287 7.009497869018204596614 106.02306902578760628
8.009497869018190385759 572.04327919640070377 8.009497869018190385759 105.95947804461019359
9.009497869018204596614 583.53413570732061544 9.009497869018204596614 105.97902759408358975
10.009497869018190385759 593.71620817267887560 10.009497869018190385759 106.00560801169496017
11.009497869018190385759 602.85682121917477616 11.009497869018190385759 106.01346678322892103
12.009497869018190385759 611.12402526787900570 12.009497869018190385759 106.09513769005131678
13.009497869018190385759 618.66200806596691564 13.009497869018190385759 106.13166989166700205
14.009497869018204596614 625.59404518787675897 14.009497869018204596614 106.14951899970907334
15.009497869018190385759 631.98823467655881814 15.009497869018190385759 106.21657536678463885
16.009497869018190385759 637.91508212997086957 16.009497869018190385759 106.21698293258670276
17.009497869018190385759 643.44334452850330308 17.009497869018190385759 106.13874134143210881
18.009497869018190385759 648.60766565563983477 18.009497869018190385759 106.16665934230654500
19.009497869018204596614 653.44021808253239669 19.009497869018204596614 106.16268342488936582
20.009497869018190385759 657.98372497967363870 20.009497869018190385759 106.16439867479158465
21.009497869018204596614 662.28425649317443913 21.009497869018204596614 106.10491399874611318
22.009497869018190385759 666.35280912847224499 22.009497869018190385759 106.07753758253598164
23.009497869018190385759 670.20545385665502636 23.009497869018190385759 106.22729035839965661
24.009497869018190385759 673.85382944455250254 24.009497869018190385759 106.24577284165656010
25.009497869018190385759 677.32408923098796549 25.009497869018190385759 106.24293760782690299
26.009497869018204596614 680.64720819763863346 26.009497869018204596614 106.29573106761736767
27.009497869018190385759 683.82669757324595139 27.009497869018190385759 106.26335518182337125
28.009497869018190385759 686.86500109166172479 28.009497869018190385759 106.30113463223240444
29.009497869018190385759 689.77129786353827967 29.009497869018190385759 106.42367716409273726
30.009497869018190385759 692.54969670056459563 30.009497869018190385759 106.43039784179822504
31.009497869018190385759 695.21439670913025566 31.009497869018190385759 106.39147038002067802
32.009497869018190385759 697.78036528094571622 32.009497869018190385759 106.34306155524447490
33.009497869018190385759 700.25473518146156948 33.009497869018190385759 106.30021256121841589
34.009497869018190385759 702.63769664679296056 34.009497869018190385759 106.21646029044838144
35.009497869018190385759 704.93112735473903285 35.009497869018190385759 106.19638546907488319
36.009497869018190385759 707.14101339664853185 36.009497869018190385759 106.19344676432946528
37.009497869018190385759 709.27075664016035716 37.009497869018190385759 106.15374748088058254
38.009497869018190385759 711.32282566455444339 38.009497869018190385759 106.05972382243913898
39.009497869018190385759 713.30563090163695961 39.009497869018190385759 105.91171918925971340
40.009497869018190385759 715.22592323592436969 40.009497869018190385759 105.70574379139270604
41.009497869018190385759 717.08916879241098741 41.009497869018190385759 105.58737597044384415
42.009497869018190385759 718.89377469445878432 42.009497869018190385759 105.36437532811095252
43.009497869018190385759 720.64101041030426131 43.009497869018190385759 105.21541274835621493
44.009497869018218807469 722.33127340856162846 44.009497869018218807469 105.08280525973511033
46.009497869018190385759 725.55530839404832477 46.009497869018190385759 104.72277890408477674
48.009497869018190385759 728.57110400738065437 48.009497869018190385759 104.35483868062354418
50.009497869018190385759 731.41275381180730619 50.009497869018190385759 104.03034074622932792
52.009497869018190385759 734.10853645589565986 52.009497869018190385759 103.80144113242651827
54.009497869018190385759 736.66298815870550243 54.009497869018190385759 103.58442684110912069
56.009497869018190385759 739.08168395062796208 56.009497869018190385759 103.48961109284265092
58.009497869018218807469 741.38152726676162274 58.009497869018218807469 103.40365657938893662
60.009497869018190385759 743.58948548736782413 60.009497869018190385759 103.28220110965303036
62.009497869018190385759 745.69838397215914938 62.009497869018190385759 103.14339128000813162
64.009497869018190385759 747.71522828434922303 64.009497869018190385759 103.03036927826188673
66.009497869018190385759 749.64471080874000108 66.009497869018190385759 102.90578225988821259
68.009497869018190385759 751.48953762629139419 68.009497869018190385759 102.64912570445866891
70.009497869018190385759 753.24966568932586597 70.009497869018190385759 102.44949034875246241
72.009497869018218807469 754.93549983448656349 72.009497869018218807469 101.91599421086675648
74.009497869018190385759 756.55515439036537373 74.009497869018190385759 101.44636452464199294
76.009497869018190385759 758.11464733483762757 76.009497869018190385759 101.05452295341090974
78.009497869018190385759 759.61146762593500625 78.009497869018190385759 100.54032287394316825
80.009497869018190385759 761.04560516658432334 80.009497869018190385759 100.20152816086601888
82.009497869018218807469 762.41846523868275654 82.009497869018218807469 99.88935247187068001
84.009497869018190385759 763.73470170542077540 84.009497869018190385759 99.45117817563814810
86.009497869018190385759 764.98354464082888171 86.009497869018190385759 98.97059144322331292
88.009497869018190385759 766.17814084496490068 88.009497869018190385759 98.66167289969767751
91.009497869018218807469 767.89055163730506592 91.009497869018218807469 98.39107557815070493
94.009497869018190385759 769.53105083995774294 94.009497869018190385759 98.21583829077700045
97.009497869018190385759 771.10522974200523549 97.009497869018190385759 98.20914332333562413
99.504748934509109403734 772.36331181758578168 99.504748934509109403734 95.89242792384121117
nan nan nan nan

