Time Pressure difference Time.1 Pressure.1 difference.1
(hr) (psi) (hr) (psi)
0.000200000000006639311 0.10134035399568241 0.000200000000006639311 0.08092965678763608
0.000399999999999067768 0.20232325130366344 0.000399999999999067768 0.21044623427952946
0.000600000000005707079 0.30301082124781198 0.000600000000005707079 0.30725905476444770
0.000799999999998135536 0.40343179216110153 0.000799999999998135536 0.40544157491632687
0.001007140329434719206 0.50717601728024531 0.001007140329434719206 0.50811690324563208
0.001267914553963578328 0.63742583427430022 0.001267914553963578328 0.63775151177535605
0.001596209851982166583 0.80086758801185998 0.001596209851982166583 0.79999703147930368
0.002009509145210586212 1.00583199617574470 0.002009509145210586212 1.00282965826106052
0.002529822128138903281 1.26267810892435950 0.002529822128138903281 1.25606327877305324
0.003184857364445292660 1.58425537102331848 0.003184857364445292660 1.57171746818370295
0.004009497869020606231 1.98645690201788172 0.004009497869020606231 1.96442983391012072
0.005047658755842121536 2.48887122017213347 0.005047658755842121536 2.45190211201705166
0.006354625877804664924 3.11554060471078564 0.006354625877804664924 3.05535851834996208
0.008000000000009777068 3.89582335943453684 0.008000000000009777068 3.79997635095095898
0.010071403294347192059 4.86534965808442976 0.010071403294347192059 4.71522713024985940
0.012679145539692626699 6.06703968213972988 0.012679145539692626699 5.83501939085875776
0.015962098519750611558 7.55212340263008564 0.015962098519750611558 7.19750457161024215
0.020095091452091651263 9.38106665884396662 0.020095091452091651263 8.84435198979286419
0.025298221281346400247 11.62425321055245675 0.025298221281346400247 10.81921460387689393
0.031848573644282396344 14.36219885851947531 0.031848573644282396344 13.16504770360672616
0.040094978690191851456 17.68499128379361807 0.040094978690191851456 15.91987657670105882
0.050476587558421215363 21.69054530081404408 0.050476587558421215363 19.11094161171878625
0.063546258777947173257 26.48133401629834083 0.063546258777947173257 22.74641614695029190
0.079999999999998294697 32.15881556412697506 0.079999999999998294697 26.80537755665277189
0.100714032943542974863 38.81553054145334869 0.100714032943542974863 31.22734283322315108
0.126791455396897845276 46.52469646399212877 0.126791455396897845276 35.90094374223792073
0.159620985197506115583 55.32708458660044926 0.159620985197506115583 40.65902185021503357
0.200950914520774404082 65.21836220344782475 0.200950914520774404082 45.27990549117669872
0.252982212813464002465 76.13658627711687643 0.252982212813464002465 49.50365687675005688
0.318485736442795541734 87.95707493598433757 0.318485736442795541734 53.06275250186367742
0.400949786901819038576 100.49409441227825823 0.400949786901819038576 55.72589897990740582
0.504765875584169521062 113.51596034851510808 0.504765875584169521062 57.34772055559301407
0.635462587779443310865 126.76961429935998638 0.635462587779443310865 57.90426267341869249
0.799999999999997157829 140.01200173788743086 0.799999999999997157829 57.50406468220180756
1.007140329435330272645 153.03957574271629483 1.007140329435330272645 56.36713488132805594
1.267914553968893187630 165.70973108165563303 1.267914553968893187630 54.77615543455051750
1.596209851975103788391 177.94755039530312501 1.596209851975103788391 53.01531246017761134
2.009509145207687197399 189.73882677275938136 2.009509145207687197399 51.32312996803980809
2.529822128134711078928 201.11489893984150967 2.529822128134711078928 49.86314763195876765
3.184857364427983839050 212.13210161001873644 3.184857364427983839050 48.71806200655118602
4.009497869018190385759 222.85389242696405177 4.009497869018190385759 47.90247190677071387
5.009497869018190385759 232.99474100170033353 5.009497869018190385759 47.39256847131267136
6.009497869018190385759 241.14410543666045328 6.009497869018190385759 47.14774197127015753
7.009497869018204596614 247.94806867194182587 7.009497869018204596614 47.03568880416758446
8.009497869018190385759 253.77920022531233712 8.009497869018190385759 47.00747753251797434
9.009497869018204596614 258.87696202288407221 9.009497869018204596614 47.01615042355707885
10.009497869018190385759 263.39409962569754953 10.009497869018190385759 47.02794246337013107
11.009497869018190385759 267.44920795905204614 11.009497869018190385759 47.03142890019609723
12.009497869018190385759 271.11684030065907791 12.009497869018190385759 47.06766108431367002
13.009497869018190385759 274.46096357835625668 13.009497869018190385759 47.08386809739408818
14.009497869018204596614 277.53626731971257868 14.009497869018204596614 47.09178661078002648
15.009497869018190385759 280.37296229287335336 15.009497869018190385759 47.12153525362808892
16.009497869018190385759 283.00232734493249609 16.009497869018190385759 47.12171606463846274
17.009497869018190385759 285.45486557264513294 17.009497869018190385759 47.08700524965351519
18.009497869018190385759 287.74594621813838558 18.009497869018190385759 47.09939069004144585
19.009497869018204596614 289.88984220388704216 19.009497869018204596614 47.09762682849636661
20.009497869018190385759 291.90550708189158513 20.009497869018190385759 47.09838777572572610
21.009497869018204596614 293.81337924424462926 21.009497869018204596614 47.07199821035281673
22.009497869018190385759 295.61833714063129719 22.009497869018190385759 47.05985303661596220
23.009497869018190385759 297.32751043822514703 23.009497869018190385759 47.12628881354457633
24.009497869018190385759 298.94606251721967283 24.009497869018190385759 47.13448831520763349
25.009497869018190385759 300.48559594974739184 25.009497869018190385759 47.13323050238138734
26.009497869018204596614 301.95985236404334273 26.009497869018204596614 47.15665160090661345
27.009497869018190385759 303.37038946885820678 27.009497869018190385759 47.14228848066345989
28.009497869018190385759 304.71829139339172343 28.009497869018190385759 47.15904881866310205
29.009497869018190385759 306.00763032491516924 29.009497869018190385759 47.21341314188840954
30.009497869018190385759 307.24022908170502433 30.009497869018190385759 47.21639467890684472
31.009497869018190385759 308.42238690368685639 31.009497869018190385759 47.19912504131826125
32.009497869018190385759 309.56074387009226712 32.009497869018190385759 47.17764912632664220
33.009497869018190385759 310.65846433504839297 33.009497869018190385759 47.15863975443144085
34.009497869018190385759 311.71563269421358200 34.009497869018190385759 47.12148420158073492
35.009497869018190385759 312.73308195373880380 35.009497869018190385759 47.11257828082595012
36.009497869018190385759 313.71346776142223689 36.009497869018190385759 47.11127456453888840
37.009497869018190385759 314.65829930945295700 37.009497869018190385759 47.09366251879065146
38.009497869018190385759 315.56867174936598985 38.009497869018190385759 47.05195020486390689
39.009497869018190385759 316.44831625454440882 39.009497869018190385759 46.98628996759885723
40.009497869018190385759 317.30022776284641850 40.009497869018190385759 46.89491179109057839
41.009497869018190385759 318.12683124608781782 41.009497869018190385759 46.84239952143326491
42.009497869018190385759 318.92742004626904873 42.009497869018190385759 46.74346832738013546
43.009497869018190385759 319.70255734566222827 43.009497869018190385759 46.67738311017984643
44.009497869018218807469 320.45241947579825137 44.009497869018218807469 46.61855360613703425
46.009497869018190385759 321.88271863299604547 46.009497869018190385759 46.45883282290306937
48.009497869018190385759 323.22063523236522542 48.009497869018190385759 46.29560116013117010
50.009497869018190385759 324.48129441832907105 50.009497869018190385759 46.15164207650901318
52.009497869018190385759 325.67724162770645080 52.009497869018190385759 46.05009388420376126
54.009497869018190385759 326.81048929222572497 54.009497869018190385759 45.95381845314659586
56.009497869018190385759 327.88351069809675664 56.009497869018190385759 45.91175473937019547
58.009497869018218807469 328.90380482379970317 58.009497869018218807469 45.87362219158345056
60.009497869018190385759 329.88333537985050725 60.009497869018190385759 45.81974012864606749
62.009497869018190385759 330.81891943492155406 62.009497869018190385759 45.75815904058542571
64.009497869018190385759 331.71366491160222267 64.009497869018190385759 45.70801837071981311
66.009497869018190385759 332.56965352242286826 66.009497869018190385759 45.65274703893222608
68.009497869018190385759 333.38808578330014143 68.009497869018190385759 45.53888485797802588
70.009497869018190385759 334.16894259671914824 70.009497869018190385759 45.45031935471928364
72.009497869018218807469 334.91683992657220870 72.009497869018218807469 45.21364106809361516
74.009497869018190385759 335.63537758408932632 74.009497869018190385759 45.00529626184117404
76.009497869018190385759 336.32722536309159977 76.009497869018190385759 44.83146109205865315
78.009497869018190385759 336.99126927405114884 78.009497869018190385759 44.60334323862206674
80.009497869018190385759 337.62750483753927710 80.009497869018190385759 44.45304158409329176
82.009497869018218807469 338.23655548770648238 82.009497869018218807469 44.31454909661172081
84.009497869018190385759 338.82048584749577458 84.009497869018190385759 44.12015904519219589
86.009497869018190385759 339.37451798611317599 86.009497869018190385759 43.90695329481179954
88.009497869018190385759 339.90448430212990161 88.009497869018190385759 43.76990579550223970
91.009497869018218807469 340.66417199909534475 91.009497869018218807469 43.64985898376140483
94.009497869018190385759 341.39195709990855221 94.009497869018190385759 43.57211735081743598
97.009497869018190385759 342.09032010372595778 97.009497869018190385759 43.56914721980707839
99.504748934509109403734 342.64845106089262572 99.504748934509109403734 42.54136802439501253
nan nan nan nan

