Time Pressure difference Time.1 Pressure.1 difference.1
(hr) (psi) (hr) (psi)
0.000200000000006639311 0.49258057311016118 0.000200000000006639311 0.39337120061531311
0.000399999999999067768 0.98342367232026562 0.000399999999999067768 1.02290669612918839
0.000600000000005707079 1.47283128688485654 0.000600000000005707079 1.49348048750260243
0.000799999999998135536 1.96094305534043634 0.000799999999998135536 1.97071191742116270
0.001007140329434719206 2.46520801841955306 0.001007140329434719206 2.46978134118573589
0.001267914553963578328 3.09830753872672160 0.001267914553963578328 3.09989054494086957
0.001596209851982166583 3.89274163681174601 0.001596209851982166583 3.88851016120677961
0.002009509145210586212 4.88900306337882373 0.002009509145210586212 4.87440973236728503
0.002529822128138903281 6.13744359501758385 0.002529822128138903281 6.10529118288869288
0.003184857364445292660 7.70051995915432741 0.003184857364445292660 7.63957752977816273
0.004009497869020606231 9.65548313849675388 0.004009497869020606231 9.54841714351394621
0.005047658755842121536 12.09754617673832122 0.005047658755842121536 11.91785206906648931
0.006354625877804664924 15.14357031634012785 0.006354625877804664924 14.85104591296333965
0.008000000000009777068 18.93625616512033005 0.008000000000009777068 18.47037685339277502
0.010071403294347192059 23.64878973150874586 0.010071403294347192059 22.91909580523087087
0.012679145539692626699 29.48979124187589562 0.012679145539692626699 28.36202048179707802
0.015962098519750611558 36.70827194884952149 0.015962098519750611558 34.98459189315470041
0.020095091452091651263 45.59813548110223280 0.020095091452091651263 42.98935024546860006
0.025298221281346400247 56.50149306440660979 0.025298221281346400247 52.58847754179507206
0.031848573644282396344 69.80970428772171488 0.031848573644282396344 63.99076465769498157
0.040094978690191851456 85.96065435483291139 0.040094978690191851456 77.38103942609613739
0.050476587558421215363 105.43027347035024377 0.050476587558421215363 92.89170799794457878
0.063546258777947173257 128.71664812840094783 0.063546258777947173257 110.56249815689771765
0.079999999999998294697 156.31293138956797861 0.079999999999998294697 130.29171222209095049
0.100714032943542974863 188.66893123837570556 0.100714032943542974863 151.78536311558465854
0.126791455396897845276 226.14053281268303408 0.126791455396897845276 174.50212818973022877
0.159620985197506115583 268.92591114634478799 0.159620985197506115583 197.62950784571734175
0.200950914520774404082 317.00400644790619253 0.200950914520774404082 220.09003242842442205
0.252982212813464002465 370.07373493713367907 0.252982212813464002465 240.62023383535068888
0.318485736442795541734 427.52906095933371944 0.318485736442795541734 257.91977240659969084
0.400949786901819038576 488.46719661050008199 0.400949786901819038576 270.86441061545161801
0.504765875584169521062 551.76200398909395517 0.504765875584169521062 278.74752696284144804
0.635462587779443310865 616.18345311082339322 0.635462587779443310865 281.45268660112532189
0.799999999999997157829 680.55013959481357233 0.799999999999997157829 279.50746193889898450
1.007140329435330272645 743.87269192976032173 1.007140329435330272645 273.98123757891420382
1.267914553968893187630 805.45795517558838128 1.267914553968893187630 266.24803420236435159
1.596209851975103788391 864.94178183946507943 1.596209851975103788391 257.68918269578136915
2.009509145207687197399 922.25511701841242029 2.009509145207687197399 249.46406615612795576
2.529822128134711078928 977.55028746988546118 2.529822128134711078928 242.36759463730780340
3.184857364427983839050 1031.10111684214007255 3.184857364427983839050 236.80172762200700731
4.009497869018190385759 1083.21605089499757923 4.009497869018190385759 232.83742492389370682
5.009497869018190385759 1132.50722470498590155 5.009497869018190385759 230.35895986465911278
6.009497869018190385759 1172.11847970442340738 6.009497869018190385759 229.16894253248528912
7.009497869018204596614 1205.19020264312734980 7.009497869018204596614 228.62429066288018475
8.009497869018190385759 1233.53332568532960067 8.009497869018190385759 228.48716538346849347
9.009497869018204596614 1258.31179081614959614 9.009497869018204596614 228.52932132106025165
10.009497869018190385759 1280.26804162326766345 10.009497869018190385759 228.58663836703675543
11.009497869018190385759 1299.97852721080221272 11.009497869018190385759 228.60358473619908182
12.009497869018190385759 1317.80562539582638237 12.009497869018190385759 228.77969690981973372
13.009497869018190385759 1334.06025739315782630 13.009497869018190385759 228.85847362094011714
14.009497869018204596614 1349.00825016876706286 14.009497869018204596614 228.89696278846355426
15.009497869018190385759 1362.79644786617927821 15.009497869018190385759 229.04156070001192802
16.009497869018190385759 1375.57688619299165111 16.009497869018190385759 229.04243956008699001
17.009497869018190385759 1387.49783020146333001 17.009497869018190385759 228.87372223806994498
18.009497869018190385759 1398.63398448652492334 18.009497869018190385759 228.93392359995556262
19.009497869018204596614 1409.05472481069705282 19.009497869018204596614 228.92535007621597742
20.009497869018190385759 1418.85217786526004602 20.009497869018190385759 228.92904877873240821
21.009497869018204596614 1428.12568763800868510 21.009497869018204596614 228.80077818638707754
22.009497869018190385759 1436.89896659339660800 22.009497869018190385759 228.74174467797760713
23.009497869018190385759 1445.20666958907804656 23.009497869018190385759 229.06466611829452518
24.009497869018190385759 1453.07389403861679966 24.009497869018190385759 229.10452107309941994
25.009497869018190385759 1460.55703605082135255 25.009497869018190385759 229.09840727796856186
26.009497869018204596614 1467.72288894981716112 26.009497869018204596614 229.21224917489854533
27.009497869018190385759 1474.57902422158122135 27.009497869018190385759 229.14243499207728405
28.009497869018190385759 1481.13071144492869280 28.009497869018190385759 229.22390122514113386
29.009497869018190385759 1487.39774412028441475 29.009497869018190385759 229.48814748475268743
30.009497869018190385759 1493.38898233976306074 30.009497869018190385759 229.50263970976851624
31.009497869018190385759 1499.13504454005192201 31.009497869018190385759 229.41869794673550587
32.009497869018190385759 1504.66820586036669738 32.009497869018190385759 229.31431091730900107
33.009497869018190385759 1510.00384713675157400 33.009497869018190385759 229.22191290473639924
34.009497869018190385759 1515.14237858744809273 34.009497869018190385759 229.04131255358504404
35.009497869018190385759 1520.08784916858280667 35.009497869018190385759 228.99802393876873907
36.009497869018190385759 1524.85316706986372992 36.009497869018190385759 228.99168702271774123
37.009497869018190385759 1529.44566795496393752 37.009497869018190385759 228.90608093149884894
38.009497869018190385759 1533.87067497847556297 38.009497869018190385759 228.70333173347785305
39.009497869018190385759 1538.14632408971169752 39.009497869018190385759 228.38417992447639904
40.009497869018190385759 1542.28717265055684038 40.009497869018190385759 227.94002206653044595
41.009497869018190385759 1546.30500761418079492 41.009497869018190385759 227.68477800172070147
42.009497869018190385759 1550.19639415932397242 42.009497869018190385759 227.20390752570833115
43.009497869018190385759 1553.96406972112890799 43.009497869018190385759 226.88269003554631809
44.009497869018218807469 1557.60889138646189167 44.009497869018218807469 226.59674006917424549
46.009497869018190385759 1564.56108319152963304 46.009497869018190385759 225.82039232771734305
48.009497869018190385759 1571.06423518682436224 48.009497869018190385759 225.02697940949005329
50.009497869018190385759 1577.19186549236974315 50.009497869018190385759 224.32724386368727210
52.009497869018190385759 1583.00495315762236714 52.009497869018190385759 223.83365306010517770
54.009497869018190385759 1588.51327992040864956 54.009497869018190385759 223.36569133373711793
56.009497869018190385759 1593.72886757353603571 56.009497869018190385759 223.16123410202069977
58.009497869018218807469 1598.68816606978043637 58.009497869018218807469 222.97588491482773065
60.009497869018190385759 1603.44932688730591508 60.009497869018190385759 222.71398275645182707
62.009497869018190385759 1607.99687889269239349 62.009497869018190385759 222.41465828743571365
64.009497869018190385759 1612.34592862770568900 64.009497869018190385759 222.17094175276108103
66.009497869018190385759 1616.50659458030122551 66.009497869018190385759 221.90228683677710819
68.009497869018190385759 1620.48471204505744936 68.009497869018190385759 221.34884197361449765
70.009497869018190385759 1624.28018819552812602 70.009497869018190385759 220.91835555203715558
72.009497869018218807469 1627.91545964309284500 72.009497869018218807469 219.76794388015994741
74.009497869018190385759 1631.40802383086042937 74.009497869018190385759 218.75525150222799198
76.009497869018190385759 1634.77085770748658433 76.009497869018190385759 217.91029858680971643
78.009497869018190385759 1637.99854655337981058 78.009497869018190385759 216.80149623363021760
80.009497869018190385759 1641.09106859558005453 80.009497869018190385759 216.07093163415837012
82.009497869018218807469 1644.05145413286845724 82.009497869018218807469 215.39776733025203725
84.009497869018190385759 1646.88973858659846883 84.009497869018190385759 214.45290421146700055
86.009497869018190385759 1649.58269808004206425 86.009497869018190385759 213.41658445756885953
88.009497869018190385759 1652.15868189477896522 88.009497869018190385759 212.75044374371171330
91.009497869018218807469 1655.85126225789804266 91.009497869018218807469 212.16693751943046209
94.009497869018190385759 1659.38877508398172722 94.009497869018190385759 211.78906220520278225
97.009497869018190385759 1662.78327722548760903 97.009497869018190385759 211.77462542086553299
99.504748934509109403734 1665.49615966483065677 99.504748934509109403734 206.77894457759214220
nan nan nan nan

