Time Pressure difference Time.1 Pressure.1 difference.1
(hr) (psi) (hr) (psi)
0.000200000000006639311 0.13622801684665503 0.000200000000006639311 0.10879068617354358
0.000399999999999067768 0.27197551814590826 0.000399999999999067768 0.28289493788395770
0.000600000000005707079 0.40732602200525542 0.000600000000005707079 0.41303676214237228
0.000799999999998135536 0.54231814683951352 0.000799999999998135536 0.54501982201866894
0.001007140329434719206 0.68177759699967400 0.001007140329434719206 0.68304239452691518
0.001267914553963578328 0.85686751492610858 0.001267914553963578328 0.85730531091113427
0.001596209851982166583 1.07657610191758213 0.001596209851982166583 1.07540584559512964
0.002009509145210586212 1.35210202764608289 0.002009509145210586212 1.34806609799027788
0.002529822128138903281 1.69737057265241775 0.002529822128138903281 1.68847850589164539
0.003184857364445292660 2.12965476104773943 0.003184857364445292660 2.11280053100104315
0.004009497869020606231 2.67031911418797208 0.004009497869020606231 2.64070895705950637
0.005047658755842121536 3.34569573859204850 0.005047658755842121536 3.29599956041636455
0.006354625877804664924 4.18810376370958082 0.006354625877804664924 4.10720325417535825
0.008000000000009777068 5.23700845038741036 0.008000000000009777068 5.10816493078653533
0.010071403294347192059 6.54030609775284066 0.010071403294347192059 6.33850204394243288
0.012679145539692626699 8.15569268746652121 0.012679145539692626699 7.84379655820357602
0.015962098519750611558 10.15203473796175615 0.015962098519750611558 9.67533401429573381
0.020095091452091651263 12.61061419713451315 0.020095091452091651263 11.88912890431172187
0.025298221281346400247 15.62604529943117271 0.025298221281346400247 14.54386225439189140
0.031848573644282396344 19.30656239997700041 0.031848573644282396344 17.69727724091395871
0.040094978690191851456 23.77326697165699443 0.040094978690191851456 21.40048982441781789
0.050476587558421215363 29.15778220765167106 0.050476587558421215363 25.69011823214656332
0.063546258777947173257 35.59785884158137748 0.063546258777947173257 30.57714957458891902
0.079999999999998294697 43.22988321735101636 0.079999999999998294697 36.03345835484471138
0.100714032943542974863 52.17825417047826875 0.100714032943542974863 41.97773954629997206
0.126791455396897845276 62.54139524667794348 0.126791455396897845276 48.26028503054934049
0.159620985197506115583 74.37411370657764564 0.159620985197506115583 54.65639002815790803
0.200950914520774404082 87.67058525709380490 0.200950914520774404082 60.86806967666375812
0.252982212813464002465 102.34754220858334861 0.252982212813464002465 66.54589940809023574
0.318485736442795541734 118.23737942214287955 0.318485736442795541734 71.33025746152165425
0.400949786901819038576 135.09042199683307217 0.400949786901819038576 74.91022485823619093
0.504765875584169521062 152.59522538652851154 0.504765875584169521062 77.09037845178076509
0.635462587779443310865 170.41161266471343083 0.635462587779443310865 77.83851703639891184
0.799999999999997157829 188.21285479519295336 0.799999999999997157829 77.30054596623850216
1.007140329435330272645 205.72533132627435748 1.007140329435330272645 75.77221410276887070
1.267914553968893187630 222.75734342124198406 1.267914553968893187630 73.63352042021544719
1.596209851975103788391 239.20818249860417382 1.596209851975103788391 71.26648560220597517
2.009509145207687197399 255.05875074370931088 2.009509145207687197399 68.99174848162729745
2.529822128134711078928 270.35117562404923319 2.529822128134711078928 67.02914927574785509
3.184857364427983839050 285.16118577084483832 3.184857364427983839050 65.48985384487208705
4.009497869018190385759 299.57408490182058358 4.009497869018190385759 64.39348682549506009
5.009497869018190385759 313.20604528097419461 5.009497869018190385759 63.70804286307605224
6.009497869018190385759 324.16092861977307393 6.009497869018190385759 63.37893183023201971
7.009497869018204596614 333.30723985408576482 7.009497869018204596614 63.22830298265150617
8.009497869018190385759 341.14581013894439820 8.009497869018190385759 63.19037963387661705
9.009497869018204596614 347.99853911272941787 9.009497869018204596614 63.20203827428984766
10.009497869018190385759 354.07075687388851293 10.009497869018190385759 63.21788986879263206
11.009497869018190385759 359.52188610888964604 11.009497869018190385759 63.22257655436197155
12.009497869018190385759 364.45214597793517441 12.009497869018190385759 63.27128211333969432
13.009497869018190385759 368.94752481024937651 13.009497869018190385759 63.29306858993959395
14.009497869018204596614 373.08153967567920972 14.009497869018204596614 63.30371314891741008
15.009497869018190385759 376.89480177074779021 15.009497869018190385759 63.34370312782792212
16.009497869018190385759 380.42935807023712869 16.009497869018190385759 63.34394618525170984
17.009497869018190385759 383.72621273699832045 17.009497869018190385759 63.29728574543587172
18.009497869018190385759 386.80602606372696073 18.009497869018190385759 63.31393502595736322
19.009497869018204596614 389.68798460194653899 19.009497869018204596614 63.31156393338856958
20.009497869018190385759 392.39756689696901049 20.009497869018190385759 63.31258684605752052
21.009497869018204596614 394.96224750865667374 21.009497869018204596614 63.27711234834313103
22.009497869018190385759 397.38858435297981941 22.009497869018190385759 63.26078604922147264
23.009497869018190385759 399.68616157269610767 23.009497869018190385759 63.35009315919106143
24.009497869018190385759 401.86192010511496164 24.009497869018190385759 63.36111544011517793
25.009497869018190385759 403.93145685048011728 25.009497869018190385759 63.35942460975858381
26.009497869018204596614 405.91324416150087018 26.009497869018204596614 63.39090870941545575
27.009497869018190385759 407.80937600731755310 27.009497869018190385759 63.37160090843283911
28.009497869018190385759 409.62130974193644306 28.009497869018190385759 63.39413119885860226
29.009497869018190385759 411.35451945316464162 29.009497869018190385759 63.46721110876802641
30.009497869018190385759 413.01145548688219833 30.009497869018190385759 63.47121907656329398
31.009497869018190385759 414.60058567380855266 31.009497869018190385759 63.44800415390324133
32.009497869018190385759 416.13083602209121636 32.009497869018190385759 63.41913489112761226
33.009497869018190385759 417.60646025367157108 33.009497869018190385759 63.39358130923569945
34.009497869018190385759 419.02757181845100831 34.009497869018190385759 63.34363450048557809
35.009497869018190385759 420.39529049518984039 35.009497869018190385759 63.33166260701192840
36.009497869018190385759 421.71318617109221805 36.009497869018190385759 63.32991007036375919
37.009497869018190385759 422.98328759631380080 37.009497869018190385759 63.30623486132513733
38.009497869018190385759 424.20706694177067675 38.009497869018190385759 63.25016257047279566
39.009497869018190385759 425.38953988315802235 39.009497869018190385759 63.16189798923124243
40.009497869018190385759 426.53473240251486232 40.009497869018190385759 63.03906175195782424
41.009497869018190385759 427.64590429801967275 41.009497869018190385759 62.96847148782833159
42.009497869018190385759 428.72210563596820521 42.009497869018190385759 62.83548201385526255
43.009497869018190385759 429.76409348105414665 43.009497869018190385759 62.74664614811062080
44.009497869018218807469 430.77210486910576037 44.009497869018218807469 62.66756386398748901
46.009497869018190385759 432.69480209681432825 46.009497869018190385759 62.45285723734509986
48.009497869018190385759 434.49331293531059828 48.009497869018190385759 62.23343106771731215
50.009497869018190385759 436.18796954595052284 50.009497869018190385759 62.03991229956949383
52.009497869018190385759 437.79563628642512185 52.009497869018190385759 61.90340489351981290
54.009497869018190385759 439.31901839282801348 54.009497869018190385759 61.77398546160689818
56.009497869018190385759 440.76144061055629209 56.009497869018190385759 61.71744079718616405
58.009497869018218807469 442.13298353363239812 58.009497869018218807469 61.66618065098102619
60.009497869018190385759 443.44972952701209579 60.009497869018190385759 61.59374902539308039
62.009497869018190385759 444.70739989612400223 62.009497869018190385759 61.51096789062302861
64.009497869018190385759 445.91017250412096473 64.009497869018190385759 61.44356567867254171
66.009497869018190385759 447.06084571866676924 66.009497869018190385759 61.36926651135150479
68.009497869018190385759 448.16103334804284941 68.009497869018190385759 61.21620587465898922
70.009497869018190385759 449.21070972017980694 70.009497869018190385759 61.09715060798329489
72.009497869018218807469 450.21607990129382415 72.009497869018218807469 60.77899291120780845
74.009497869018190385759 451.18198298189059869 74.009497869018190385759 60.49892284378649521
76.009497869018190385759 452.11200786513956018 76.009497869018190385759 60.26524277948868757
78.009497869018190385759 453.00465705692124629 78.009497869018190385759 59.95859255027884416
80.009497869018190385759 453.85992453570850103 80.009497869018190385759 59.75654770320737441
82.009497869018218807469 454.67864836052348210 82.009497869018218807469 59.57037747413378526
84.009497869018190385759 455.46360392614190005 84.009497869018190385759 59.30906625747147132
86.009497869018190385759 456.20836844034886326 86.009497869018190385759 59.02246180614045556
88.009497869018190385759 456.92078217663362238 88.009497869018190385759 58.83823402018334292
91.009497869018218807469 457.94200170370197611 91.009497869018218807469 58.67685961751533341
94.009497869018190385759 458.92033577364747998 94.009497869018190385759 58.57235447159064989
97.009497869018190385759 459.85911882795949168 97.009497869018190385759 58.56836183646197469
99.504748934509109403734 460.60939322939663043 99.504748934509109403734 57.18675701639984510
nan nan nan nan

