Time Pressure difference Time.1 Pressure.1 difference.1
(hr) (psi) (hr) (psi)
0.000200000000006639311 0.52912955323975153 0.000200000000006639311 0.42255894568626379
0.000399999999999067768 1.05639271377404587 0.000399999999999067768 1.09880533800049429
0.000600000000005707079 1.58211387815455917 0.000600000000005707079 1.60429522856519013
0.000799999999998135536 2.10644304595591558 0.000799999999998135536 2.11693674771885432
0.001007140329434719206 2.64812395907800191 0.001007140329434719206 2.65303661776612776
0.001267914553963578328 3.32819882321909200 0.001267914553963578328 3.32989928689263737
0.001596209851982166583 4.18157912757012173 0.001596209851982166583 4.17703368075669257
0.002009509145210586212 5.25176214396679786 0.002009509145210586212 5.23608600255979884
0.002529822128138903281 6.59283569987554952 0.002529822128138903281 6.55829761129864686
0.003184857364445292660 8.27189074870372032 0.003184857364445292660 8.20642645272966220
0.004009497869020606231 10.37191021791303847 0.004009497869020606231 10.25690003443235021
0.005047658755842121536 12.99517186270204228 0.005047658755842121536 12.80214463405624414
0.006354625877804664924 16.26720791148172296 0.006354625877804664924 15.95297849335184814
0.008000000000009777068 20.34130721278524589 0.008000000000009777068 19.84086012750623951
0.010071403294347192059 25.40350600163755601 0.010071403294347192059 24.61966952433737887
0.012679145539692626699 31.67790391412301432 0.012679145539692626699 30.46645370472974435
0.015962098519750611558 39.43198858586364963 0.015962098519750611558 37.58041321406331292
0.020095091452091651263 48.98147099740661758 0.020095091452091651263 46.17911653686930862
0.025298221281346400247 60.69384668132716598 0.025298221281346400247 56.49048936614411076
0.031848573644282396344 74.98951371210578998 0.031848573644282396344 68.73881464915970696
0.040094978690191851456 92.33884793259456103 0.040094978690191851456 83.12263425703750386
0.050476587558421215363 113.25309308703728561 0.050476587558421215363 99.78417874315462655
0.063546258777947173257 138.26729318345937259 0.063546258777947173257 118.76612365251914127
0.079999999999998294697 167.91119274056461563 0.079999999999998294697 139.95922543924439196
0.100714032943542974863 202.66797504021133136 0.100714032943542974863 163.04768348166516034
0.126791455396897845276 242.91993153740148159 0.126791455396897845276 187.45000953938981070
0.159620985197506115583 288.87994165298761118 0.159620985197506115583 212.29341736546700758
0.200950914520774404082 340.52538298029725183 0.200950914520774404082 236.42049014655373185
0.252982212813464002465 397.53283162724136446 0.252982212813464002465 258.47401172532607916
0.318485736442795541734 459.25128470673791981 0.318485736442795541734 277.05715855481281551
0.400949786901819038576 524.71096836574804456 0.400949786901819038576 290.96227582131984946
0.504765875584169521062 592.70218640986979608 0.504765875584169521062 299.43031142551433277
0.635462587779443310865 661.90364187452701117 0.635462587779443310865 302.33619117186646008
0.799999999999997157829 731.04627136913359209 0.799999999999997157829 300.24663280788973907
1.007140329435330272645 799.06729301729728832 1.007140329435330272645 294.31036819185226250
1.267914553968893187630 865.22212048372659865 1.267914553968893187630 286.00336894925146680
1.596209851975103788391 929.11958690006633788 1.596209851975103788391 276.80945932076343752
2.009509145207687197399 990.68551355940769554 2.009509145207687197399 267.97404745607673249
2.529822128134711078928 1050.08352971048407198 2.529822128134711078928 260.35102493080114527
3.184857364427983839050 1107.60777643919618640 3.184857364427983839050 254.37217621453365268
4.009497869018190385759 1163.58958586865651341 4.009497869018190385759 250.11372626731920832
5.009497869018190385759 1216.53811490232055803 5.009497869018190385759 247.45136160841124706
6.009497869018190385759 1259.08848494387461869 6.009497869018190385759 246.17304619425487999
7.009497869018204596614 1294.61409626251588634 7.009497869018204596614 245.58798170700615060
8.009497869018190385759 1325.06025035675384061 8.009497869018190385759 245.44068187060614150
9.009497869018204596614 1351.67725252932086732 9.009497869018204596614 245.48596573611365557
10.009497869018190385759 1375.26263493089618350 10.009497869018190385759 245.54753564890799566
11.009497869018190385759 1396.43561860587010415 11.009497869018190385759 245.56573942151567280
12.009497869018190385759 1415.58546943868714152 12.009497869018190385759 245.75491894022792394
13.009497869018190385759 1433.04617868371246914 13.009497869018190385759 245.83954080360680905
14.009497869018204596614 1449.10329739882718059 14.009497869018204596614 245.88088582841700713
15.009497869018190385759 1463.91456541442880734 15.009497869018190385759 246.03621275869750207
16.009497869018190385759 1477.64329933378689930 16.009497869018190385759 246.03715682930084085
17.009497869018190385759 1490.44876532602393127 17.009497869018190385759 245.85592085269905738
18.009497869018190385759 1502.41121099142742423 18.009497869018190385759 245.92058909472461892
19.009497869018204596614 1513.60515970390201801 19.009497869018204596614 245.91137942419828732
20.009497869018190385759 1524.12957386200787369 20.009497869018190385759 245.91535256669908449
21.009497869018204596614 1534.09116867691659536 21.009497869018204596614 245.77756442618641586
22.009497869018190385759 1543.51541605395232182 22.009497869018190385759 245.71415069118336305
23.009497869018190385759 1552.43954220614295991 23.009497869018190385759 246.06103257563847819
24.009497869018190385759 1560.89050674974532740 24.009497869018190385759 246.10384472776448206
25.009497869018190385759 1568.92889032777952707 25.009497869018190385759 246.09727729522086292
26.009497869018204596614 1576.62644226143947890 26.009497869018204596614 246.21956614571735145
27.009497869018190385759 1583.99129583330068272 27.009497869018190385759 246.14457182116905187
28.009497869018190385759 1591.02911161959468700 28.009497869018190385759 246.23208276629830493
29.009497869018190385759 1597.76115177845053950 29.009497869018190385759 246.51593583100756746
30.009497869018190385759 1604.19693381185334147 30.009497869018190385759 246.53150336445622770
31.009497869018190385759 1610.36934801351276292 31.009497869018190385759 246.44133320753883254
32.009497869018190385759 1616.31306430531776641 32.009497869018190385759 246.32920076614811933
33.009497869018190385759 1622.04460476578560701 33.009497869018190385759 246.22994691453135374
34.009497869018190385759 1627.56441005093483909 34.009497869018190385759 246.03594620005682714
35.009497869018190385759 1632.87682954534102464 35.009497869018190385759 245.98944561382069196
36.009497869018190385759 1637.99572921332764963 36.009497869018190385759 245.98263850501044203
37.009497869018190385759 1642.92898901738954009 37.009497869018190385759 245.89068052843973078
38.009497869018190385759 1647.68232708480422843 38.009497869018190385759 245.67288754506810733
39.009497869018190385759 1652.27522503397358378 39.009497869018190385759 245.33005499475797251
40.009497869018190385759 1656.72332036830493962 40.009497869018190385759 244.85294107315328915
41.009497869018190385759 1661.03927462096680756 41.009497869018190385759 244.57875815699171085
42.009497869018190385759 1665.21939811043739610 42.009497869018190385759 244.06220757820611311
43.009497869018190385759 1669.26663138677736242 43.009497869018190385759 243.71715607528335568
44.009497869018218807469 1673.18189513183165218 44.009497869018218807469 243.40998891073189725
46.009497869018190385759 1680.64993253457737410 46.009497869018190385759 242.57603695237091301
48.009497869018190385759 1687.63561182800526694 48.009497869018190385759 241.72375359838980557
50.009497869018190385759 1694.21790610225889395 50.009497869018190385759 240.97209838308396002
52.009497869018190385759 1700.46231899056579095 52.009497869018190385759 240.44188364129340130
54.009497869018190385759 1706.37935802580136624 54.009497869018190385759 239.93919962831458292
56.009497869018190385759 1711.98193700563638231 56.009497869018190385759 239.71957187687553414
58.009497869018218807469 1717.30921043246257796 58.009497869018218807469 239.52046996752997643
60.009497869018190385759 1722.42364456528480332 60.009497869018190385759 239.23913493399629715
62.009497869018190385759 1727.30862032823779373 62.009497869018190385759 238.91760089223700447
64.009497869018190385759 1731.98036515320154649 64.009497869018190385759 238.65580083728298177
66.009497869018190385759 1736.44974830969954382 66.009497869018190385759 238.36721199835923812
68.009497869018190385759 1740.72303806526406333 68.009497869018190385759 237.77270208632788240
70.009497869018190385759 1744.80013470582025548 70.009497869018190385759 237.31027400783753478
72.009497869018218807469 1748.70513961661049507 72.009497869018218807469 236.07450295389861594
74.009497869018190385759 1752.45684853331886188 74.009497869018190385759 234.98666982617072563
76.009497869018190385759 1756.06920128106048651 76.009497869018190385759 234.07902225935546880
78.009497869018190385759 1759.53638137352936610 78.009497869018190385759 232.88794789346113134
80.009497869018190385759 1762.85836542223341894 80.009497869018190385759 232.10317613989693086
82.009497869018218807469 1766.03840857105774376 82.009497869018218807469 231.38006372575134151
84.009497869018190385759 1769.08729085946583837 84.009497869018190385759 230.36509271956907696
86.009497869018190385759 1771.98006522257446704 86.009497869018190385759 229.25187908848457141
88.009497869018190385759 1774.74718442997323109 88.009497869018190385759 228.53631140766333374
91.009497869018218807469 1778.71375051986660765 91.009497869018218807469 227.90950961193456692
94.009497869018190385759 1782.51374321837488424 94.009497869018190385759 227.50359633172709550
97.009497869018190385759 1786.16011398420869227 97.009497869018190385759 227.48808835259922034
99.504748934509109403734 1789.07428955564432727 99.504748934509109403734 222.12173304540672802
nan nan nan nan

