Time Pressure difference Time.1 Pressure.1 difference.1
(hr) (psi) (hr) (psi)
0.000200000000006639311 0.76586726544278005 0.000200000000006639311 0.61161593080492183
0.000399999999999067768 1.52903309591784975 0.000399999999999067768 1.59042154103054267
0.000600000000005707079 2.28996702615149683 0.000600000000005707079 2.32207252862967817
0.000799999999998135536 3.04888616698799675 0.000799999999998135536 3.06407485305617566
0.001007140329434719206 3.83292039288841169 0.001007140329434719206 3.84003102288912102
0.001267914553963578328 4.81726737049921994 0.001267914553963578328 4.81972863817113328
0.001596209851982166583 6.05245832907323678 0.001596209851982166583 6.04587920511408150
0.002009509145210586212 7.60145164322980715 0.002009509145210586212 7.57876184357948990
0.002529822128138903281 9.54253456088737373 0.002529822128138903281 9.49254379531766546
0.003184857364445292660 11.97281518101229203 0.003184857364445292660 11.87806152184732866
0.004009497869020606231 15.01240380049579493 0.004009497869020606231 14.84593694151747023
0.005047658755842121536 18.80933823769432323 0.005047658755842121536 18.52994874819443893
0.006354625877804664924 23.54531506183069212 0.006354625877804664924 23.09049634359561409
0.008000000000009777068 29.44220604425117216 0.008000000000009777068 28.71785406210479152
0.010071403294347192059 36.76928184224463081 0.010071403294347192059 35.63474929582270079
0.012679145539692626699 45.85090645026910749 0.012679145539692626699 44.09744162599815098
0.015962098519750611558 57.07424407561425994 0.015962098519750611558 54.39425586085773290
0.020095091452091651263 70.89625786437817112 0.020095091452091651263 66.84010274253297723
0.025298221281346400247 87.84886442728988243 0.025298221281346400247 81.76488413749588346
0.031848573644282396344 108.54055202913897915 0.031848573644282396344 99.49322936660165340
0.040094978690191851456 133.65214724309603866 0.040094978690191851456 120.31250986654406177
0.050476587558421215363 163.92362924057829332 0.050476587558421215363 144.42859152462884254
0.063546258777947173257 200.12942592645137552 0.063546258777947173257 171.90324334006695040
0.079999999999998294697 243.03629467315633406 0.079999999999998294697 202.57834514126111003
0.100714032943542974863 293.34359966573759948 0.100714032943542974863 235.99680403468641998
0.126791455396897845276 351.60467327705521257 0.126791455396897845276 271.31696828150296597
0.159620985197506115583 418.12763925283292110 0.159620985197506115583 307.27555857293657482
0.200950914520774404082 492.87975370146631349 0.200950914520774404082 342.19731854807309901
0.252982212813464002465 575.39288973362090474 0.252982212813464002465 374.11780033084875186
0.318485736442795541734 664.72477943424235036 0.318485736442795541734 401.01522792392057681
0.400949786901819038576 759.47176268951284328 0.400949786901819038576 421.14162999569367685
0.504765875584169521062 857.88291345353218276 0.504765875584169521062 433.39834714964558771
0.635462587779443310865 958.04577363942541979 0.635462587779443310865 437.60434577780358723
0.799999999999997157829 1058.12348854370679874 0.799999999999997157829 434.57989866385304367
1.007140329435330272645 1156.57777733429861655 1.007140329435330272645 425.98769148020056718
1.267914553968893187630 1252.33091850234814046 1.267914553968893187630 413.96405992340635294
1.596209851975103788391 1344.81673331532351767 1.596209851975103788391 400.65670564167010070
2.009509145207687197399 1433.92785479085341649 2.009509145207687197399 387.86824451256319435
2.529822128134711078928 1519.90112149617925752 2.529822128134711078928 376.83460751365561237
3.184857364427983839050 1603.16227610194482622 3.184857364427983839050 368.18076368885402871
4.009497869018190385759 1684.19089194803996179 4.009497869018190385759 362.01704178723440464
5.009497869018190385759 1760.82910822596477374 5.009497869018190385759 358.16350926680559041
6.009497869018190385759 1822.41692797213863741 6.009497869018190385759 356.31326309435320354
7.009497869018204596614 1873.83704356992120665 7.009497869018204596614 355.46643506100423338
8.009497869018190385759 1917.90510334211444388 8.009497869018190385759 355.25323184411121247
9.009497869018204596614 1956.43081135327133779 9.009497869018204596614 355.31877615180025032
10.009497869018190385759 1990.56852340076329710 10.009497869018190385759 355.40789304284641048
11.009497869018190385759 2021.21450605119707689 11.009497869018190385759 355.43424136049839035
12.009497869018190385759 2048.93218653448911937 12.009497869018190385759 355.70806163719021242
13.009497869018190385759 2074.20498704298734083 13.009497869018190385759 355.83054414587991232
14.009497869018204596614 2097.44621695717250986 14.009497869018204596614 355.89038733720639129
15.009497869018190385759 2118.88419044286229109 15.009497869018190385759 356.11520904791063913
16.009497869018190385759 2138.75529354121090364 16.009497869018190385759 356.11657550489064761
17.009497869018190385759 2157.29004965556396201 17.009497869018190385759 355.85425278836510188
18.009497869018190385759 2174.60460994363575082 18.009497869018190385759 355.94785423129684432
19.009497869018204596614 2190.80684026216295024 19.009497869018204596614 355.93452406453815229
20.009497869018190385759 2206.03997975003312604 20.009497869018190385759 355.94027482966492926
21.009497869018204596614 2220.45848904256990863 21.009497869018204596614 355.74083893397784095
22.009497869018190385759 2234.09923642345984263 22.009497869018190385759 355.64905327672067870
23.009497869018190385759 2247.01610347576706772 23.009497869018190385759 356.15113349252538910
24.009497869018190385759 2259.24811181046334241 24.009497869018190385759 356.21310021820852398
25.009497869018190385759 2270.88294643989411270 25.009497869018190385759 356.20359445242326046
26.009497869018204596614 2282.02445802990177981 26.009497869018204596614 356.38059652488448137
27.009497869018190385759 2292.68441877284658403 27.009497869018190385759 356.27204900960413170
28.009497869018190385759 2302.87102184186232989 28.009497869018190385759 356.39871320333918447
29.009497869018190385759 2312.61504229157208101 29.009497869018190385759 356.80956489197637893
30.009497869018190385759 2321.93025584698398234 30.009497869018190385759 356.83209749141076372
31.009497869018190385759 2330.86426823933834385 31.009497869018190385759 356.70158432865116538
32.009497869018190385759 2339.46726105102516158 32.009497869018190385759 356.53928274158329259
33.009497869018190385759 2347.76314849929985940 33.009497869018190385759 356.39562175070312833
34.009497869018190385759 2355.75256839397479780 34.009497869018190385759 356.11482322833967373
35.009497869018190385759 2363.44181607661585076 35.009497869018190385759 356.04751782722559028
36.009497869018190385759 2370.85096127894530582 36.009497869018190385759 356.03766515167916396
37.009497869018190385759 2377.99140953537425958 37.009497869018190385759 355.90456428135229316
38.009497869018190385759 2384.87143731897867838 38.009497869018190385759 355.58932859741412358
39.009497869018190385759 2391.51924251385207754 39.009497869018190385759 355.09310942726347093
40.009497869018190385759 2397.95745899462644957 40.009497869018190385759 354.40253009332388956
41.009497869018190385759 2404.20441318764687821 41.009497869018190385759 354.00567507181534666
42.009497869018190385759 2410.25476461196740274 42.009497869018190385759 353.25801473643019790
43.009497869018190385759 2416.11276944836527036 43.009497869018190385759 352.75858383267069485
44.009497869018218807469 2421.77976030070431079 44.009497869018218807469 352.31398708900280781
46.009497869018190385759 2432.58907032477327448 46.009497869018190385759 351.10691690751332317
48.009497869018190385759 2442.70021052656329630 48.009497869018190385759 349.87331368558147915
50.009497869018190385759 2452.22748732540458150 50.009497869018190385759 348.78536061099435983
52.009497869018190385759 2461.26571131758510091 52.009497869018190385759 348.01792263308090014
54.009497869018190385759 2469.83009120845963480 54.009497869018190385759 347.29033290000950274
56.009497869018190385759 2477.93931855446908230 56.009497869018190385759 346.97244155491245010
58.009497869018218807469 2485.65006596346984225 58.009497869018218807469 346.68425951344215719
60.009497869018190385759 2493.05274770673895546 60.009497869018190385759 346.27705244763671999
62.009497869018190385759 2500.12330917211193082 62.009497869018190385759 345.81166094606356864
64.009497869018190385759 2506.88523810243623302 64.009497869018190385759 345.43272899839070078
66.009497869018190385759 2513.35426678421208635 66.009497869018190385759 345.01502270406155048
68.009497869018190385759 2519.53946796887476012 68.009497869018190385759 344.15452327094868679
70.009497869018190385759 2525.44069732930347527 70.009497869018190385759 343.48520036927192223
72.009497869018218807469 2531.09283944507842534 72.009497869018218807469 341.69653331788782680
74.009497869018190385759 2536.52309944697026367 74.009497869018190385759 340.12199306079969574
76.009497869018190385759 2541.75165397352884611 76.009497869018190385759 338.80825513834497542
78.009497869018190385759 2546.77008418586228800 78.009497869018190385759 337.08428250827495276
80.009497869018190385759 2551.57835623123946789 80.009497869018190385759 335.94839623388531891
82.009497869018218807469 2556.18118163660165010 82.009497869018218807469 334.90175628750824899
84.009497869018190385759 2560.59416353599272043 84.009497869018190385759 333.43267737432137210
86.009497869018190385759 2564.78119330488789274 86.009497869018190385759 331.82140112964327727
88.009497869018190385759 2568.78634857839142569 88.009497869018190385759 330.78568150371364709
91.009497869018218807469 2574.52759494398287643 91.009497869018218807469 329.87844248383618151
94.009497869018190385759 2580.02774136160405760 94.009497869018190385759 329.29091965125962815
97.009497869018190385759 2585.30553389865008285 97.009497869018190385759 329.26847325132888500
99.504748934509109403734 2589.52353998477838104 99.504748934509109403734 321.50115834829671257
nan nan nan nan

