Time Pressure difference Time.1 Pressure.1 difference.1
(hr) (psi) (hr) (psi)
0.000200000000006639311 0.18606753520518737 0.000200000000006639311 0.14859215672484002
0.000399999999999067768 0.37147875649197215 0.000399999999999067768 0.38639308589028365
0.000600000000005707079 0.55634773737303178 0.000600000000005707079 0.56414777268226457
0.000799999999998135536 0.74072722495153065 0.000799999999998135536 0.74441731787915755
0.001007140329434719206 0.93120842517028646 0.001007140329434719206 0.93293595350017677
0.001267914553963578328 1.17035563014297739 0.001267914553963578328 1.17095359539081767
0.001596209851982166583 1.47044540749718555 0.001596209851982166583 1.46884700861773787
0.002009509145210586212 1.84677350117513761 0.002009509145210586212 1.84126101188916014
0.002529822128138903281 2.31835980654964402 0.002529822128138903281 2.30621454463249131
0.003184857364445292660 2.90879674679691291 0.003184857364445292660 2.88577633502581499
0.004009497869020606231 3.64726513157381582 0.004009497869020606231 3.60682199013005755
0.005047658755842121536 4.56973076490621288 0.005047658755842121536 4.50185305812966785
0.006354625877804664924 5.72033684799357367 0.006354625877804664924 5.60983859106878224
0.008000000000009777068 7.15298715174865762 0.008000000000009777068 6.97700575912307297
0.010071403294347192059 8.93310101156485459 0.010071403294347192059 8.65746620636039665
0.012679145539692626699 11.13948269507622335 0.012679145539692626699 10.71347822583903131
0.015962098519750611558 13.86619378843556838 0.015962098519750611558 13.21509036098929535
0.020095091452091651263 17.22425353754957911 0.020095091452091651263 16.23881021076722675
0.025298221281346400247 21.34289114068647919 0.025298221281346400247 19.86478746941331508
0.031848573644282396344 26.36993888777346484 0.031848573644282396344 24.17189086563858069
0.040094978690191851456 32.47080366860467393 0.040094978690191851456 29.22993732115604359
0.050476587558421215363 39.82526350313398922 0.050476587558421215363 35.08894197561481576
0.063546258777947173257 48.62146573484285028 0.063546258777947173257 41.76391161407266850
0.079999999999998294697 59.04569415052821313 0.079999999999998294697 49.21643092369033923
0.100714032943542974863 71.26785935479958312 0.100714032943542974863 57.33544913640972140
0.126791455396897845276 85.42239350765767369 0.126791455396897845276 65.91648687099420556
0.159620985197506115583 101.58415530654508530 0.159620985197506115583 74.65263028236202558
0.200950914520774404082 119.74518961944518480 0.200950914520774404082 83.13687565593097872
0.252982212813464002465 139.79176496782113759 0.252982212813464002465 90.89196016714764426
0.318485736442795541734 161.49495725951223335 0.318485736442795541734 97.42669311817591904
0.400949786901819038576 184.51374711762568381 0.400949786901819038576 102.31640468442016356
0.504765875584169521062 208.42274686940479000 0.504765875584169521062 105.29417544633471948
0.635462587779443310865 232.75732461521829464 0.635462587779443310865 106.31602326922777024
0.799999999999997157829 257.07121630562937753 0.799999999999997157829 105.58123351486233332
1.007140329435330272645 280.99069644564303871 1.007140329435330272645 103.49375584768429803
1.267914553968893187630 304.25393247779391004 1.267914553968893187630 100.57261325687964870
1.596209851975103788391 326.72337121760574519 1.596209851975103788391 97.33959009081790725
2.009509145207687197399 348.37292784506638554 2.009509145207687197399 94.23263207246654360
2.529822128134711078928 369.26014231577454439 2.529822128134711078928 91.55200876687511879
3.184857364427983839050 389.48844885773928581 3.184857364427983839050 89.44955647104480079
4.009497869018190385759 409.17435986590123775 4.009497869018190385759 87.95207956652984649
5.009497869018190385759 427.79362282279407736 5.009497869018190385759 87.01586342273800767
6.009497869018190385759 442.75639030993391998 6.009497869018190385759 86.56634591446325544
7.009497869018204596614 455.24891297143420843 7.009497869018204596614 86.36060895191427278
8.009497869018190385759 465.95525287270459103 8.009497869018190385759 86.30881120724612288
9.009497869018204596614 475.31507781250843436 9.009497869018204596614 86.32473520390809085
10.009497869018190385759 483.60883865701845252 10.009497869018190385759 86.34638616225335284
11.009497869018190385759 491.05428346580055177 11.009497869018190385759 86.35278748888464406
12.009497869018190385759 497.78829694547243889 12.009497869018190385759 86.41931215480543926
13.009497869018190385759 503.92832657009671493 13.009497869018190385759 86.44906929357603076
14.009497869018204596614 509.57478589848875572 14.009497869018204596614 86.46360820339938869
15.009497869018190385759 514.78314388199692075 15.009497869018190385759 86.51822866239912457
16.009497869018190385759 519.61083053495804052 16.009497869018190385759 86.51856064327061802
17.009497869018190385759 524.11385154321726532 17.009497869018190385759 86.45482931083924427
18.009497869018190385759 528.32042584313921907 18.009497869018190385759 86.47756979155151669
19.009497869018204596614 532.25675945631724062 19.009497869018204596614 86.47433122609169232
20.009497869018190385759 535.95765234707960190 20.009497869018190385759 86.47572837510297461
21.009497869018204596614 539.46063074353105549 21.009497869018204596614 86.42727540261500963
22.009497869018190385759 542.77465179919192906 22.009497869018190385759 86.40497606722931323
23.009497869018190385759 545.91280605051179009 23.009497869018190385759 86.52695651011461564
24.009497869018190385759 548.88457380210820702 24.009497869018190385759 86.54201133284024650
25.009497869018190385759 551.71125813724108866 25.009497869018190385759 86.53970190601172874
26.009497869018204596614 554.41808958644026006 26.009497869018204596614 86.58270457871380188
27.009497869018190385759 557.00792820511662740 27.009497869018190385759 86.55633294810338896
28.009497869018190385759 559.48276452557172433 28.009497869018190385759 86.58710602770929654
29.009497869018190385759 561.85007535066392848 29.009497869018190385759 86.68692249002462802
30.009497869018190385759 564.11320749427807186 30.009497869018190385759 86.69239678750109590
31.009497869018190385759 566.28372677398249380 31.009497869018190385759 86.66068860045321287
32.009497869018190385759 568.37382481066117634 32.009497869018190385759 86.62125741227187348
33.009497869018190385759 570.38931156599051064 33.009497869018190385759 86.58635495895607903
34.009497869018190385759 572.33034199593316771 34.009497869018190385759 86.51813492749249690
35.009497869018190385759 574.19844555440568001 35.009497869018190385759 86.50178307299189839
36.009497869018190385759 575.99849818490645248 36.009497869018190385759 86.49938936439927772
37.009497869018190385759 577.73327086325787150 37.009497869018190385759 86.46705249351727218
38.009497869018190385759 579.40477435949162555 38.009497869018190385759 86.39046594991405925
39.009497869018190385759 581.01985935260609040 39.009497869018190385759 86.26990944870610178
40.009497869018190385759 582.58402474489844280 40.009497869018190385759 86.10213312462532542
41.009497869018190385759 584.10172294363667334 41.009497869018190385759 86.00571715410698914
42.009497869018190385759 585.57165647839553912 42.009497869018190385759 85.82407299453400640
43.009497869018190385759 586.99485938875693591 43.009497869018190385759 85.70273620229743017
44.009497869018218807469 588.37165543097376030 44.009497869018218807469 85.59472137520242541
46.009497869018190385759 590.99777847369750816 46.009497869018190385759 85.30146354369087192
48.009497869018190385759 593.45428108237547349 48.009497869018190385759 85.00175950712608142
50.009497869018190385759 595.76893401398115202 50.009497869018190385759 84.73744118965588257
52.009497869018190385759 597.96477151316594245 52.009497869018190385759 84.55099204968560400
54.009497869018190385759 600.04548853654557661 54.009497869018190385759 84.37422404512162188
56.009497869018190385759 602.01562619978426483 56.009497869018190385759 84.29699230835183243
58.009497869018218807469 603.88895311910766850 58.009497869018218807469 84.22697845012042706
60.009497869018190385759 605.68743545152869956 60.009497869018190385759 84.12804744931737844
62.009497869018190385759 607.40522912641324638 62.009497869018190385759 84.01498053353388684
64.009497869018190385759 609.04804049343351835 64.009497869018190385759 83.92291897574784798
66.009497869018190385759 610.61969171330088102 66.009497869018190385759 83.82143718623620998
68.009497869018190385759 612.12238701196088186 68.009497869018190385759 83.61237875563178079
70.009497869018190385759 613.55609132512370252 70.009497869018190385759 83.44976668407473142
72.009497869018218807469 614.92927986518179750 72.009497869018218807469 83.01520982994237841
74.009497869018190385759 616.24856212160671021 74.009497869018190385759 82.63267510370837954
76.009497869018190385759 617.51884001092230392 76.009497869018190385759 82.31350233296015517
78.009497869018190385759 618.73806817530714852 78.009497869018190385759 81.89466299550279871
80.009497869018190385759 619.90623839023601249 80.009497869018190385759 81.61869930194177414
82.009497869018218807469 621.02449532169066515 82.009497869018218807469 81.36441801345101510
84.009497869018190385759 622.09662975277910846 84.009497869018190385759 81.00750513215615456
86.009497869018190385759 623.11386908925703665 86.009497869018190385759 80.61604539375281320
88.009497869018190385759 624.08692199735321537 88.009497869018190385759 80.36441719829920771
91.009497869018218807469 625.48175842456839746 91.009497869018218807469 80.14400338002094770
94.009497869018190385759 626.81801959327469831 94.009497869018190385759 80.00126464412382177
97.009497869018190385759 628.10025986257892328 97.009497869018190385759 79.99581128882610415
99.504748934509109403734 629.12502489868802513 99.504748934509109403734 78.10874129069247829
nan nan nan nan

