Time Pressure difference Time.1 Pressure.1 difference.1
(hr) (psi) (hr) (psi)
0.000200000000006639311 0.11213891630669774 0.000200000000006639311 0.08955330874041698
0.000399999999999067768 0.22388228627864395 0.000399999999999067768 0.23287083301423345
0.000600000000005707079 0.33529885957749683 0.000600000000005707079 0.33999977371475770
0.000799999999998135536 0.44642042575203861 0.000799999999998135536 0.44864436568609944
0.001007140329434719206 0.56121936338387801 0.001007140329434719206 0.56226050768983871
0.001267914553963578328 0.70534825923795519 0.001267914553963578328 0.70570864007928735
0.001596209851982166583 0.88620593755410737 0.001596209851982166583 0.88524261680086880
0.002009509145210586212 1.11301081544037306 0.002009509145210586212 1.10968855627248497
0.002529822128138903281 1.39722577626875855 0.002529822128138903281 1.38990608716690311
0.003184857364445292660 1.75306946793563934 0.003184857364445292660 1.73919555905573686
0.004009497869020606231 2.19812853911814798 0.004009497869020606231 2.17375432440874006
0.005047658755842121536 2.75407880920686932 0.005047658755842121536 2.71317036985493409
0.006354625877804664924 3.44752443963898392 0.006354625877804664924 3.38092950801020375
0.008000000000009777068 4.31095207806280722 0.008000000000009777068 4.20489186375720880
0.010071403294347192059 5.38378855607703333 0.010071403294347192059 5.21766936544041737
0.012679145539692626699 6.71352751712183160 0.012679145539692626699 6.45678375217977329
0.015962098519750611558 8.35685786356607885 0.015962098519750611558 7.96445178006051346
0.020095091452091651263 10.38068851593389752 0.020095091452091651263 9.78678293952489220
0.025298221281346400247 12.86290314282443958 0.025298221281346400247 11.97208173379820373
0.031848573644282396344 15.89259709754204408 0.031848573644282396344 14.56788065563039325
0.040094978690191851456 19.56945756813228243 0.040094978690191851456 17.61625686766100785
0.050476587558421215363 24.00183291483521586 0.050476587558421215363 21.14735342280357244
0.063546258777947173257 29.30311550983832802 0.063546258777947173257 25.17021458883843721
0.079999999999998294697 35.58557459964870162 0.079999999999998294697 29.66168827990265910
0.100714032943542974863 42.95161166472296799 0.100714032943542974863 34.55484657774692892
0.126791455396897845276 51.48224608720440187 0.126791455396897845276 39.72645414100097838
0.159620985197506115583 61.22259359992672501 0.159620985197506115583 44.99154057195925560
0.200950914520774404082 72.16785981529062610 0.200950914520774404082 50.10481345335126235
0.252982212813464002465 84.24950120828506783 0.252982212813464002465 54.77863670787915851
0.318485736442795541734 97.32955013408103184 0.318485736442795541734 58.71698022747209933
0.400949786901819038576 111.20248152178332646 0.400949786901819038576 61.66390460891393133
0.504765875584169521062 125.61192333647163366 0.504765875584169521062 63.45854323774637606
0.635462587779443310865 140.27785188863603594 0.635462587779443310865 64.07438902386495272
0.799999999999997157829 154.93131339848198991 0.799999999999997157829 63.63154698440363433
1.007140329435330272645 169.34707151857949725 1.007140329435330272645 62.37346892605972926
1.267914553968893187630 183.36732537724188319 1.267914553968893187630 60.61295888249442498
1.596209851975103788391 196.90917461775345032 1.596209851975103788391 58.66448509937686140
2.009509145207687197399 209.95689847805340378 2.009509145207687197399 56.79198807938831806
2.529822128134711078928 222.54517505638199282 2.529822128134711078928 55.17643385503634335
3.184857364427983839050 234.73634194551252108 3.184857364427983839050 53.90933090888860590
4.009497869018190385759 246.60061866918155715 4.009497869018190385759 53.00683366732825164
5.009497869018190385759 257.82204946909462251 5.009497869018190385759 52.44259625923942991
6.009497869018190385759 266.83978880286196045 6.009497869018190385759 52.17168168952026264
7.009497869018204596614 274.36876451403401234 7.009497869018204596614 52.04768843084118402
8.009497869018190385759 280.82124615096034859 8.009497869018190385759 52.01647104008136324
9.009497869018204596614 286.46221207450287238 9.009497869018204596614 52.02606809164103652
10.009497869018190385759 291.46068401204234988 10.009497869018190385759 52.03911666028661642
11.009497869018190385759 295.94789405304942420 11.009497869018190385759 52.04297460267601139
12.009497869018190385759 300.00633967695881665 12.009497869018190385759 52.08306759329791902
13.009497869018190385759 303.70680395965649723 13.009497869018190385759 52.10100158318198282
14.009497869018204596614 307.10980400132132218 14.009497869018204596614 52.10976387258445186
15.009497869018190385759 310.24876975031065740 15.009497869018190385759 52.14268245278518066
16.009497869018190385759 313.15831304562203741 16.009497869018190385759 52.14288253054256472
17.009497869018190385759 315.87218731399252647 17.009497869018190385759 52.10447302215757759
18.009497869018190385759 318.40739950367770916 18.009497869018190385759 52.11817822258684885
19.009497869018204596614 320.77974342233403604 19.009497869018204596614 52.11622640858205102
20.009497869018190385759 323.01019226274888752 20.009497869018190385759 52.11706844035223440
21.009497869018204596614 325.12136227846741576 21.009497869018204596614 52.08786687211172506
22.009497869018190385759 327.11865175397730354 22.009497869018190385759 52.07442754051766798
23.009497869018190385759 329.00995007508521439 23.009497869018190385759 52.14794253957801118
24.009497869018190385759 330.80097081823487315 24.009497869018190385759 52.15701575863140249
25.009497869018190385759 332.50455289521227087 25.009497869018190385759 52.15562391656956720
26.009497869018204596614 334.13590220611354198 26.009497869018204596614 52.18154070592125748
27.009497869018190385759 335.69674244504801663 27.009497869018190385759 52.16564708925874072
28.009497869018190385759 337.18827326317938287 28.009497869018190385759 52.18419336491408700
29.009497869018190385759 338.61500076937335280 29.009497869018190385759 52.24435060782734297
30.009497869018190385759 339.97894201664081493 30.009497869018190385759 52.24764984961003478
31.009497869018190385759 341.28706747539121125 31.009497869018190385759 52.22854000473742531
32.009497869018190385759 342.54672477428243837 32.009497869018190385759 52.20477567257456286
33.009497869018190385759 343.76141545271747191 33.009497869018190385759 52.18374071187085406
34.009497869018190385759 344.93123289933470232 34.009497869018190385759 52.14262596076557088
35.009497869018190385759 346.05709888323553969 35.009497869018190385759 52.13277104845494136
36.009497869018190385759 347.14195203108198484 36.009497869018190385759 52.13132841157992203
37.009497869018190385759 348.18746235062417327 37.009497869018190385759 52.11183967243228210
38.009497869018190385759 349.19484168987219164 38.009497869018190385759 52.06568260374285018
39.009497869018190385759 350.16821880625815311 39.009497869018190385759 51.99302578381840334
40.009497869018190385759 351.11090777036287136 40.009497869018190385759 51.89191058850187233
41.009497869018190385759 352.02559195263813763 41.009497869018190385759 51.83380274912697416
42.009497869018190385759 352.91148939546161500 42.009497869018190385759 51.72432970652719320
43.009497869018190385759 353.76922329233116216 43.009497869018190385759 51.65120262192032641
44.009497869018218807469 354.59898876420294300 44.009497869018218807469 51.58610440023360155
46.009497869018190385759 356.18169684798738217 46.009497869018190385759 51.40936418927798002
48.009497869018190385759 357.66217833089592659 48.009497869018190385759 51.22873898866973974
50.009497869018190385759 359.05717005306900091 50.009497869018190385759 51.06944000269439954
52.009497869018190385759 360.38055426016700267 52.009497869018190385759 50.95707110137301754
54.009497869018190385759 361.63455782336450284 54.009497869018190385759 50.85053681290811767
56.009497869018190385759 362.82191757576282498 56.009497869018190385759 50.80399090012275565
58.009497869018218807469 363.95093156731934414 58.009497869018218807469 50.76179504806365372
60.009497869018190385759 365.03483833016241533 60.009497869018190385759 50.70217145382967061
62.009497869018190385759 366.07011576815085618 62.009497869018190385759 50.63402844654944346
64.009497869018190385759 367.06020297595324564 64.009497869018190385759 50.57854491841946754
66.009497869018190385759 368.00740348792692203 66.009497869018190385759 50.51738401849057425
68.009497869018190385759 368.91304574381575776 68.009497869018190385759 50.39138898218880058
70.009497869018190385759 369.77710861112359453 70.009497869018190385759 50.29338617120576060
72.009497869018218807469 370.60469991874794005 72.009497869018218807469 50.03148806715277175
74.009497869018190385759 371.39980306436115143 74.009497869018190385759 49.80094258482424863
76.009497869018190385759 372.16537232801124446 76.009497869018190385759 49.60858399531080920
78.009497869018190385759 372.90017501636810948 78.009497869018190385759 49.35615850175392438
80.009497869018190385759 373.60420617268687238 80.009497869018190385759 49.18984109715241004
82.009497869018218807469 374.27815566262603397 82.009497869018218807469 49.03659121346378669
84.009497869018190385759 374.92430810993386103 84.009497869018190385759 48.82148746804054440
86.009497869018190385759 375.53737646004327644 86.009497869018190385759 48.58556307212781178
88.009497869018190385759 376.12381459661912686 88.009497869018190385759 48.43391215076067624
91.009497869018218807469 376.96445262194976067 91.009497869018218807469 48.30107346563762150
94.009497869018190385759 377.76978859416107071 94.009497869018190385759 48.21504788819962073
97.009497869018190385759 378.54256732789349371 97.009497869018190385759 48.21176126781930549
99.504748934509109403734 379.16017125590576597 99.504748934509109403734 47.07446461715841224
nan nan nan nan

