Time Pressure difference Time.1 Pressure.1 difference.1
(hr) (psi) (hr) (psi)
0.000200000000006639311 0.73513289578835184 0.000200000000006639311 0.58707169063162246
0.000399999999999067768 1.46767276560444371 0.000399999999999067768 1.52659768309330812
0.000600000000005707079 2.19807030167470119 0.000600000000005707079 2.22888740546341158
0.000799999999998135536 2.92653390215225295 0.000799999999998135536 2.94111306394220717
0.001007140329434719206 3.67910471551653373 0.001007140329434719206 3.68592999485560924
0.001267914553963578328 4.62394969944881673 0.001267914553963578328 4.62631219607532795
0.001596209851982166583 5.80957225729914750 0.001596209851982166583 5.80325715458347346
0.002009509145210586212 7.29640423455355691 0.002009509145210586212 7.27462498000851276
0.002529822128138903281 9.15959119998408511 0.002529822128138903281 9.11160657142747610
0.003184857364445292660 11.49234428980030209 0.003184857364445292660 11.40139310936538664
0.004009497869020606231 14.40995375644119214 0.004009497869020606231 14.25016723779062922
0.005047658755842121536 18.05451663813392216 0.005047658755842121536 17.78633909127123403
0.006354625877804664924 22.60043799318889768 0.006354625877804664924 22.16387121917800229
0.008000000000009777068 28.26068584507840598 0.008000000000009777068 27.56540221796392487
0.010071403294347192059 35.29372497872721937 0.010071403294347192059 34.20472139566496139
0.012679145539692626699 44.01090261224312172 0.012679145539692626699 42.32780459762295777
0.015962098519750611558 54.78384599448873615 0.015962098519750611558 52.21140611373002827
0.020095091452091651263 68.05118027112220602 0.020095091452091651263 64.15779927021874585
0.025298221281346400247 84.32347615851577416 0.025298221281346400247 78.48364692156599176
0.031848573644282396344 104.18480319499782638 0.031848573644282396344 95.50055096468813076
0.040094978690191851456 128.28866627997831529 0.040094978690191851456 115.48435057688882921
0.050476587558421215363 157.34534910836418931 0.050476587558421215363 138.63265021615674755
0.063546258777947173257 192.09820167560681625 0.063546258777947173257 165.00474008238529677
0.079999999999998294697 233.28321126436370037 0.079999999999998294697 194.44884539047296812
0.100714032943542974863 281.57167646873944022 0.100714032943542974863 226.52621645411875306
0.126791455396897845276 337.49472434945107580 0.126791455396897845276 260.42897714656197650
0.159620985197506115583 401.34811359951964960 0.159620985197506115583 294.94454374951067166
0.200950914520774404082 473.10041434468297439 0.200950914520774404082 328.46488819419164429
0.252982212813464002465 552.30228569875760058 0.252982212813464002465 359.10439619609672945
0.318485736442795541734 638.04927310119796857 0.318485736442795541734 384.92242593565038078
0.400949786901819038576 728.99404553169063092 0.400949786901819038576 404.24115243621361060
0.504765875584169521062 823.45594187242511452 0.504765875584169521062 416.00600566967062832
0.635462587779443310865 919.59925126994733091 0.635462587779443310865 420.04321693422576800
0.799999999999997157829 1015.66083227893750518 0.799999999999997157829 417.14014134220167307
1.007140329435330272645 1110.16413551068785637 1.007140329435330272645 408.89274073750272009
1.267914553968893187630 1202.07468858414131319 1.267914553968893187630 397.35161934079678758
1.596209851975103788391 1290.84903360527255245 1.596209851975103788391 384.57829120702609771
2.009509145207687197399 1376.38411224501669494 2.009509145207687197399 372.30303296487898024
2.529822128134711078928 1458.90725870294863853 2.529822128134711078928 361.71217749412716103
3.184857364427983839050 1538.82713053169322848 3.184857364427983839050 353.40561373604748496
4.009497869018190385759 1616.60405572019021747 4.009497869018190385759 347.48924293026300347
5.009497869018190385759 1690.16676874184236112 5.009497869018190385759 343.79035325501405396
6.009497869018190385759 1749.28305992987293394 6.009497869018190385759 342.01435774241059562
7.009497869018204596614 1798.63967848088964274 7.009497869018204596614 341.20151304662556413
8.009497869018190385759 1840.93928032296230413 8.009497869018190385759 340.99686570720001555
9.009497869018204596614 1877.91894582174109019 9.009497869018204596614 341.05977971186899822
10.009497869018190385759 1910.68670630116662323 10.009497869018190385759 341.14532032854555155
11.009497869018190385759 1940.10286101443512052 11.009497869018190385759 341.17061128420937166
12.009497869018190385759 1966.70822677117462263 12.009497869018190385759 341.43344311161968108
13.009497869018190385759 1990.96682595774814217 13.009497869018190385759 341.55101037863744295
14.009497869018204596614 2013.27538178643953870 14.009497869018204596614 341.60845205360914179
15.009497869018190385759 2033.85304614092547126 15.009497869018190385759 341.82425163492507636
16.009497869018190385759 2052.92671885463323633 16.009497869018190385759 341.82556325577905909
17.009497869018190385759 2070.71767239172868358 17.009497869018190385759 341.57376758969968478
18.009497869018190385759 2087.33739674633125105 18.009497869018190385759 341.66361279251378846
19.009497869018204596614 2102.88942910196738012 19.009497869018204596614 341.65081756737123442
20.009497869018190385759 2117.51126038913162120 20.009497869018190385759 341.65633755342020095
21.009497869018204596614 2131.35115271439735807 21.009497869018204596614 341.46490505051019682
22.009497869018190385759 2144.44449483162907200 22.009497869018190385759 341.37680276561582104
23.009497869018190385759 2156.84300604778081834 23.009497869018190385759 341.85873442612250983
24.009497869018190385759 2168.58414203065103720 24.009497869018190385759 341.91821441769474177
25.009497869018190385759 2179.75206897972475417 25.009497869018190385759 341.90909011973383258
26.009497869018204596614 2190.44647001785551765 26.009497869018204596614 342.07898907215042072
27.009497869018190385759 2200.67864491753698530 27.009497869018190385759 341.97479758514066361
28.009497869018190385759 2210.45645805862022826 28.009497869018190385759 342.09637872554787918
29.009497869018190385759 2219.80944948811429640 29.009497869018190385759 342.49074287353482759
30.009497869018190385759 2228.75084210908971727 30.009497869018190385759 342.51237123633245574
31.009497869018190385759 2237.32633122756442390 31.009497869018190385759 342.38709558661201982
32.009497869018190385759 2245.58408463140676758 32.009497869018190385759 342.23130718687770013
33.009497869018190385759 2253.54705685670342064 33.009497869018190385759 342.09341133337557039
34.009497869018190385759 2261.21586011786075687 34.009497869018190385759 341.82388129835203472
35.009497869018190385759 2268.59653712343288134 35.009497869018190385759 341.75927687320461246
36.009497869018190385759 2275.70835220375965946 36.009497869018190385759 341.74981958702392149
37.009497869018190385759 2282.56225318742508534 37.009497869018190385759 341.62206007483388248
38.009497869018190385759 2289.16618441138416529 38.009497869018190385759 341.31947484675868054
39.009497869018190385759 2295.54721217435871949 39.009497869018190385759 340.84316902725396403
40.009497869018190385759 2301.72706205015674641 40.009497869018190385759 340.18030274684559799
41.009497869018190385759 2307.72332502284962175 41.009497869018190385759 339.79937357761019712
42.009497869018190385759 2313.53087492580380058 42.009497869018190385759 339.08171696501159431
43.009497869018190385759 2319.15379713861557320 43.009497869018190385759 338.60232829925547549
44.009497869018218807469 2324.59337078755288530 44.009497869018218807469 338.17557329042028869
46.009497869018190385759 2334.96890155902838160 46.009497869018190385759 337.01694301860010228
48.009497869018190385759 2344.67428016920666778 48.009497869018190385759 335.83284448127938049
50.009497869018190385759 2353.81922590345220669 50.009497869018190385759 334.78855112877442934
52.009497869018190385759 2362.49474459442808438 52.009497869018190385759 334.05191055344533879
54.009497869018190385759 2370.71543461983401357 54.009497869018190385759 333.35351910684209997
56.009497869018190385759 2378.49923744111220003 56.009497869018190385759 333.04838478969361404
58.009497869018218807469 2385.90055138576008176 58.009497869018218807469 332.77176753730617520
60.009497869018190385759 2393.00616238662041724 60.009497869018190385759 332.38090175288334649
62.009497869018190385759 2399.79298114676657860 62.009497869018190385759 331.93418648293527440
64.009497869018190385759 2406.28355284236022271 64.009497869018190385759 331.57046113186095226
66.009497869018190385759 2412.49297842085434240 66.009497869018190385759 331.16951745454935008
68.009497869018190385759 2418.42996654279204449 68.009497869018190385759 330.34354999434879119
70.009497869018190385759 2424.09437867292126612 70.009497869018190385759 329.70108712234889481
72.009497869018218807469 2429.51969946734789119 72.009497869018218807469 327.98419955133482517
74.009497869018190385759 2434.73204231081217586 74.009497869018190385759 326.47284583384782763
76.009497869018190385759 2439.75077415029591066 76.009497869018190385759 325.21182841370421102
78.009497869018190385759 2444.56781399619103468 78.009497869018190385759 323.55703906705349482
80.009497869018190385759 2449.18312935428048149 80.009497869018190385759 322.46673608133244215
82.009497869018218807469 2453.60124267721494107 82.009497869018218807469 321.46209795492927697
84.009497869018190385759 2457.83713094289987566 84.009497869018190385759 320.05197340159912756
86.009497869018190385759 2461.85613457139470484 86.009497869018190385759 318.50535791728231061
88.009497869018190385759 2465.70056235561423819 88.009497869018190385759 317.51120187720886179
91.009497869018218807469 2471.21141163278161912 91.009497869018218807469 316.64037049695770065
94.009497869018190385759 2476.49083633950021976 94.009497869018190385759 316.07642504486420876
97.009497869018190385759 2481.55683026063525176 97.009497869018190385759 316.05487942237095922
99.504748934509109403734 2485.60556712204879659 99.504748934509109403734 308.59926804581630222
nan nan nan nan

