Time Pressure difference Time.1 Pressure.1 difference.1
(hr) (psi) (hr) (psi)
0.000200000000006639311 0.42031327149028930 0.000200000000006639311 0.33565906831593328
0.000399999999999067768 0.83914397671847285 0.000399999999999067768 0.87283438152001569
0.000600000000005707079 1.25674979960158084 0.000600000000005707079 1.27436952221975863
0.000799999999998135536 1.67324989207801145 0.000799999999998135536 1.68158554842345431
0.001007140329434719206 2.10353331757216511 0.001007140329434719206 2.10743568067450626
0.001267914553963578328 2.64374977166226177 0.001267914553963578328 2.64510053244532894
0.001596209851982166583 3.32163114372132107 0.001596209851982166583 3.31802047482399720
0.002009509145210586212 4.17172942676169445 0.002009509145210586212 4.15927710721390653
0.002529822128138903281 5.23700920586660601 0.002529822128138903281 5.20957392671446673
0.003184857364445292660 6.57076407981802646 0.003184857364445292660 6.51876261394224343
0.004009497869020606231 8.23891141328728160 0.004009497869020606231 8.14755324556164773
0.005047658755842121536 10.32269538858278501 0.005047658755842121536 10.16936449738219750
0.006354625877804664924 12.92183234412834025 0.006354625877804664924 12.67222467446787526
0.008000000000009777068 16.15808704814652330 0.008000000000009777068 15.76055765230479722
0.010071403294347192059 20.17923710648132385 0.010071403294347192059 19.55659776972482433
0.012679145539692626699 25.16329573084182769 0.012679145539692626699 24.20098206372566807
0.015962098519750611558 31.32274132566249136 0.015962098519750611558 29.85194519044903316
0.020095091452091651263 38.90835843750038237 0.020095091452091651263 36.68231235110811639
0.025298221281346400247 48.21206659458641752 0.025298221281346400247 44.87313598001400550
0.031848573644282396344 59.56780838041683523 0.031848573644282396344 54.60257490184429230
0.040094978690191851456 73.34922614425877896 0.040094978690191851456 66.02834055582570727
0.050476587558421215363 89.96242559190088173 0.050476587558421215363 79.26341356991561327
0.063546258777947173257 109.83241813317181368 0.063546258777947173257 94.34169319964628642
0.079999999999998294697 133.38000553646105573 0.079999999999998294697 111.17640199726479011
0.100714032943542974863 160.98900372110981039 0.100714032943542974863 129.51668420992552910
0.126791455396897845276 192.96308533426241638 0.126791455396897845276 148.90063552108514955
0.159620985197506115583 229.47135082639201187 0.159620985197506115583 168.63495947712135603
0.200950914520774404082 270.49583012249672720 0.200950914520774404082 187.80026375848694897
0.252982212813464002465 315.77961193623883673 0.252982212813464002465 205.31844573471741455
0.318485736442795541734 364.80557309514813369 0.318485736442795541734 220.07994070445096213
0.400949786901819038576 416.80337518535083063 0.400949786901819038576 231.12544986748486053
0.504765875584169521062 470.81209783892330734 0.504765875584169521062 237.85202132073825965
0.635462587779443310865 525.78217078259137907 0.635462587779443310865 240.16030256352343031
0.799999999999997157829 580.70551540468068197 0.799999999999997157829 238.50046499339438810
1.007140329435330272645 634.73791250667568420 1.007140329435330272645 233.78500204878685054
1.267914553968893187630 687.28790104358813551 1.267914553968893187630 227.18634958920131339
1.596209851975103788391 738.04475819691288052 1.596209851975103788391 219.88318118729401363
2.009509145207687197399 786.94956022144458530 2.009509145207687197399 212.86478494941104600
2.529822128134711078928 834.13228576688356952 2.529822128134711078928 206.80944837517324686
3.184857364427983839050 879.82658536614326295 3.184857364427983839050 202.06015881405653545
4.009497869018190385759 924.29565219708047152 4.009497869018190385759 198.67746544939328146
5.009497869018190385759 966.35523726934718525 5.009497869018190385759 196.56262005314926000
6.009497869018190385759 1000.15506025369006693 6.009497869018190385759 195.54719211035001081
7.009497869018204596614 1028.37477662297192182 7.009497869018204596614 195.08244700744918987
8.009497869018190385759 1052.55963372137739498 8.009497869018190385759 194.96543960208273916
9.009497869018204596614 1073.70280970146995969 9.009497869018204596614 195.00141077311380400
10.009497869018190385759 1092.43782303772900377 10.009497869018190385759 195.05031874151873694
11.009497869018190385759 1109.25655104328166090 11.009497869018190385759 195.06477888114119423
12.009497869018190385759 1124.46820649289747962 12.009497869018190385759 195.21505334969441492
13.009497869018190385759 1138.33809484137918844 13.009497869018190385759 195.28227260066728377
14.009497869018204596614 1151.09304314569317285 14.009497869018204596614 195.31511495946469381
15.009497869018190385759 1162.85835180486810714 15.009497869018190385759 195.43849867488373206
16.009497869018190385759 1173.76375111914626359 16.009497869018190385759 195.43924859595955468
17.009497869018190385759 1183.93575393244600491 17.009497869018190385759 195.29528406823504838
18.009497869018190385759 1193.43810480637716864 18.009497869018190385759 195.34665318984403370
19.009497869018204596614 1202.33000127185960082 19.009497869018204596614 195.33933750179642175
20.009497869018190385759 1210.69005396259944973 20.009497869018190385759 195.34249356161652145
21.009497869018204596614 1218.60303194744096800 21.009497869018204596614 195.23304175769283120
22.009497869018190385759 1226.08916879638900355 22.009497869018190385759 195.18266915186620736
23.009497869018190385759 1233.17803509624536673 23.009497869018190385759 195.45821425945536021
24.009497869018190385759 1239.89104617797647734 24.009497869018190385759 195.49222202864805809
25.009497869018190385759 1246.27632418501775646 25.009497869018190385759 195.48700519840150491
26.009497869018204596614 1252.39086308365517652 26.009497869018204596614 195.58414516441595765
27.009497869018190385759 1258.24112353477266879 27.009497869018190385759 195.52457353455497469
28.009497869018190385759 1263.83160200865768275 28.009497869018190385759 195.59408772330763782
29.009497869018190385759 1269.17918806891043459 29.009497869018190385759 195.81956598193065133
30.009497869018190385759 1274.29144192903891053 30.009497869018190385759 195.83193202890871021
31.009497869018190385759 1279.19448994479967041 31.009497869018190385759 195.76030549923805779
32.009497869018190385759 1283.91587211694013604 32.009497869018190385759 195.67123326164983155
33.009497869018190385759 1288.46871273388933332 33.009497869018190385759 195.59239111264184885
34.009497869018190385759 1292.85336183009894739 34.009497869018190385759 195.43828693442500821
35.009497869018190385759 1297.07327433272007511 35.009497869018190385759 195.40134926309778507
36.009497869018190385759 1301.13946464983314399 36.009497869018190385759 195.39594204636622976
37.009497869018190385759 1305.05819221789511175 37.009497869018190385759 195.32289536482025483
38.009497869018190385759 1308.83399922278022132 38.009497869018190385759 195.14989183328802369
39.009497869018190385759 1312.48236085901203296 39.009497869018190385759 194.87756330823785333
40.009497869018190385759 1316.01569875410086752 40.009497869018190385759 194.49856857616256889
41.009497869018190385759 1319.44407057803618954 41.009497869018190385759 194.28077178561665050
42.009497869018190385759 1322.76454543780414497 42.009497869018190385759 193.87045060372415151
43.009497869018190385759 1325.97945915495984082 43.009497869018190385759 193.59635945697544912
44.009497869018218807469 1329.08954307175326903 44.009497869018218807469 193.35236167791262574
46.009497869018190385759 1335.02176744504890848 46.009497869018190385759 192.68991318351598352
48.009497869018190385759 1340.57083137358040403 48.009497869018190385759 192.01290317234733607
50.009497869018190385759 1345.79946701372523421 50.009497869018190385759 191.41582697306196792
52.009497869018190385759 1350.75970707884812327 52.009497869018190385759 190.99465168366478451
54.009497869018190385759 1355.45989821201806080 54.009497869018190385759 190.59534538764080480
56.009497869018190385759 1359.91029846915535018 56.009497869018190385759 190.42088441083046746
58.009497869018218807469 1364.14201017084133127 58.009497869018218807469 190.26272810607562747
60.009497869018190385759 1368.20465329675698740 60.009497869018190385759 190.03925004176159064
62.009497869018190385759 1372.08502650877289852 62.009497869018190385759 189.78383995521494398
64.009497869018190385759 1375.79602004320258857 64.009497869018190385759 189.57587947200187273
66.009497869018190385759 1379.34626788808168385 66.009497869018190385759 189.34663935819429526
68.009497869018190385759 1382.74074923237617440 68.009497869018190385759 188.87439129620395306
70.009497869018190385759 1385.97938486835960248 70.009497869018190385759 188.50706224170454561
72.009497869018218807469 1389.08131969545524953 72.009497869018218807469 187.52542934799484442
74.009497869018190385759 1392.06148407827208757 74.009497869018190385759 186.66131072534125224
76.009497869018190385759 1394.93095109610135296 76.009497869018190385759 185.94032223427606709
78.009497869018190385759 1397.68510043172045698 78.009497869018190385759 184.99419408805545118
80.009497869018190385759 1400.32391350651528228 80.009497869018190385759 184.37081181599347701
82.009497869018218807469 1402.84997603917622655 82.009497869018218807469 183.79640854824202734
84.009497869018190385759 1405.27185113797440863 84.009497869018190385759 182.99016784317419138
86.009497869018190385759 1407.56972213912513325 86.009497869018190385759 182.10588825553091397
88.009497869018190385759 1409.76777915473530811 88.009497869018190385759 181.53747813544370615
91.009497869018218807469 1412.91861501264133949 91.009497869018218807469 181.03957906379730503
94.009497869018190385759 1415.93713354552232886 94.009497869018190385759 180.71714245502968765
97.009497869018190385759 1418.83362272528961512 97.009497869018190385759 180.70482371493753249
99.504748934509109403734 1421.14849374435789287 99.504748934509109403734 176.44206737986783651
nan nan nan nan

