Time Pressure difference Time.1 Pressure.1 difference.1
(hr) (psi) (hr) (psi)
0.000200000000006639311 0.60222751349893233 0.000200000000006639311 0.48093443582816525
0.000399999999999067768 1.20233079668160636 0.000399999999999067768 1.25060262174310544
0.000600000000005707079 1.80067906069396444 0.000600000000005707079 1.82592471069036555
0.000799999999998135536 2.39744302718687363 0.000799999999998135536 2.40938640831423800
0.001007140329434719206 3.01395584039490050 0.001007140329434719206 3.01954717092691149
0.001267914553963578328 3.78798139220383367 0.001267914553963578328 3.78991677079617295
0.001596209851982166583 4.75925410908687230 0.001596209851982166583 4.75408071985651759
0.002009509145210586212 5.97728030514274433 0.002009509145210586212 5.95943854294482644
0.002529822128138903281 7.50361990959148084 0.002529822128138903281 7.46431046811855392
0.003184857364445292660 9.41463232780250792 0.003184857364445292660 9.34012429863266114
0.004009497869020606231 11.80476437674560941 0.004009497869020606231 11.67386581626915998
0.005047658755842121536 14.79042323462948438 0.005047658755842121536 14.57072976403575737
0.006354625877804664924 18.51448310176491319 0.006354625877804664924 18.15684365412887047
0.008000000000009777068 23.15140930811507403 0.008000000000009777068 22.58182667573315783
0.010071403294347192059 28.91293854189517631 0.010071403294347192059 28.02081696255038779
0.012679145539692626699 36.05412925861724460 0.012679145539692626699 34.67532015059507700
0.015962098519750611558 44.87942185989190591 0.015962098519750611558 42.77205585588053793
0.020095091452091651263 55.74814203001537294 0.020095091452091651263 52.55864911967071862
0.025298221281346400247 69.07855391516828547 0.025298221281346400247 64.29451301484220949
0.031848573644282396344 85.34913256087394018 0.031848573644282396344 78.23491463208914354
0.040094978690191851456 105.09523508811781767 0.040094978690191851456 94.60582391892022258
0.050476587558421215363 128.89873232041134088 0.050476587558421215363 113.56912023357473629
0.063546258777947173257 157.36858329357622210 0.063546258777947173257 135.17337464376197431
0.079999999999998294697 191.10771544255783283 0.079999999999998294697 159.29425187355130333
0.100714032943542974863 230.66606264388261138 0.100714032943542974863 185.57232421382610710
0.126791455396897845276 276.47872898683846188 0.126791455396897845276 213.34577223870894613
0.159620985197506115583 328.78800266627314386 0.159620985197506115583 241.62123640496636767
0.200950914520774404082 387.56813604507925675 0.200950914520774404082 269.08140558281229460
0.252982212813464002465 452.45102500745684893 0.252982212813464002465 294.18156750527697341
0.318485736442795541734 522.69573220154620685 0.318485736442795541734 315.33193085123900801
0.400949786901819038576 597.19851187624385602 0.400949786901819038576 331.15800623305636918
0.504765875584169521062 674.58255125142170527 0.504765875584169521062 340.79588035086010223
0.635462587779443310865 753.34401940193424707 0.635462587779443310865 344.10320031334879332
0.799999999999997157829 832.03853491777363161 0.799999999999997157829 341.72497454587141874
1.007140329435330272645 909.45649519237133518 1.007140329435330272645 334.96862941772820932
1.267914553968893187630 984.75045110000280602 1.267914553968893187630 325.51403844302558355
1.596209851975103788391 1057.47519702126851371 1.596209851975103788391 315.05001257072757426
2.009509145207687197399 1127.54630664139790497 2.009509145207687197399 304.99401005597434278
2.529822128134711078928 1195.15001419168106622 2.529822128134711078928 296.31788551778777219
3.184857364427983839050 1260.62109563330795936 3.184857364427983839050 289.51307339958697185
4.009497869018190385759 1324.33665581597506389 4.009497869018190385759 284.66632895417023974
5.009497869018190385759 1384.59989529698964361 5.009497869018190385759 281.63616509591548720
6.009497869018190385759 1433.02849542277726869 6.009497869018190385759 280.18125351779400489
7.009497869018204596614 1473.46188350129364153 7.009497869018204596614 279.51536379525816756
8.009497869018190385759 1508.11409969960186572 8.009497869018190385759 279.34771484488140914
9.009497869018204596614 1538.40817595566363707 9.009497869018204596614 279.39925456622034972
10.009497869018190385759 1565.25182154615322361 10.009497869018190385759 279.46933021265033403
11.009497869018190385759 1589.34980139600611437 11.009497869018190385759 279.49004879214896846
12.009497869018190385759 1611.14515752440843244 12.009497869018190385759 279.70536300104436123
13.009497869018190385759 1631.01802126482198219 13.009497869018190385759 279.80167516894027813
14.009497869018204596614 1649.29339185894787079 14.009497869018204596614 279.84873190832394130
15.009497869018190385759 1666.15080051092741087 15.009497869018190385759 280.02551687606859332
16.009497869018190385759 1681.77612561537739566 16.009497869018190385759 280.02659136772859938
17.009497869018190385759 1696.35063557514513377 17.009497869018190385759 279.82031808195733902
18.009497869018190385759 1709.96566400123219864 18.009497869018190385759 279.89392008426267466
19.009497869018204596614 1722.70602949031240314 19.009497869018204596614 279.88343812016285028
20.009497869018190385759 1734.68436585550330165 20.009497869018190385759 279.88796014263238021
21.009497869018204596614 1746.02213075473241588 21.009497869018204596614 279.73113690578520618
22.009497869018190385759 1756.74831497506329470 22.009497869018190385759 279.65896271759487490
23.009497869018190385759 1766.90528744027255925 23.009497869018190385759 280.05376549032632738
24.009497869018190385759 1776.52373217200215549 24.009497869018190385759 280.10249203709457788
25.009497869018190385759 1785.67259888169542137 25.009497869018190385759 280.09501732972546506
26.009497869018204596614 1794.43354888468388708 26.009497869018204596614 280.23420008735490683
27.009497869018190385759 1802.81583905673937807 27.009497869018190385759 280.14884547935247383
28.009497869018190385759 1810.82591196892644803 28.009497869018190385759 280.24844584861267549
29.009497869018190385759 1818.48796709478278899 29.009497869018190385759 280.57151252351724224
30.009497869018190385759 1825.81283675603390293 30.009497869018190385759 280.58923067383165062
31.009497869018190385759 1832.83795496043421736 31.009497869018190385759 280.48660372914542904
32.009497869018190385759 1839.60278119522058660 32.009497869018190385759 280.35898046382635584
33.009497869018190385759 1846.12612002385299093 33.009497869018190385759 280.24601493412126274
34.009497869018190385759 1852.40847297790855919 34.009497869018190385759 280.02521349300030806
35.009497869018190385759 1858.45479029885768796 35.009497869018190385759 279.97228896392471142
36.009497869018190385759 1864.28085350025503431 36.009497869018190385759 279.96454146959587206
37.009497869018190385759 1869.89563114224097262 37.009497869018190385759 279.85987972232152288
38.009497869018190385759 1875.30563129746178674 38.009497869018190385759 279.61199916824864431
39.009497869018190385759 1880.53302692249735628 39.009497869018190385759 279.22180513532106261
40.009497869018190385759 1885.59561580380068335 40.009497869018190385759 278.67877908639894713
41.009497869018190385759 1890.50780863453815073 41.009497869018190385759 278.36671846753375803
42.009497869018190385759 1895.26540601266424346 42.009497869018190385759 277.77880768320159177
43.009497869018190385759 1899.87175471807472604 43.009497869018190385759 277.38608815475731717
44.009497869018218807469 1904.32790262257140057 44.009497869018218807469 277.03648659384708708
46.009497869018190385759 1912.82763122067285622 46.009497869018190385759 276.08732620167802452
48.009497869018190385759 1920.77836511036707634 48.009497869018190385759 275.11730197618931015
50.009497869018190385759 1928.26998732203719555 50.009497869018190385759 274.26180742187733586
52.009497869018190385759 1935.37705065645241120 52.009497869018190385759 273.65834480366987691
54.009497869018190385759 1942.11151423658702697 54.009497869018190385759 273.08621621746954133
56.009497869018190385759 1948.48807586983753026 56.009497869018190385759 272.83624742658514606
58.009497869018218807469 1954.55129915782617900 58.009497869018218807469 272.60964007293443956
60.009497869018190385759 1960.37227992124257980 60.009497869018190385759 272.28943928908523731
62.009497869018190385759 1965.93210319932859420 62.009497869018190385759 271.92348610183961455
64.009497869018190385759 1971.24923820419326148 64.009497869018190385759 271.62551900632678326
66.009497869018190385759 1976.33605576849640784 66.009497869018190385759 271.29706232152346956
68.009497869018190385759 1981.19969010567729129 68.009497869018190385759 270.62042231175462348
70.009497869018190385759 1985.84002772640451440 70.009497869018190385759 270.09411091943837846
72.009497869018218807469 1990.28449956364624995 72.009497869018218807469 268.68762110137595300
74.009497869018190385759 1994.55449793823572691 74.009497869018190385759 267.44950647405613608
76.009497869018190385759 1998.66588842820851823 76.009497869018190385759 266.41646960444688830
78.009497869018190385759 2002.61205101382870453 78.009497869018190385759 265.06085121312293040
80.009497869018190385759 2006.39295907554060250 80.009497869018190385759 264.16766515137408078
82.009497869018218807469 2010.01231744743586205 82.009497869018218807469 263.34465651674997844
84.009497869018190385759 2013.48239540520035007 84.009497869018190385759 262.18946973577328663
86.009497869018190385759 2016.77479950763995475 86.009497869018190385759 260.92246835031602359
88.009497869018190385759 2019.92418950036199021 88.009497869018190385759 260.10804673556663147
91.009497869018218807469 2024.43872704380396499 91.009497869018218807469 259.39465379694280500
94.009497869018190385759 2028.76367948716119827 94.009497869018190385759 258.93266458477575043
97.009497869018190385759 2032.91378750165017664 97.009497869018190385759 258.91501421606665190
99.504748934509109403734 2036.23054933727166826 99.504748934509109403734 252.80730998103589968
nan nan nan nan

