Time Pressure difference Time.1 Pressure.1 difference.1
(hr) (psi) (hr) (psi)
0.000200000000006639311 0.42695854060476029 0.000200000000006639311 0.34096593105610612
0.000399999999999067768 0.85241107516461478 0.000399999999999067768 0.88663413458752582
0.000600000000005707079 1.27661936165061740 0.000600000000005707079 1.29451765695841070
0.000799999999998135536 1.69970443582628028 0.000799999999998135536 1.70817188120485253
0.001007140329434719206 2.13679076132824664 0.001007140329434719206 2.14075482187094135
0.001267914553963578328 2.68554818702451081 0.001267914553963578328 2.68692030370928636
0.001596209851982166583 3.37414705113193492 0.001596209851982166583 3.37047929656034473
0.002009509145210586212 4.23768562323223463 0.002009509145210586212 4.22503642906709054
0.002529822128138903281 5.31980777038623653 0.002529822128138903281 5.29193873187991226
0.003184857364445292660 6.67464967791791519 0.003184857364445292660 6.62182605447887962
0.004009497869020606231 8.36917088227205852 0.004009497869020606231 8.27636831663772021
0.005047658755842121536 10.48590005875800557 0.005047658755842121536 10.33014496374397062
0.006354625877804664924 13.12613008869953823 0.006354625877804664924 12.87257605272033167
0.008000000000009777068 16.41355087499469079 0.008000000000009777068 16.00973642941633557
0.010071403294347192059 20.49827642832292440 0.010071403294347192059 19.86579299138055177
0.012679145539692626699 25.56113439852311942 0.012679145539692626699 24.58360628607706033
0.015962098519750611558 31.81796253239232541 0.015962098519750611558 30.32391270334150946
0.020095091452091651263 39.52351034955572828 0.020095091452091651263 37.26226985863551988
0.025298221281346400247 48.97431270675379267 0.025298221281346400247 45.58259267535019887
0.031848573644282396344 60.50959191212303523 0.031848573644282396344 55.46585671847423527
0.040094978690191851456 74.50889770385180100 0.040094978690191851456 67.07226688872412979
0.050476587558421215363 91.38475643129852699 0.050476587558421215363 80.51659006904471028
0.063546258777947173257 111.56889905227333770 0.063546258777947173257 95.83326147157745822
0.079999999999998294697 135.48878032755135337 0.079999999999998294697 112.93413167311086909
0.100714032943542974863 163.53428441235263335 0.100714032943542974863 131.56437882194015287
0.126791455396897845276 196.01388510239303287 0.126791455396897845276 151.25479576647779822
0.159620985197506115583 233.09935637305434852 0.159620985197506115583 171.30112484434854991
0.200950914520774404082 274.77244403747687329 0.200950914520774404082 190.76943788905592214
0.252982212813464002465 320.77217497080386011 0.252982212813464002465 208.56458716925843078
0.318485736442795541734 370.57325014013071041 0.318485736442795541734 223.55946545867155351
0.400949786901819038576 423.39315186812319780 0.400949786901819038576 234.77960717764267429
0.504765875584169521062 478.25576736997351190 0.504765875584169521062 241.61252758667876606
0.635462587779443310865 534.09493237599201620 0.635462587779443310865 243.95730339456733304
0.799999999999997157829 589.88663027273889838 0.799999999999997157829 242.27122333321088377
1.007140329435330272645 644.77329452259164100 1.007140329435330272645 237.48120761477559881
1.267914553968893187630 698.15411291779503244 1.267914553968893187630 230.77822863408988496
1.596209851975103788391 749.71345002611315067 1.596209851975103788391 223.35959511910891706
2.009509145207687197399 799.39145050162562711 2.009509145207687197399 216.23023609485628072
2.529822128134711078928 847.32014799244700498 2.529822128134711078928 210.07916297399023620
3.184857364427983839050 893.73688711106251503 3.184857364427983839050 205.25478583087959805
4.009497869018190385759 938.90902219229121783 4.009497869018190385759 201.81861114819793102
5.009497869018190385759 981.63358094158979839 5.009497869018190385759 199.67032946110418834
6.009497869018190385759 1015.96778847904465692 6.009497869018190385759 198.63884732158086877
7.009497869018204596614 1044.63366637195167641 7.009497869018204596614 198.16675447001753696
8.009497869018190385759 1069.20089275254531458 8.009497869018190385759 198.04789714519867516
9.009497869018204596614 1090.67834819477388919 9.009497869018204596614 198.08443703039625916
10.009497869018190385759 1109.70956727547968512 10.009497869018190385759 198.13411824731346655
11.009497869018190385759 1126.79420402420305436 11.009497869018190385759 198.14880700574423145
12.009497869018190385759 1142.24635995523567544 12.009497869018190385759 198.30145735522319228
13.009497869018190385759 1156.33553507602550781 13.009497869018190385759 198.36973936115214201
14.009497869018204596614 1169.29214264206780172 14.009497869018204596614 198.40310096672894247
15.009497869018190385759 1181.24346408636802153 15.009497869018190385759 198.52843541282652495
16.009497869018190385759 1192.32128078110918068 16.009497869018190385759 198.52919719036205493
17.009497869018190385759 1202.65410577327520514 17.009497869018190385759 198.38295654362218556
18.009497869018190385759 1212.30669144363218948 18.009497869018190385759 198.43513782525658939
19.009497869018204596614 1221.33917125244215640 19.009497869018204596614 198.42770647415684948
20.009497869018190385759 1229.83139868928105898 20.009497869018190385759 198.43091243215590680
21.009497869018204596614 1237.86948304542420374 21.009497869018204596614 198.31973016492909778
22.009497869018190385759 1245.47397778921731515 22.009497869018190385759 198.26856115426727456
23.009497869018190385759 1252.67492102662072284 23.009497869018190385759 198.54846270624514659
24.009497869018190385759 1259.49406667090920564 24.009497869018190385759 198.58300814767810039
25.009497869018190385759 1265.98029768991932542 25.009497869018190385759 198.57770883790189487
26.009497869018204596614 1272.19150914031365573 26.009497869018204596614 198.67638461365575608
27.009497869018190385759 1278.13426382781244683 27.009497869018190385759 198.61587113984438702
28.009497869018190385759 1283.81312931314232628 28.009497869018190385759 198.68648436715437811
29.009497869018190385759 1289.24526218857704407 29.009497869018190385759 198.91552749943150502
30.009497869018190385759 1294.43834219669156482 30.009497869018190385759 198.92808905703375899
31.009497869018190385759 1299.41890875815624895 31.009497869018190385759 198.85533009211135891
32.009497869018190385759 1304.21493728874929729 32.009497869018190385759 198.76484959780242434
33.009497869018190385759 1308.83975957553161606 33.009497869018190385759 198.68476093260457560
34.009497869018190385759 1313.29373118709668233 34.009497869018190385759 198.52822032469262581
35.009497869018190385759 1317.58036167394857330 35.009497869018190385759 198.49069865856176875
36.009497869018190385759 1321.71083958500844346 36.009497869018190385759 198.48520595223763507
37.009497869018190385759 1325.69152332015437423 37.009497869018190385759 198.41100438244586712
38.009497869018190385759 1329.52702687847636298 38.009497869018190385759 198.23526561721351413
39.009497869018190385759 1333.23307012160512386 39.009497869018190385759 197.95863150283452114
40.009497869018190385759 1336.82227106641857972 40.009497869018190385759 197.57364475918490143
41.009497869018190385759 1340.30484639745191089 41.009497869018190385759 197.35240454112047814
42.009497869018190385759 1343.67781888346144115 42.009497869018190385759 196.93559606781465732
43.009497869018190385759 1346.94356127598666717 43.009497869018190385759 196.65717146420035988
44.009497869018218807469 1350.10281648000227506 44.009497869018218807469 196.40931601274127161
46.009497869018190385759 1356.12883096196674160 46.009497869018190385759 195.73639402436208456
48.009497869018190385759 1361.76562712652230402 48.009497869018190385759 195.04868029760183390
50.009497869018190385759 1367.07692894279603024 50.009497869018190385759 194.44216415840682544
52.009497869018190385759 1372.11559177574690693 52.009497869018190385759 194.01432997115355761
54.009497869018190385759 1376.89009423118022823 54.009497869018190385759 193.60871053210942705
56.009497869018190385759 1381.41085654771927693 56.009497869018190385759 193.43149127898590223
58.009497869018218807469 1385.70947278223820831 58.009497869018218807469 193.27083447929419435
60.009497869018190385759 1389.83634742002573148 60.009497869018190385759 193.04382316495147620
62.009497869018190385759 1393.77807040614470679 62.009497869018190385759 192.78437497426972413
64.009497869018190385759 1397.54773577511082294 64.009497869018190385759 192.57312657827856128
66.009497869018190385759 1401.15411402069935320 66.009497869018190385759 192.34026211484558644
68.009497869018190385759 1404.60226305423179838 68.009497869018190385759 191.86054768033366713
70.009497869018190385759 1407.89210241568525817 70.009497869018190385759 191.48741105185010269
72.009497869018218807469 1411.04307969064029749 72.009497869018218807469 190.49025827049277382
74.009497869018190385759 1414.07036129690095549 74.009497869018190385759 189.61247769333084534
76.009497869018190385759 1416.98519538220580216 76.009497869018190385759 188.88009017473891049
78.009497869018190385759 1419.78288858083874402 78.009497869018190385759 187.91900348075199645
80.009497869018190385759 1422.46342202045229897 80.009497869018190385759 187.28576536249138940
82.009497869018218807469 1425.02942230066514639 82.009497869018218807469 186.70228062015101500
84.009497869018190385759 1427.48958791485915754 84.009497869018190385759 185.88329302646548058
86.009497869018190385759 1429.82378889231290486 86.009497869018190385759 184.98503273387922263
88.009497869018190385759 1432.05659779749794325 88.009497869018190385759 184.40763589252583188
91.009497869018218807469 1435.25724924209021083 91.009497869018218807469 183.90186489879806686
94.009497869018190385759 1438.32349138813924583 94.009497869018190385759 183.57433047803411341
97.009497869018190385759 1441.26577486323890298 97.009497869018190385759 183.56181697525275354
99.504748934509109403734 1443.61724463359678339 99.504748934509109403734 179.23166528310684953
nan nan nan nan

