Time Pressure difference Time.1 Pressure.1 difference.1
(hr) (psi) (hr) (psi)
0.000200000000006639311 0.74177816490282278 0.000200000000006639311 0.59237855337179524
0.000399999999999067768 1.48093986405058553 0.000399999999999067768 1.54039743616081837
0.000600000000005707079 2.21793986372373819 0.000600000000005707079 2.24903554020206409
0.000799999999998135536 2.95298844590052223 0.000799999999998135536 2.96769939672360561
0.001007140329434719206 3.71236215927261526 0.001007140329434719206 3.71924913605204432
0.001267914553963578328 4.66574811481106710 0.001267914553963578328 4.66813196733928670
0.001596209851982166583 5.86208816470976224 0.001596209851982166583 5.85571597631982055
0.002009509145210586212 7.36236043102409798 0.002009509145210586212 7.34038430186169677
0.002529822128138903281 9.24238976450371474 0.002529822128138903281 9.19397137659292163
0.003184857364445292660 11.59622988790019171 0.003184857364445292660 11.50445654990202193
0.004009497869020606231 14.54021322542597083 0.004009497869020606231 14.37898230886670348
0.005047658755842121536 18.21772130830914449 0.005047658755842121536 17.94711955763300892
0.006354625877804664924 22.80473573776009388 0.006354625877804664924 22.36422259743045871
0.008000000000009777068 28.51614967192656991 0.008000000000009777068 27.81458099507546322
0.010071403294347192059 35.61276430056881992 0.010071403294347192059 34.51391661732068883
0.012679145539692626699 44.40874127992440634 0.012679145539692626699 42.71042881997435359
0.015962098519750611558 55.27906720121858086 0.015962098519750611558 52.68337362662251167
0.020095091452091651263 68.66633218317755905 0.020095091452091651263 64.73775677774612802
0.025298221281346400247 85.08572227068314930 0.025298221281346400247 79.19310361690219224
0.031848573644282396344 105.12658672670403348 0.031848573644282396344 96.36383278131808083
0.040094978690191851456 129.44833783957133733 0.040094978690191851456 116.52827690978726594
0.050476587558421215363 158.76767994776182036 0.050476587558421215363 139.88582671528584456
0.063546258777947173257 193.83468259470834028 0.063546258777947173257 166.49630835431648279
0.079999999999998294697 235.39198605545399801 0.079999999999998294697 196.20657506631908973
0.100714032943542974863 284.11695715998229161 0.100714032943542974863 228.57391106613340526
0.126791455396897845276 340.54552411758169228 0.126791455396897845276 262.78313739195465359
0.159620985197506115583 404.97611914618192941 0.159620985197506115583 297.61070911673789396
0.200950914520774404082 477.37702825966317732 0.200950914520774404082 331.43406232476058904
0.252982212813464002465 557.29484873332273764 0.252982212813464002465 362.35053763063768884
0.318485736442795541734 643.81695014618048845 0.318485736442795541734 388.40195068987094373
0.400949786901819038576 735.58382221446311178 0.400949786901819038576 407.89530974637148120
0.504765875584169521062 830.89961140347531909 0.504765875584169521062 419.76651193561116315
0.635462587779443310865 927.91201286334808174 0.635462587779443310865 423.84021776526964231
0.799999999999997157829 1024.84194714699583528 0.799999999999997157829 420.91089968201816873
1.007140329435330272645 1120.19951752660358579 1.007140329435330272645 412.58894630349146837
1.267914553968893187630 1212.94090045834832381 1.267914553968893187630 400.94349838568535915
1.596209851975103788391 1302.51772543447282260 1.596209851975103788391 388.05470513884102957
2.009509145207687197399 1388.82600252519773676 2.009509145207687197399 375.66848411032424337
2.529822128134711078928 1472.09512092851196030 2.529822128134711078928 364.98189209294406510
3.184857364427983839050 1552.73743227661248056 3.184857364427983839050 356.60024075287060441
4.009497869018190385759 1631.21742571540085009 4.009497869018190385759 350.63038862906762461
5.009497869018190385759 1705.44511241408531532 5.009497869018190385759 346.89806266296898229
6.009497869018190385759 1765.09578815522763762 6.009497869018190385759 345.10601295364142516
7.009497869018204596614 1814.89856822986939733 7.009497869018204596614 344.28582050919391122
8.009497869018190385759 1857.58053935413022373 8.009497869018190385759 344.07932325031595155
9.009497869018204596614 1894.89448431504479231 9.009497869018204596614 344.14280596915148180
10.009497869018190385759 1927.95845053891707721 10.009497869018190385759 344.22911983434033800
11.009497869018190385759 1957.64051399535674136 11.009497869018190385759 344.25463940881246572
12.009497869018190385759 1984.48638023351259108 12.009497869018190385759 344.51984711714845844
13.009497869018190385759 2008.96426619239446154 13.009497869018190385759 344.63847713912230120
14.009497869018204596614 2031.47448128281439494 14.009497869018204596614 344.69643806087344728
15.009497869018190385759 2052.23815842242538565 15.009497869018190385759 344.91418837286789767
16.009497869018190385759 2071.48424851659592605 16.009497869018190385759 344.91551185018158776
17.009497869018190385759 2089.43602423255788381 17.009497869018190385759 344.66144006508676512
18.009497869018190385759 2106.20598338358649926 18.009497869018190385759 344.75209742792634415
19.009497869018204596614 2121.89859908254993570 19.009497869018204596614 344.73918653973163373
20.009497869018190385759 2136.65260511581300307 20.009497869018190385759 344.74475642395958630
21.009497869018204596614 2150.61760381238082118 21.009497869018204596614 344.55159345774643498
22.009497869018190385759 2163.82930382445738360 22.009497869018190385759 344.46269476801688825
23.009497869018190385759 2176.33989197815617445 23.009497869018190385759 344.94898287291232464
24.009497869018190385759 2188.18716252358353813 24.009497869018190385759 345.00900053672478407
25.009497869018190385759 2199.45604248462632313 25.009497869018190385759 344.99979375923425096
26.009497869018204596614 2210.24711607451399686 26.009497869018204596614 345.17122852139021916
27.009497869018190385759 2220.57178521057721809 27.009497869018190385759 345.06609519043001910
28.009497869018190385759 2230.43798536310487179 28.009497869018190385759 345.18877536939470474
29.009497869018190385759 2239.87552360778090588 29.009497869018190385759 345.58670439103565286
30.009497869018190385759 2248.89774237674237156 30.009497869018190385759 345.60852826445750452
31.009497869018190385759 2257.55075004092122981 31.009497869018190385759 345.48212017948537778
32.009497869018190385759 2265.88314980321638359 32.009497869018190385759 345.32492352303023608
33.009497869018190385759 2273.91810369834593075 33.009497869018190385759 345.18578115333832557
34.009497869018190385759 2281.65622947485871919 34.009497869018190385759 344.91381468861965232
35.009497869018190385759 2289.10362446466160691 35.009497869018190385759 344.84862626866856772
36.009497869018190385759 2296.27972713893495893 36.009497869018190385759 344.83908349289532680
37.009497869018190385759 2303.19558428968412045 37.009497869018190385759 344.71016909245946636
38.009497869018190385759 2309.85921206708053433 38.009497869018190385759 344.40484863068417098
39.009497869018190385759 2316.29792143695203777 39.009497869018190385759 343.92423722185060342
40.009497869018190385759 2322.53363436247445861 40.009497869018190385759 343.25537892986795896
41.009497869018190385759 2328.58410084226534309 41.009497869018190385759 342.87100633311393949
42.009497869018190385759 2334.44414837146086938 42.009497869018190385759 342.14686242910210012
43.009497869018190385759 2340.11789925964239956 43.009497869018190385759 341.66314030648038624
44.009497869018218807469 2345.60664419580143658 44.009497869018218807469 341.23252762524890613
46.009497869018190385759 2356.07596507594644208 46.009497869018190385759 340.06342385944617490
48.009497869018190385759 2365.86907592214856777 48.009497869018190385759 338.86862160653390674
50.009497869018190385759 2375.09668783252300273 50.009497869018190385759 337.81488831411923002
52.009497869018190385759 2383.85062929132664067 52.009497869018190385759 337.07158884093411189
54.009497869018190385759 2392.14563063899640838 54.009497869018190385759 336.36688425131069380
56.009497869018190385759 2399.99979551967589941 56.009497869018190385759 336.05899165784904881
58.009497869018218807469 2407.46801399715695879 58.009497869018218807469 335.77987391052477051
60.009497869018190385759 2414.63785650988938869 60.009497869018190385759 335.38547487607331732
62.009497869018190385759 2421.48602504413884162 62.009497869018190385759 334.93472150198999771
64.009497869018190385759 2428.03526857426822971 64.009497869018190385759 334.56770823813764082
66.009497869018190385759 2434.30082455347201176 66.009497869018190385759 334.16314021120064126
68.009497869018190385759 2440.29148036464812321 68.009497869018190385759 333.32970637847847684
70.009497869018190385759 2446.00709622024714918 70.009497869018190385759 332.68143593249436663
72.009497869018218807469 2451.48145946253271177 72.009497869018218807469 330.94902847383275457
74.009497869018190385759 2456.74091952944081640 74.009497869018190385759 329.42401280183742074
76.009497869018190385759 2461.80501843640058723 76.009497869018190385759 328.15159635416705441
78.009497869018190385759 2466.66560214530909434 78.009497869018190385759 326.48184845975004009
80.009497869018190385759 2471.32263786821795293 80.009497869018190385759 325.38168962783038296
82.009497869018218807469 2475.78068893870431566 82.009497869018218807469 324.36797002683823621
84.009497869018190385759 2480.05486771978485194 84.009497869018190385759 322.94509858489044518
86.009497869018190385759 2484.11020132458224907 86.009497869018190385759 321.38450239563059085
88.009497869018190385759 2487.98938099837687332 88.009497869018190385759 320.38135963429101594
91.009497869018218807469 2493.55004586223094520 91.009497869018218807469 319.50265633195851933
94.009497869018190385759 2498.87719418211736411 94.009497869018190385759 318.93361306786857767
97.009497869018190385759 2503.98898239858408488 97.009497869018190385759 318.91187268268618027
99.504748934509109403734 2508.07431801128768711 99.504748934509109403734 311.38886594905528682
nan nan nan nan

