Time Pressure difference Time.1 Pressure.1 difference.1
(hr) (psi) (hr) (psi)
0.000200000000006639311 0.68114008423327521 0.000200000000006639311 0.54395343086771786
0.000399999999999067768 1.35987759072954106 0.000399999999999067768 1.41447468941978838
0.000600000000005707079 2.03663011002627714 0.000600000000005707079 2.06518381071186186
0.000799999999998135536 2.71159073419756780 0.000799999999998135536 2.72509911009334482
0.001007140329434719206 3.40888798499836998 0.001007140329434719206 3.41521197263457577
0.001267914553963578328 4.28433757463054210 0.001267914553963578328 4.28652655455567100
0.001596209851982166583 5.38288050958791153 0.001596209851982166583 5.37702922797564753
0.002009509145210586212 6.76051013823041380 0.002009509145210586212 6.74033048995138984
0.002529822128138903281 8.48685286326208832 0.002529822128138903281 8.44239252945822471
0.003184857364445292660 10.64827380523869849 0.003184857364445292660 10.56400265500521662
0.004009497869020606231 13.35159557093986216 0.004009497869020606231 13.20354478529753095
0.005047658755842121536 16.72847869296024115 0.005047658755842121536 16.47999780208182230
0.006354625877804664924 20.94051881854790054 0.006354625877804664924 20.53601627087679304
0.008000000000009777068 26.18504225193705182 0.008000000000009777068 25.54082465393267398
0.010071403294347192059 32.70153048876420598 0.010071403294347192059 31.69251021971216531
0.012679145539692626699 40.77846343733260426 0.012679145539692626699 39.21898279101787921
0.015962098519750611558 50.76017368980877364 0.015962098519750611558 48.37667007147867793
0.020095091452091651263 63.05307098567256219 0.020095091452091651263 59.44564452155860579
0.025298221281346400247 78.13022649715585999 0.025298221281346400247 72.71931127195946942
0.031848573644282396344 96.53281199988499850 0.031848573644282396344 88.48638620456979709
0.040094978690191851456 118.86633485828497214 0.040094978690191851456 107.00244912208907522
0.050476587558421215363 145.78891103825836240 0.050476587558421215363 128.45059116073281302
0.063546258777947173257 177.98929420790688027 0.063546258777947173257 152.88574787294456314
0.079999999999998294697 216.14941608675508178 0.079999999999998294697 180.16729177422354269
0.100714032943542974863 260.89127085239135795 0.100714032943542974863 209.88869773149986031
0.126791455396897845276 312.70697623338969606 0.126791455396897845276 241.30142515274667403
0.159620985197506115583 371.87056853288822822 0.159620985197506115583 273.28195014078954728
0.200950914520774404082 438.35292628546898186 0.200950914520774404082 304.34034838331876927
0.252982212813464002465 511.73771104291671463 0.252982212813464002465 332.72949704045117869
0.318485736442795541734 591.18689711071442616 0.318485736442795541734 356.65128730760829967
0.400949786901819038576 675.45210998416541770 0.400949786901819038576 374.55112429118099726
0.504765875584169521062 762.97612693264250083 0.504765875584169521062 385.45189225890385387
0.635462587779443310865 852.05806332356701205 0.635462587779443310865 389.19258518199450236
0.799999999999997157829 941.06427397596473838 0.799999999999997157829 386.50272983119248238
1.007140329435330272645 1028.62665663137158845 1.007140329435330272645 378.86107051384431088
1.267914553968893187630 1113.78671710621006241 1.267914553968893187630 368.16760210107725015
1.596209851975103788391 1196.04091249302109645 1.596209851975103788391 356.33242801102983321
2.009509145207687197399 1275.29375371854666810 2.009509145207687197399 344.95874240813645883
2.529822128134711078928 1351.75587812024627965 2.529822128134711078928 335.14574637873926122
3.184857364427983839050 1425.80592885422402105 3.184857364427983839050 327.44926922436042105
4.009497869018190385759 1497.87042450910280422 4.009497869018190385759 321.96743412747531465
5.009497869018190385759 1566.03022640487120043 5.009497869018190385759 318.54021431538023990
6.009497869018190385759 1620.80464309886542651 6.009497869018190385759 316.89465915116011274
7.009497869018204596614 1666.53619927042882409 7.009497869018204596614 316.14151491325753796
8.009497869018190385759 1705.72905069472199102 8.009497869018190385759 315.95189816938312788
9.009497869018204596614 1739.99269556364697564 9.009497869018204596614 316.01019137144925253
10.009497869018190385759 1770.35378436944233727 10.009497869018190385759 316.08944934396316739
11.009497869018190385759 1797.60943054444828704 11.009497869018190385759 316.11288277180983641
12.009497869018190385759 1822.26072988967575839 12.009497869018190385759 316.35641056669845739
13.009497869018190385759 1844.73762405124693942 13.009497869018190385759 316.46534294969796974
14.009497869018204596614 1865.40769837839616230 14.009497869018204596614 316.51856574458707883
15.009497869018190385759 1884.47400885373872370 15.009497869018190385759 316.71851563913963901
16.009497869018190385759 1902.14679035118570027 16.009497869018190385759 316.71973092625853496
17.009497869018190385759 1918.63106368499165910 17.009497869018190385759 316.48642872717937280
18.009497869018190385759 1934.03013031863497417 18.009497869018190385759 316.56967512978678769
19.009497869018204596614 1948.43992300973263809 19.009497869018204596614 316.55781966694280527
20.009497869018190385759 1961.98783448484505243 20.009497869018190385759 316.56293423028762390
21.009497869018204596614 1974.81123754328359610 21.009497869018204596614 316.38556174171566227
22.009497869018190385759 1986.94292176489898338 22.009497869018190385759 316.30393024610731345
23.009497869018190385759 1998.43080786348059519 23.009497869018190385759 316.75046579595533558
24.009497869018190385759 2009.30960052557497875 24.009497869018190385759 316.80557720057595361
25.009497869018190385759 2019.65728425240035904 25.009497869018190385759 316.79712304879291196
26.009497869018204596614 2029.56622080750435089 26.009497869018204596614 316.95454354707726452
27.009497869018190385759 2039.04688003658770867 27.009497869018190385759 316.85800454216422395
28.009497869018190385759 2048.10654870968255636 28.009497869018190385759 316.97065599429294025
29.009497869018190385759 2056.77259726582360599 29.009497869018190385759 317.33605554384013203
30.009497869018190385759 2065.05727743441048005 30.009497869018190385759 317.35609538281647701
31.009497869018190385759 2073.00292836904282012 31.009497869018190385759 317.24002076951620666
32.009497869018190385759 2080.65418011045630919 32.009497869018190385759 317.09567445563811816
33.009497869018190385759 2088.03230126835796909 33.009497869018190385759 316.96790654617853988
34.009497869018190385759 2095.13785909225543946 34.009497869018190385759 316.71817250242793307
35.009497869018190385759 2101.97645247594937246 35.009497869018190385759 316.65831303505962069
36.009497869018190385759 2108.56593085546091970 36.009497869018190385759 316.64955035181878884
37.009497869018190385759 2114.91643798156928824 37.009497869018190385759 316.53117430662570086
38.009497869018190385759 2121.03533470885349743 38.009497869018190385759 316.25081285236393569
39.009497869018190385759 2126.94769941579033912 39.009497869018190385759 315.80948994615619085
40.009497869018190385759 2132.67366201257436842 40.009497869018190385759 315.19530875978915674
41.009497869018190385759 2138.22952149009825007 41.009497869018190385759 314.84235743914160821
42.009497869018190385759 2143.61052817984091234 42.009497869018190385759 314.17741006927627723
43.009497869018190385759 2148.82046740527084694 43.009497869018190385759 313.73323074055309689
44.009497869018218807469 2153.86052434552902923 44.009497869018218807469 313.33781931993740955
46.009497869018190385759 2163.47401048407164126 46.009497869018190385759 312.26428618672548509
48.009497869018190385759 2172.46656467655338929 48.009497869018190385759 311.16715533858655363
50.009497869018190385759 2180.93984772975272790 50.009497869018190385759 310.19956149784746913
52.009497869018190385759 2188.97818143212543873 52.009497869018190385759 309.51702446759907161
54.009497869018190385759 2196.59509196413955578 54.009497869018190385759 308.86992730803450513
56.009497869018190385759 2203.80720305278146043 56.009497869018190385759 308.58720398593084155
58.009497869018218807469 2210.66491766816216114 58.009497869018218807469 308.33090325490513806
60.009497869018190385759 2217.24864763506047893 60.009497869018190385759 307.96874512696535930
62.009497869018190385759 2223.53699948062012481 62.009497869018190385759 307.55483945311510752
64.009497869018190385759 2229.55086252060482366 64.009497869018190385759 307.21782839336265170
66.009497869018190385759 2235.30422859333384622 66.009497869018190385759 306.84633255675760211
68.009497869018190385759 2240.80516674021419021 68.009497869018190385759 306.08102937329493898
70.009497869018190385759 2246.05354860089892099 70.009497869018190385759 305.48575303991646024
72.009497869018218807469 2251.08039950646889338 72.009497869018218807469 303.89496455603904224
74.009497869018190385759 2255.90991490945270925 74.009497869018190385759 302.49461421893249735
76.009497869018190385759 2260.56003932569774406 76.009497869018190385759 301.32621389744338103
78.009497869018190385759 2265.02328528460657253 78.009497869018190385759 299.79296275139421368
80.009497869018190385759 2269.29962267854261881 80.009497869018190385759 298.78273851603688627
82.009497869018218807469 2273.39324180261701258 82.009497869018218807469 297.85188737066891917
84.009497869018190385759 2277.31801963070938655 84.009497869018190385759 296.54533128735732816
86.009497869018190385759 2281.04184220174465736 86.009497869018190385759 295.11230903070224940
88.009497869018190385759 2284.60391088316828245 88.009497869018190385759 294.19117010091667908
91.009497869018218807469 2289.71000851850931213 91.009497869018218807469 293.38429808757666706
94.009497869018190385759 2294.60167886823728622 94.009497869018190385759 292.86177235795327078
97.009497869018190385759 2299.29559413979768578 97.009497869018190385759 292.84180918230987345
99.504748934509109403734 2303.04696614698286794 99.504748934509109403734 285.93378508199924681
nan nan nan nan

