Time Pressure difference Time.1 Pressure.1 difference.1
(hr) (psi) (hr) (psi)
0.000200000000006639311 0.44191039611231997 0.000200000000006639311 0.35290637222149507
0.000399999999999067768 0.88226204666843400 0.000399999999999067768 0.91768357898942365
0.000600000000005707079 1.32132587626095055 0.000600000000005707079 1.33985096012037852
0.000799999999998135536 1.75922715925988560 0.000799999999998135536 1.76799112996299934
0.001007140329434719206 2.21162000977943052 0.001007140329434719206 2.21572288956292018
0.001267914553963578328 2.77959462158957127 0.001267914553963578328 2.78101478905319199
0.001596209851982166583 3.49230784280581563 0.001596209851982166583 3.48851164546712766
0.002009509145210586212 4.38608706529095116 0.002009509145210586212 4.37299490323675499
0.002529822128138903281 5.50610454055540455 0.002529822128138903281 5.47725954350216604
0.003184857364445292660 6.90839227364266772 0.003184857364445292660 6.85371879568631126
0.004009497869020606231 8.66225468748781324 0.004009497869020606231 8.56620222655888774
0.005047658755842121536 10.85311056665225671 0.005047658755842121536 10.69190101305796325
0.006354625877804664924 13.58580001398473591 0.006354625877804664924 13.32336665378835860
0.008000000000009777068 16.98834448540306497 0.008000000000009777068 16.57038867791729686
0.010071403294347192059 21.21611490246652920 0.010071403294347192059 20.56148224010593850
0.012679145539692626699 26.45627140080603468 0.012679145539692626699 25.44451078636769736
0.015962098519750611558 32.93221024753447068 0.015962098519750611558 31.38583960734957756
0.020095091452091651263 40.90760215168024416 0.020095091452091651263 38.56717425057216531
0.025298221281346400247 50.68936645913039030 0.025298221281346400247 47.17887023985662864
0.031848573644282396344 62.62860485846196923 0.031848573644282396344 57.40824080589163003
0.040094978690191851456 77.11815871293610769 0.040094978690191851456 69.42110113774560887
0.050476587558421215363 94.58500081994321818 0.050476587558421215363 83.33623719208519276
0.063546258777947173257 115.47598112025178807 0.063546258777947173257 99.18929008342259124
0.079999999999998294697 140.23352360750450885 0.079999999999998294697 116.88902344376455744
0.100714032943542974863 169.26116596764902056 0.100714032943542974863 136.17169169897306347
0.126791455396897845276 202.87818458068699101 0.126791455396897845276 156.55165631861126485
0.159620985197506115583 241.26236885304459179 0.159620985197506115583 177.29999692060980010
0.200950914520774404082 284.39482534618230147 0.200950914520774404082 197.45007968283607624
0.252982212813464002465 332.00544179857524796 0.252982212813464002465 215.86840539697564623
0.318485736442795541734 383.55052349134155065 0.318485736442795541734 231.38839615566783436
0.400949786901819038576 438.22014940436093866 0.400949786901819038576 243.00146112549788313
0.504765875584169521062 495.00402381483633008 0.504765875584169521062 250.07366668504491258
0.635462587779443310865 552.79864596114350661 0.635462587779443310865 252.50055526441596498
0.799999999999997157829 610.54413872586974321 0.799999999999997157829 250.75542959779807006
1.007140329435330272645 667.35290405840214589 1.007140329435330272645 245.79767013825022559
1.267914553968893187630 722.60308963476052213 1.267914553968893187630 238.85995648508912836
1.596209851975103788391 775.96800664181353113 1.596209851975103788391 231.18152646569251374
2.009509145207687197399 827.38570363203268698 2.009509145207687197399 223.80250117210803751
2.529822128134711078928 876.99283799996464950 2.529822128134711078928 217.43602082132841247
3.184857364427983839050 925.03506603713083223 3.184857364427983839050 212.44269661873138944
4.009497869018190385759 971.78910468151548230 4.009497869018190385759 208.88618897050838541
5.009497869018190385759 1016.00985420413587690 5.009497869018190385759 206.66267562900279131
6.009497869018190385759 1051.54642698609291074 6.009497869018190385759 205.59507154685022101
7.009497869018204596614 1081.21616830715629476 7.009497869018204596614 205.10644626079636055
8.009497869018190385759 1106.64372557267324737 8.009497869018190385759 204.98342661720951696
9.009497869018204596614 1128.87330980470756003 9.009497869018204596614 205.02124610928171933
10.009497869018190385759 1148.57099181041871816 10.009497869018190385759 205.07266713535167924
11.009497869018190385759 1166.25392323127630334 11.009497869018190385759 205.08787028610103675
12.009497869018190385759 1182.24720524549707079 12.009497869018190385759 205.24586636766289871
13.009497869018190385759 1196.82977560397966954 13.009497869018190385759 205.31653957224307305
14.009497869018204596614 1210.24011650891065983 14.009497869018204596614 205.35106948307355879
15.009497869018190385759 1222.60996671974271521 15.009497869018190385759 205.48079307319790132
16.009497869018190385759 1234.07572252052523254 16.009497869018190385759 205.48158152776773022
17.009497869018190385759 1244.77039741514090565 17.009497869018190385759 205.33021961324320159
18.009497869018190385759 1254.76101137745581582 18.009497869018190385759 205.38422825493483970
19.009497869018204596614 1264.10980370875336121 19.009497869018204596614 205.37653666196777635
20.009497869018190385759 1272.89942432431416819 20.009497869018190385759 205.37985489086952384
21.009497869018204596614 1281.21899801588642731 21.009497869018204596614 205.26477908121066207
22.009497869018190385759 1289.08979802308090257 22.009497869018190385759 205.21181815966963313
23.009497869018190385759 1296.54291436996527409 23.009497869018190385759 205.50152171152225833
24.009497869018190385759 1303.60086278000699167 24.009497869018190385759 205.53727691549559609
25.009497869018190385759 1310.31423807594751452 25.009497869018190385759 205.53179202677785042
26.009497869018204596614 1316.74296276779568871 26.009497869018204596614 205.63392337444523150
27.009497869018190385759 1322.89382948715228849 27.009497869018190385759 205.57129075174555055
28.009497869018190385759 1328.77156574823288793 28.009497869018190385759 205.64437681580957928
29.009497869018190385759 1334.39392895782680171 29.009497869018190385759 205.88144091380848977
30.009497869018190385759 1339.76886779891037804 30.009497869018190385759 205.89444237031509033
31.009497869018190385759 1344.92385108820826645 31.009497869018190385759 205.81913542607637169
32.009497869018190385759 1349.88783392532036487 32.009497869018190385759 205.72548635414568707
33.009497869018190385759 1354.67461496922737751 33.009497869018190385759 205.64259302752068947
34.009497869018190385759 1359.28456224034107436 34.009497869018190385759 205.48057045279469435
35.009497869018190385759 1363.72130819171343319 35.009497869018190385759 205.44173479835575336
36.009497869018190385759 1367.99643318915286727 36.009497869018190385759 205.43604974044828282
37.009497869018190385759 1372.11651830023743059 37.009497869018190385759 205.35924967210351610
38.009497869018190385759 1376.08633910379262488 38.009497869018190385759 205.17735663104588184
39.009497869018190385759 1379.92216596243952154 39.009497869018190385759 204.89103494067697397
40.009497869018190385759 1383.63705876913377324 40.009497869018190385759 204.49256617098515676
41.009497869018190385759 1387.24159199113682917 41.009497869018190385759 204.26357824100409744
42.009497869018190385759 1390.73268413618939121 42.009497869018190385759 203.83217336201826697
43.009497869018190385759 1394.11279104829759490 43.009497869018190385759 203.54399848045639487
44.009497869018218807469 1397.38268164856276599 44.009497869018218807469 203.28746326610576034
46.009497869018190385759 1403.61972387503192294 46.009497869018190385759 202.59097591626581902
48.009497869018190385759 1409.45391757064180638 48.009497869018190385759 201.87917882942446113
50.009497869018190385759 1414.95121828320520763 50.009497869018190385759 201.25142282543274064
52.009497869018190385759 1420.16633234376922701 52.009497869018190385759 200.80860611800329707
54.009497869018190385759 1425.10803527429561655 54.009497869018190385759 200.38878210716384842
56.009497869018190385759 1429.78711222448737317 56.009497869018190385759 200.20535673233558782
58.009497869018218807469 1434.23626365788049952 58.009497869018218807469 200.03907381903601959
60.009497869018190385759 1438.50765919738068987 60.009497869018190385759 199.80411269212879688
62.009497869018190385759 1442.58741917523161646 62.009497869018190385759 199.53557876714299368
64.009497869018190385759 1446.48909617190474819 64.009497869018190385759 199.31693256740118159
66.009497869018190385759 1450.22176781908979137 66.009497869018190385759 199.07591331731100581
68.009497869018190385759 1453.79066915340740707 68.009497869018190385759 198.57939954462548826
70.009497869018190385759 1457.19571689716872243 70.009497869018190385759 198.19319587467751376
72.009497869018218807469 1460.45703967980671223 72.009497869018218807469 197.16112334611312917
74.009497869018190385759 1463.59033503881573779 74.009497869018190385759 196.25260337130740140
76.009497869018190385759 1466.60724502594052865 76.009497869018190385759 195.49456804078036498
78.009497869018190385759 1469.50291191635415089 78.009497869018190385759 194.49982461431918068
80.009497869018190385759 1472.27731617681047283 80.009497869018190385759 193.84441084211172779
82.009497869018218807469 1474.93317638901521605 82.009497869018218807469 193.24049278194615908
84.009497869018190385759 1477.47949566285046785 84.009497869018190385759 192.39282468887088839
86.009497869018190385759 1479.89543908698533414 86.009497869018190385759 191.46310781016293845
88.009497869018190385759 1482.20643974371387230 88.009497869018190385759 190.86549084596057924
91.009497869018218807469 1485.51917625835017134 91.009497869018218807469 190.34200802754975257
94.009497869018190385759 1488.69279653402736585 94.009497869018190385759 190.00300352979405716
97.009497869018190385759 1491.73811717362468698 97.009497869018190385759 189.99005181096202932
99.504748934509109403734 1494.17193413438417338 99.504748934509109403734 185.50826056539463593
nan nan nan nan

