Time Pressure difference Time.1 Pressure.1 difference.1
(hr) (psi) (hr) (psi)
0.000200000000006639311 0.64376044546437594 0.000200000000006639311 0.51410232795424560
0.000399999999999067768 1.28525016196999298 0.000399999999999067768 1.33685107841504380
0.000600000000005707079 1.92486382350044494 0.000600000000005707079 1.95185055280694253
0.000799999999998135536 2.56278392561355517 0.000799999999998135536 2.57555098819797834
0.001007140329434719206 3.22181486387041049 0.001007140329434719206 3.22779180340462979
0.001267914553963578328 4.04922148821789030 0.001267914553963578328 4.05129034119590870
0.001596209851982166583 5.08747853040320841 0.001596209851982166583 5.08194835570869152
0.002009509145210586212 6.38950653308362337 0.002009509145210586212 6.37043430452722870
0.002529822128138903281 8.02111093783916829 0.002529822128138903281 7.97909050040259160
0.003184857364445292660 10.06391731592681715 0.003184857364445292660 9.98427080198663752
0.004009497869020606231 12.61888605790047890 0.004009497869020606231 12.47896001049461923
0.005047658755842121536 15.81045242322462130 0.005047658755842121536 15.57560767879684249
0.006354625877804664924 19.79134400533490634 0.006354625877804664924 19.40903976820672483
0.008000000000009777068 24.74805822591611459 0.008000000000009777068 24.13919403268027253
0.010071403294347192059 30.90693430340519043 0.010071403294347192059 29.95328709789869492
0.012679145539692626699 38.54062093162532676 0.012679145539692626699 37.06672154029129018
0.015962098519750611558 47.97455440195341936 0.015962098519750611558 45.72185281145850411
0.020095091452091651263 59.59284148036126538 0.020095091452091651263 56.18338354171697091
0.025298221281346400247 73.84259211621437657 0.025298221281346400247 68.72861736069339145
0.031848573644282396344 91.23527963403765284 0.031848573644282396344 83.63042598602633859
0.040094978690191851456 112.34318233557421252 0.040094978690191851456 101.13036349953540594
0.050476587558421215363 137.78830006664662733 0.050476587558421215363 121.40147335313160681
0.063546258777947173257 168.22158903796076856 0.063546258777947173257 144.49567634333175192
0.079999999999998294697 204.28755788687217887 0.079999999999998294697 170.28006234758933601
0.100714032943542974863 246.57406696415037572 0.100714032943542974863 198.37041553891756962
0.126791455396897845276 295.54622753765488596 0.126791455396897845276 228.05927377241303589
0.159620985197506115583 351.46303733291267690 0.159620985197506115583 258.28476995013647866
0.200950914520774404082 414.29697301370543983 0.200950914520774404082 287.63874389886831295
0.252982212813464002465 483.65454397348833027 0.252982212813464002465 314.46995147115814007
0.318485736442795541734 558.74371373268741081 0.318485736442795541734 337.07896056511759753
0.400949786901819038576 638.38461614357095186 0.400949786901819038576 353.99648942154300357
0.504765875584169521062 721.10548582048522803 0.504765875584169521062 364.29904451298841650
0.635462587779443310865 805.29877936068839972 0.635462587779443310865 367.83445550737286567
0.799999999999997157829 889.42050284313734210 0.799999999999997157829 365.29221416972461611
1.007140329435330272645 972.17763279184521252 1.007140329435330272645 358.06991420515771551
1.267914553968893187630 1052.66427531379599714 1.267914553968893187630 347.96328247357911323
1.596209851975103788391 1130.40452095376986108 1.596209851975103788391 336.77759964457089836
2.009509145207687197399 1205.30812089252890473 2.009509145207687197399 326.02807971500703843
2.529822128134711078928 1277.57415310145211151 2.529822128134711078928 316.75360176039384896
3.184857364427983839050 1347.56048153905339859 3.184857364427983839050 309.47949225473087154
4.009497869018190385759 1415.67021828604219991 4.009497869018190385759 304.29848957169917867
5.009497869018190385759 1480.08954324850628836 5.009497869018190385759 301.05934889563377510
6.009497869018190385759 1531.85804683124456460 6.009497869018190385759 299.50409858798673213
7.009497869018204596614 1575.07994443241750560 7.009497869018204596614 298.79228543631052162
8.009497869018190385759 1612.12196864440215904 8.009497869018190385759 298.61307448935599496
9.009497869018204596614 1644.50529153881279854 9.009497869018204596614 298.66816867423557369
10.009497869018190385759 1673.20022303209498205 10.009497869018190385759 298.74307712386763569
11.009497869018190385759 1698.96013252676516458 11.009497869018190385759 298.76522457091783735
12.009497869018190385759 1722.25861666402283845 12.009497869018190385759 298.99538803559914868
13.009497869018190385759 1743.50202273136119402 13.009497869018190385759 299.09834242197064214
14.009497869018204596614 1763.03776371128901701 14.009497869018204596614 299.14864445372558066
15.009497869018190385759 1781.05775227030198948 15.009497869018190385759 299.33762148821119808
16.009497869018190385759 1797.76068600264488850 16.009497869018190385759 299.33877008274436093
17.009497869018190385759 1813.34033458032763519 17.009497869018190385759 299.11827105312687536
18.009497869018190385759 1827.89433048407568094 18.009497869018190385759 299.19694905559117615
19.009497869018204596614 1841.51334186895473977 19.009497869018204596614 299.18574419741548809
20.009497869018190385759 1854.31777039726216572 20.009497869018190385759 299.19057808350356709
21.009497869018204596614 1866.43745011712780979 21.009497869018204596614 299.02293945101177997
22.009497869018190385759 1877.90337118023990115 22.009497869018190385759 298.94578773260138860
23.009497869018190385759 1888.76082450511876232 23.009497869018190385759 299.36781828276269835
24.009497869018190385759 1899.04261025282994524 24.009497869018190385759 299.41990528103212910
25.009497869018190385759 1908.82243328732988630 25.009497869018190385759 299.41191507660306570
26.009497869018204596614 1918.18758673880006427 26.009497869018204596614 299.56069664510351913
27.009497869018190385759 1927.14796588823855927 27.009497869018190385759 299.46945551241128669
28.009497869018190385759 1935.71045762195558382 28.009497869018190385759 299.57592487265497994
29.009497869018190385759 1943.90093034269898453 29.009497869018190385759 299.92127200789769859
30.009497869018190385759 1951.73096342886401544 30.009497869018190385759 299.94021209961317709
31.009497869018190385759 1959.24057254391254901 31.009497869018190385759 299.83050743460370313
32.009497869018190385759 1966.47193851902898132 32.009497869018190385759 299.69408256477987607
33.009497869018190385759 1973.44516278411902022 33.009497869018190385759 299.57332630888822678
34.009497869018190385759 1980.16078145914389097 34.009497869018190385759 299.33729718217273330
35.009497869018190385759 1986.62408618153745010 35.009497869018190385759 299.28072268557463076
36.009497869018190385759 1992.85194684509997387 36.009497869018190385759 299.27244088129219790
37.009497869018190385759 1998.85395053136130628 37.009497869018190385759 299.16056108248164946
38.009497869018190385759 2004.63705414556261530 38.009497869018190385759 298.89558531778300221
39.009497869018190385759 2010.22495981370434492 39.009497869018190385759 298.47848135155010141
40.009497869018190385759 2015.63669275578695306 40.009497869018190385759 297.89800523028850421
41.009497869018190385759 2020.88765750588572701 41.009497869018190385759 297.56442318943260261
42.009497869018190385759 2025.97336504802024137 42.009497869018190385759 296.93596683376722467
43.009497869018190385759 2030.89739297449386868 43.009497869018190385759 296.51616319991296677
44.009497869018218807469 2035.66086142412814297 44.009497869018218807469 296.14245118652621613
46.009497869018190385759 2044.74677820140891527 46.009497869018190385759 295.12783145696613474
48.009497869018190385759 2053.24583856625440603 48.009497869018190385759 294.09090900902998555
50.009497869018190385759 2061.25412437872955707 50.009497869018190385759 293.17641483028268112
52.009497869018190385759 2068.85133001206986592 52.009497869018190385759 292.53133410047473717
54.009497869018190385759 2076.05023935635199450 54.009497869018190385759 291.91974837039845170
56.009497869018190385759 2082.86656386086087878 56.009497869018190385759 291.65254035255657072
58.009497869018218807469 2089.34794047905552361 58.009497869018218807469 291.41030490555061760
60.009497869018190385759 2095.57036819167296926 60.009497869018190385759 291.06802130902218551
62.009497869018190385759 2101.51362755790296433 62.009497869018190385759 290.67682997093197628
64.009497869018190385759 2107.19746152862035160 64.009497869018190385759 290.35831342055615778
66.009497869018190385759 2112.63509409735843292 66.009497869018190385759 290.00720455059405367
68.009497869018190385759 2117.83415149227539587 68.009497869018190385759 289.28389971256535773
70.009497869018190385759 2122.79451239719082878 70.009497869018190385759 288.72129098284784732
72.009497869018218807469 2127.54549953355262915 72.009497869018218807469 287.21780186698811121
74.009497869018190385759 2132.10998055466552614 74.009497869018190385759 285.89430002399109298
76.009497869018190385759 2136.50491521636058678 76.009497869018190385759 284.79001923233983007
78.009497869018190385759 2140.72322694581725955 78.009497869018190385759 283.34090991747626731
80.009497869018190385759 2144.76488728764661573 80.009497869018190385759 282.38612481698606871
82.009497869018218807469 2148.63385658174229320 82.009497869018218807469 281.50635696618098791
84.009497869018190385759 2152.34325026073156550 84.009497869018190385759 280.27150213134387968
86.009497869018190385759 2155.86271671506347047 86.009497869018190385759 278.91712133999300249
88.009497869018190385759 2159.22930601762800507 88.009497869018190385759 278.04653271732979647
91.009497869018218807469 2164.05519097786009297 91.009497869018218807469 277.28394026569748121
94.009497869018190385759 2168.67841600351721354 94.009497869018190385759 276.79008972855342563
97.009497869018190385759 2173.11473836383311209 97.009497869018190385759 276.77122209303678346
99.504748934509109403734 2176.66024239501439297 99.504748934509109403734 270.24229687627979501
nan nan nan nan

