Time Pressure difference Time.1 Pressure.1 difference.1
(hr) (psi) (hr) (psi)
0.000200000000006639311 0.43692644427646676 0.000200000000006639311 0.34892622516636540
0.000399999999999067768 0.87231172283382752 0.000399999999999067768 0.90733376418879097
0.000600000000005707079 1.30642370472417291 0.000600000000005707079 1.32473985906638925
0.000799999999998135536 1.73938625144868375 0.000799999999998135536 1.74805138037695040
0.001007140329434719206 2.18667692696236893 0.001007140329434719206 2.19073353366559376
0.001267914553963578328 2.74824581006788460 0.001267914553963578328 2.74964996060522315
0.001596209851982166583 3.45292091224785569 0.001596209851982166583 3.44916752916486669
0.002009509145210586212 4.33661991793804535 0.002009509145210586212 4.32367541184686743
0.002529822128138903281 5.44400561716568188 0.002529822128138903281 5.41548593962808145
0.003184857364445292660 6.83047807506775051 0.003184857364445292660 6.77642121528383345
0.004009497869020606231 8.56456008574922834 0.004009497869020606231 8.46959092325183072
0.005047658755842121536 10.73070706402083907 0.005047658755842121536 10.57131566328663119
0.006354625877804664924 13.43257670555633787 0.006354625877804664924 13.17310312009901629
0.008000000000009777068 16.79674661526694024 0.008000000000009777068 16.38350459508364310
0.010071403294347192059 20.97683541108533234 0.010071403294347192059 20.32958582386414292
0.012679145539692626699 26.15789240004506411 0.012679145539692626699 25.15754261960415405
0.015962098519750611558 32.56079434248709248 0.015962098519750611558 31.03186397268022390
0.020095091452091651263 40.44623821763874361 0.020095091452091651263 38.13220611992662157
0.025298221281346400247 50.11768187500485539 0.025298221281346400247 46.64677771835448539
0.031848573644282396344 61.92226720968233167 0.031848573644282396344 56.76077944341916037
0.040094978690191851456 76.24840504324133406 0.040094978690191851456 68.63815638807177777
0.050476587558421215363 93.51825269039498778 0.050476587558421215363 82.39635481773837000
0.063546258777947173257 114.17362043092562374 0.063546258777947173257 98.07061387947420883
0.079999999999998294697 138.65194251418679983 0.079999999999998294697 115.57072618687999466
0.100714032943542974863 167.35220544921691044 0.100714032943542974863 134.63592073996213117
0.126791455396897845276 200.59008475458901444 0.126791455396897845276 154.78603613456678545
0.159620985197506115583 238.54136469304782509 0.159620985197506115583 175.30037289518938337
0.200950914520774404082 281.18736490994717769 0.200950914520774404082 195.22319908490936768
0.252982212813464002465 328.26101952265145201 0.252982212813464002465 213.43379932106989827
0.318485736442795541734 379.22476570760460390 0.318485736442795541734 228.77875259000239794
0.400949786901819038576 433.27781689228169171 0.400949786901819038576 240.26084314287948018
0.504765875584169521062 489.42127166654876191 0.504765875584169521062 247.25328698558953988
0.635462587779443310865 546.56407476609297191 0.635462587779443310865 249.65280464113305925
0.799999999999997157829 603.65830257482616616 0.799999999999997157829 247.92736084293568410
1.007140329435330272645 659.82636754646534882 1.007140329435330272645 243.02551596375866438
1.267914553968893187630 714.45343072910543469 1.267914553968893187630 236.16604720142271390
1.596209851975103788391 767.21648776991344221 1.596209851975103788391 228.57421601683134327
2.009509145207687197399 818.05428592189696246 2.009509145207687197399 221.27841281302411858
2.529822128134711078928 867.10194133079198764 2.529822128134711078928 214.98373487221567757
3.184857364427983839050 914.60233972844127948 3.184857364427983839050 210.04672635611413511
4.009497869018190385759 960.82907718510739414 4.009497869018190385759 206.53032969640489114
5.009497869018190385759 1004.55109644995388862 5.009497869018190385759 204.33189357303660927
6.009497869018190385759 1039.68688081707705351 6.009497869018190385759 203.27633013842708465
7.009497869018204596614 1069.02200099542142198 7.009497869018204596614 202.79321566387008602
8.009497869018190385759 1094.16278129929742136 8.009497869018190385759 202.67158345987257917
9.009497869018204596614 1116.14165593472966975 9.009497869018204596614 202.70897641631987085
10.009497869018190385759 1135.61718363210570715 10.009497869018190385759 202.75981750600561782
11.009497869018190385759 1153.10068349558514456 11.009497869018190385759 202.77484919264875884
12.009497869018190385759 1168.91359014874319655 12.009497869018190385759 202.93106336351635832
13.009497869018190385759 1183.33169542799510054 13.009497869018190385759 203.00093950187942937
14.009497869018204596614 1196.59079188662963134 14.009497869018204596614 203.03507997762534387
15.009497869018190385759 1208.82113250861789311 15.009497869018190385759 203.16334051974078534
16.009497869018190385759 1220.15757527405321525 16.009497869018190385759 203.16412008196584793
17.009497869018190385759 1230.73163353451900548 17.009497869018190385759 203.01446525670286292
18.009497869018190385759 1240.60957139951460704 18.009497869018190385759 203.06786477837542293
19.009497869018204596614 1249.85292622331644452 19.009497869018204596614 203.06025993269747687
20.009497869018190385759 1258.54341577930313179 20.009497869018190385759 203.06354073796501325
21.009497869018204596614 1266.76915969239894366 21.009497869018204596614 202.94976277578345503
22.009497869018190385759 1274.55119127845978255 22.009497869018190385759 202.89739915786884694
23.009497869018190385759 1281.92024992218375701 23.009497869018190385759 203.18383537642989722
24.009497869018190385759 1288.89859741030772966 24.009497869018190385759 203.21918732622310699
25.009497869018190385759 1295.53625794727145148 25.009497869018190385759 203.21376429715252243
26.009497869018204596614 1301.89247822530160192 26.009497869018204596614 203.31474378751542531
27.009497869018190385759 1307.97397426737211390 27.009497869018190385759 203.25281754777850551
28.009497869018190385759 1313.78542026986929159 28.009497869018190385759 203.32507933292453117
29.009497869018190385759 1319.34437336807695829 29.009497869018190385759 203.55946977568282819
30.009497869018190385759 1324.65869259817077364 30.009497869018190385759 203.57232459922130374
31.009497869018190385759 1329.75553697819100307 31.009497869018190385759 203.49786698142139585
32.009497869018190385759 1334.66353504646349393 32.009497869018190385759 203.40527410203125669
33.009497869018190385759 1339.39632983799538124 33.009497869018190385759 203.32331566254865152
34.009497869018190385759 1343.95428522259294368 34.009497869018190385759 203.16312041009402378
35.009497869018190385759 1348.34099268579188902 35.009497869018190385759 203.12472275175778691
36.009497869018190385759 1352.56790198777139267 36.009497869018190385759 203.11910181104471462
37.009497869018190385759 1356.64151997354315426 37.009497869018190385759 203.04316790888429978
38.009497869018190385759 1360.56656836202068916 38.009497869018190385759 202.86332629310177822
39.009497869018190385759 1364.35913401549487389 39.009497869018190385759 202.58023379472948022
40.009497869018190385759 1368.03212953489537540 40.009497869018190385759 202.18625903371841446
41.009497869018190385759 1371.59601012657526553 41.009497869018190385759 201.95985367437620539
42.009497869018190385759 1375.04772905194681698 42.009497869018190385759 201.53331426395041603
43.009497869018190385759 1378.38971445752736145 43.009497869018190385759 201.24838947503772602
44.009497869018218807469 1381.62272659237578409 44.009497869018218807469 200.99474751498425462
46.009497869018190385759 1387.78942623734337758 46.009497869018190385759 200.30611528563125034
48.009497869018190385759 1393.55782075593538138 48.009497869018190385759 199.60234598548356644
50.009497869018190385759 1398.99312183640222429 50.009497869018190385759 198.98166993642411171
52.009497869018190385759 1404.14941882109496873 52.009497869018190385759 198.54384740238671725
54.009497869018190385759 1409.03538825992382044 54.009497869018190385759 198.12875824881237463
56.009497869018190385759 1413.66169366556482601 56.009497869018190385759 197.94740158121905438
58.009497869018218807469 1418.06066669933329649 58.009497869018218807469 197.78299403912208732
60.009497869018190385759 1422.28388860492918866 60.009497869018190385759 197.55068284973634718
62.009497869018190385759 1426.31763625220264657 62.009497869018190385759 197.28517750285192278
64.009497869018190385759 1430.17530937297328819 64.009497869018190385759 197.06899723769362254
66.009497869018190385759 1433.86588321962653936 66.009497869018190385759 196.83069624982255164
68.009497869018190385759 1437.39453378701546171 68.009497869018190385759 196.33978225652822402
70.009497869018190385759 1440.76117873667408276 70.009497869018190385759 195.95793426706836726
72.009497869018218807469 1443.98571968341798311 72.009497869018218807469 194.93750165423966791
74.009497869018190385759 1447.08367712484414369 74.009497869018190385759 194.03922814531520658
76.009497869018190385759 1450.06656181136236228 76.009497869018190385759 193.28974208543323243
78.009497869018190385759 1452.92957080451560614 78.009497869018190385759 192.30621756979675752
80.009497869018190385759 1455.67268479135782400 80.009497869018190385759 191.65819568223827218
82.009497869018218807469 1458.29859169289852616 82.009497869018218807469 191.06108872801448229
84.009497869018190385759 1460.81619308018662196 84.009497869018190385759 190.22298080140242860
86.009497869018190385759 1463.20488902209444859 86.009497869018190385759 189.30374945140169984
88.009497869018190385759 1465.48982576164212333 88.009497869018190385759 188.71287252814900626
91.009497869018218807469 1468.76520058626351783 91.009497869018218807469 188.19529365129918119
94.009497869018190385759 1471.90302815206473497 94.009497869018190385759 187.86011251254075205
97.009497869018190385759 1474.91400307016283477 97.009497869018190385759 187.84730686572558511
99.504748934509109403734 1477.32037096745511917 99.504748934509109403734 183.41606213796535485
nan nan nan nan

