Time Pressure difference Time.1 Pressure.1 difference.1
(hr) (psi) (hr) (psi)
0.000200000000006639311 0.71353577116632128 0.000200000000006639311 0.56982438672606062
0.000399999999999067768 1.42455469565448256 0.000399999999999067768 1.48174848562390027
0.000600000000005707079 2.13349422501533148 0.000600000000005707079 2.16340596756279169
0.000799999999998135536 2.84055663497037925 0.000799999999998135536 2.85470748240266259
0.001007140329434719206 3.57101802330926832 0.001007140329434719206 3.57764278596719576
0.001267914553963578328 4.48810484952150723 0.001267914553963578328 4.49039793946746535
0.001596209851982166583 5.63889555821465382 0.001596209851982166583 5.63276598394034256
0.002009509145210586212 7.08204659602429931 0.002009509145210586212 7.06090718398566430
0.002529822128138903281 8.89049586529528568 0.002529822128138903281 8.84392095463977590
0.003184857364445292660 11.15471609597565994 0.003184857364445292660 11.06643692762131792
0.004009497869020606231 13.98661048224066050 0.004009497869020606231 13.83151825679339098
0.005047658755842121536 17.52410146006445046 0.005047658755842121536 17.26380257559547005
0.006354625877804664924 21.93647032333250024 0.006354625877804664924 21.51272923985752072
0.008000000000009777068 27.43042840782186431 0.008000000000009777068 26.75557119235142167
0.010071403294347192059 34.25684718274201401 0.010071403294347192059 33.19983692528384012
0.012679145539692626699 42.71792694227891474 0.012679145539692626699 41.08427587498092493
0.015962098519750611558 53.17437707261674973 0.015962098519750611558 50.67751169682949097
0.020095091452091651263 66.05193655694235133 0.020095091452091651263 62.27293737075467561
0.025298221281346400247 81.84617629397180849 0.025298221281346400247 76.17791266172338283
0.031848573644282396344 101.12400671695270660 0.031848573644282396344 92.69488506064080013
0.040094978690191851456 124.51973371130095813 0.040094978690191851456 112.09158999496892761
0.050476587558421215363 152.72277388032185286 0.050476587558421215363 134.55982659398719647
0.063546258777947173257 186.45463868852684186 0.063546258777947173257 160.15714319860902037
0.079999999999998294697 226.42969319332024725 0.079999999999998294697 188.73622394397321500
0.100714032943542974863 273.29951422220023005 0.100714032943542974863 219.87120896507121870
0.126791455396897845276 327.57962510302655801 0.126791455396897845276 252.77795634903586119
0.159620985197506115583 389.55709557286706968 0.159620985197506115583 286.27950630602219917
0.200950914520774404082 459.20141912099740011 0.200950914520774404082 318.81507226984251702
0.252982212813464002465 536.07645583642124620 0.252982212813464002465 348.55443653383849778
0.318485736442795541734 619.30432270500443792 0.318485736442795541734 373.61397048443353697
0.400949786901819038576 707.57727131268052290 0.400949786901819038576 392.36514117820053116
0.504765875584169521062 799.26401589651209179 0.504765875584169521062 403.78436030536397539
0.635462587779443310865 892.58277609139520337 0.635462587779443310865 407.70296423333331859
0.799999999999997157829 985.82220895774833025 0.799999999999997157829 404.88517673779796269
1.007140329435330272645 1077.54914395896139467 1.007140329435330272645 396.88007264803934504
1.267914553968893187630 1166.75949999296881288 1.267914553968893187630 385.67801244490897261
1.596209851975103788391 1252.92578516037201553 1.596209851975103788391 373.27994592862762602
2.009509145207687197399 1335.94796883442859325 2.009509145207687197399 361.36531674218196031
2.529822128134711078928 1416.04670646986778593 2.529822128134711078928 351.08560504797202384
3.184857364427983839050 1493.61864986070554551 3.184857364427983839050 343.02307593137265940
4.009497869018190385759 1569.11060323575543407 4.009497869018190385759 337.28051940914792795
5.009497869018190385759 1640.51215180705389685 5.009497869018190385759 333.69029767916049423
6.009497869018190385759 1697.89169319746974907 6.009497869018190385759 331.96647830591041384
7.009497869018204596614 1745.79828679670526981 7.009497869018204596614 331.17751379327836503
8.009497869018190385759 1786.85518847166622436 8.009497869018190385759 330.97887869207329459
9.009497869018204596614 1822.74844571850348984 9.009497869018204596614 331.03994437570111131
10.009497869018190385759 1854.55353752847690885 10.009497869018190385759 331.12297193471260925
11.009497869018190385759 1883.10548882644025070 11.009497869018190385759 331.14751987924955756
12.009497869018190385759 1908.92922801857503146 12.009497869018190385759 331.40263009365122571
13.009497869018190385759 1932.47514519514743370 13.009497869018190385759 331.51674340706165367
14.009497869018204596614 1954.12830842322227909 14.009497869018204596614 331.57249753000030523
15.009497869018190385759 1974.10143122605086319 15.009497869018190385759 331.78195723661087868
16.009497869018190385759 1992.61474745325426738 16.009497869018190385759 331.78323032397082670
17.009497869018190385759 2009.88302890903401021 17.009497869018190385759 331.53883204469155999
18.009497869018190385759 2026.01449017525283125 18.009497869018190385759 331.62603772742301089
19.009497869018204596614 2041.10962666507361973 19.009497869018204596614 331.61361840719985139
20.009497869018190385759 2055.30189002741690274 20.009497869018190385759 331.61897622416717013
21.009497869018204596614 2068.73518664595212613 21.009497869018204596614 331.43316772699239436
22.009497869018190385759 2081.44386560493694560 22.009497869018190385759 331.34765375781245211
23.009497869018190385759 2093.47812677406091098 23.009497869018190385759 331.81542697405564013
24.009497869018190385759 2104.87432542862006812 24.009497869018190385759 331.87315953084726061
25.009497869018190385759 2115.71415508879499612 25.009497869018190385759 331.86430329135748707
26.009497869018204596614 2126.09437033371477810 26.009497869018204596614 332.02921086212114687
27.009497869018190385759 2136.02593896515736560 27.009497869018190385759 331.92808036795003090
28.009497869018190385759 2145.51649431904525045 28.009497869018190385759 332.04608963304593772
29.009497869018190385759 2154.59470859919792929 29.009497869018190385759 332.42886794165696074
30.009497869018190385759 2163.27341623921802238 30.009497869018190385759 332.44986089492607562
31.009497869018190385759 2171.59697008415605524 31.009497869018190385759 332.32826565977364908
32.009497869018190385759 2179.61212282302676613 32.009497869018190385759 332.17705409438184461
33.009497869018190385759 2187.34115462136514907 33.009497869018190385759 332.04320941849675819
34.009497869018190385759 2194.78465970761862991 34.009497869018190385759 331.78159777998240543
35.009497869018190385759 2201.94850326443929589 35.009497869018190385759 331.71889133794661575
36.009497869018190385759 2208.85138366444016356 36.009497869018190385759 331.70971189294186843
37.009497869018190385759 2215.50392710508276650 37.009497869018190385759 331.58570576755056436
38.009497869018190385759 2221.91384453037198909 38.009497869018190385759 331.29201004900079397
39.009497869018190385759 2228.10740707093145829 39.009497869018190385759 330.82969739481484339
40.009497869018190385759 2234.10570203512406806 40.009497869018190385759 330.18630515202306697
41.009497869018190385759 2239.92580360974943687 41.009497869018190385759 329.81656712222269334
42.009497869018190385759 2245.56273622741855434 42.009497869018190385759 329.11999420671747885
43.009497869018190385759 2251.02046524527759175 43.009497869018190385759 328.65468927577450131
44.009497869018218807469 2256.30023221074316098 44.009497869018218807469 328.24047170222712566
46.009497869018190385759 2266.37094512904559451 46.009497869018190385759 327.11588028585026677
48.009497869018190385759 2275.79119397214526543 48.009497869018190385759 325.96656882420228385
50.009497869018190385759 2284.66747463397223328 50.009497869018190385759 324.95295527640359978
52.009497869018190385759 2293.08811932950675327 52.009497869018190385759 324.23795611910685466
54.009497869018190385759 2301.06729755755623046 54.009497869018190385759 323.56008238731902793
56.009497869018190385759 2308.62242368577972229 56.009497869018190385759 323.26391246818849368
58.009497869018218807469 2315.80629789872091351 58.009497869018218807469 322.99542182434578308
60.009497869018190385759 2322.70315648599626002 60.009497869018190385759 322.61603910251619709
62.009497869018190385759 2329.29058848030808804 62.009497869018190385759 322.18244767100719628
64.009497869018190385759 2335.59047671365806309 64.009497869018190385759 321.82940803646164341
66.009497869018190385759 2341.61747848984623488 66.009497869018190385759 321.44024349543258268
68.009497869018190385759 2347.38004662176081183 68.009497869018190385759 320.63854174592728441
70.009497869018190385759 2352.87804664411260092 70.009497869018190385759 320.01495348937589824
72.009497869018218807469 2358.14397948299620111 72.009497869018218807469 318.34850555321651200
74.009497869018190385759 2363.20319135026829827 74.009497869018190385759 316.88155318788165005
76.009497869018190385759 2368.07448022045673497 76.009497869018190385759 315.65758260719985628
78.009497869018190385759 2372.75000251155688602 78.009497869018190385759 314.05140854078979373
80.009497869018190385759 2377.22972668398506357 80.009497869018190385759 312.99313705521421980
82.009497869018218807469 2381.51804232737595157 82.009497869018218807469 312.01801372122514522
84.009497869018190385759 2385.62948641802358907 84.009497869018190385759 310.64931655590243054
86.009497869018190385759 2389.53041762353450395 86.009497869018190385759 309.14813836265028613
88.009497869018190385759 2393.26190176663567399 88.009497869018190385759 308.18318916669198870
91.009497869018218807469 2398.61085038707324202 91.009497869018218807469 307.33794153320530995
94.009497869018190385759 2403.73517335099495540 94.009497869018190385759 306.79056397009981083
97.009497869018190385759 2408.65233581230040727 97.009497869018190385759 306.76965132634654765
99.504748934509109403734 2412.58212673202251608 99.504748934509109403734 299.53307486028944595
nan nan nan nan

