Time Pressure difference Time.1 Pressure.1 difference.1
(hr) (psi) (hr) (psi)
0.000200000000006639311 0.57481577840173947 0.000200000000006639311 0.45904362702495222
0.000399999999999067768 1.14760401559127123 0.000399999999999067768 1.19367864033962623
0.000600000000005707079 1.71871711724168730 0.000600000000005707079 1.74281365489342477
0.000799999999998135536 2.28831803422526470 0.000799999999998135536 2.29971778559096895
0.001007140329434719206 2.87676888490106331 0.001007140329434719206 2.88210571349161748
0.001267914553963578328 3.61556292883455521 0.001267914553963578328 3.61741021433234700
0.001596209851982166583 4.54262599101809084 0.001596209851982166583 4.53768808019408354
0.002009509145210586212 5.70521099470176374 0.002009509145210586212 5.68818134030044131
0.002529822128138903281 7.16207583094800704 0.002529822128138903281 7.12455564681108910
0.003184857364445292660 8.98610423564046279 0.003184857364445292660 8.91498760641903587
0.004009497869020606231 11.26744406718339597 0.004009497869020606231 11.14250364808035698
0.005047658755842121536 14.11720397015669271 0.005047658755842121536 13.90751034029343991
0.006354625877804664924 17.67175490540871863 0.006354625877804664924 17.33039421883749043
0.008000000000009777068 22.09762102236638981 0.008000000000009777068 21.55396422014806390
0.010071403294347192059 27.59690133929856870 0.010071403294347192059 26.74538667322050856
0.012679145539692626699 34.41304475443190825 0.012679145539692626699 33.09699523339558169
0.015962098519750611558 42.83663438213130803 0.015962098519750611558 40.82518986519907855
0.020095091452091651263 53.21064039278709146 0.020095091452091651263 50.16632440112018543
0.025298221281346400247 65.93428870247785767 0.025298221281346400247 61.36800414658042513
0.031848573644282396344 81.46427549258586964 0.031848573644282396344 74.67387713849061015
0.040094978690191851456 100.31158990479659110 0.040094978690191851456 90.29962779571420128
0.050476587558421215363 123.03161760789605239 0.050476587558421215363 108.39976717466720402
0.063546258777947173257 150.20559950228238222 0.063546258777947173257 129.02065552204589949
0.079999999999998294697 182.40901942931037638 0.079999999999998294697 152.04361696068622223
0.100714032943542974863 220.16677979250587782 0.100714032943542974863 177.12558393926573785
0.126791455396897845276 263.89417994329960493 0.126791455396897845276 203.63486122646426679
0.159620985197506115583 313.82247978629106910 0.159620985197506115583 230.62330426515410409
0.200950914520774404082 369.92710364578601911 0.200950914520774404082 256.83356229421536909
0.252982212813464002465 431.85670248987605646 0.252982212813464002465 280.79123408779537385
0.318485736442795541734 498.90406439099308500 0.318485736442795541734 300.97889124007917871
0.400949786901819038576 570.01568305980788409 0.400949786901819038576 316.08460732865512455
0.504765875584169521062 643.87741443583979617 0.504765875584169521062 325.28379200385546710
0.635462587779443310865 719.05387782915659045 0.635462587779443310865 328.44057188529291125
0.799999999999997157829 794.16643608703350310 0.799999999999997157829 326.17059639412826755
1.007140329435330272645 868.06054437671855339 1.007140329435330272645 319.72178145802473637
1.267914553968893187630 939.92732711889914299 1.267914553968893187630 310.69753738286033240
1.596209851975103788391 1009.34184322581768356 1.596209851975103788391 300.70980510199103719
2.009509145207687197399 1076.22350923565136327 2.009509145207687197399 291.11152408101270339
2.529822128134711078928 1140.75008251123222180 2.529822128134711078928 282.83031279766777288
3.184857364427983839050 1203.24110093551598766 3.184857364427983839050 276.33523695519198782
4.009497869018190385759 1264.05650458573063588 4.009497869018190385759 271.70910294660114914
5.009497869018190385759 1321.57672764898870810 5.009497869018190385759 268.81686378810138649
6.009497869018190385759 1367.80099149318857599 6.009497869018190385759 267.42817577146684016
7.009497869018204596614 1406.39396328675206860 7.009497869018204596614 266.79259551216370028
8.009497869018190385759 1439.46890619603368577 8.009497869018190385759 266.63257747952820864
9.009497869018204596614 1468.38407967078501315 9.009497869018204596614 266.68177125493036783
10.009497869018190385759 1494.00587656543189041 10.009497869018190385759 266.74865725124698201
11.009497869018190385759 1517.00698284970508212 11.009497869018190385759 266.76843277816146838
12.009497869018190385759 1537.81027449226303361 12.009497869018190385759 266.97394647823819014
13.009497869018190385759 1556.77858029690582953 13.009497869018190385759 267.06587478194023788
14.009497869018204596614 1574.22210643640255512 14.009497869018204596614 267.11078962835881612
15.009497869018190385759 1590.31221234974054823 15.009497869018190385759 267.27952783205438436
16.009497869018190385759 1605.22631575978130059 16.009497869018190385759 267.28055341581818993
17.009497869018190385759 1619.13743423172468283 17.009497869018190385759 267.08366912098551893
18.009497869018190385759 1632.13274412255532297 18.009497869018190385759 267.15392096318589665
19.009497869018204596614 1644.29320332040856556 19.009497869018204596614 267.14391610917613207
20.009497869018190385759 1655.72631885794226037 20.009497869018190385759 267.14823230165734458
21.009497869018204596614 1666.54801997555136950 21.009497869018204596614 266.99854722593562428
22.009497869018190385759 1676.78597787964667987 22.009497869018190385759 266.92965820769052243
23.009497869018190385759 1686.48063297747398792 23.009497869018190385759 267.30649064731841236
24.009497869018190385759 1695.66127263865587338 24.009497869018190385759 267.35299929609578840
25.009497869018190385759 1704.39370817397707469 25.009497869018190385759 267.34586481678621794
26.009497869018204596614 1712.75588390096709190 26.009497869018204596614 267.47871235924083066
27.009497869018190385759 1720.75663534794966836 27.009497869018190385759 267.39724285753368349
28.009497869018190385759 1728.40211183792689553 28.009497869018190385759 267.49230969274481140
29.009497869018190385759 1735.71541135115830912 29.009497869018190385759 267.80067126382607512
30.009497869018190385759 1742.70687315196641975 30.009497869018190385759 267.81758293281592387
31.009497869018190385759 1749.41222735533870036 31.009497869018190385759 267.71962728354299088
32.009497869018190385759 1755.86913736150700061 32.009497869018190385759 267.59781307719703136
33.009497869018190385759 1762.09555180207757985 33.009497869018190385759 267.48998942677502555
34.009497869018190385759 1768.09194938029349942 34.009497869018190385759 267.27923825814650627
35.009497869018190385759 1773.86305501628885395 35.009497869018190385759 267.22872270763571123
36.009497869018190385759 1779.42393189265726505 36.009497869018190385759 267.22132785787636067
37.009497869018190385759 1784.78314034542154332 37.009497869018190385759 267.12143002461584729
38.009497869018190385759 1789.94689221771523080 38.009497869018190385759 266.88483230955597492
39.009497869018190385759 1794.93635121430088475 39.009497869018190385759 266.51239883260990382
40.009497869018190385759 1799.76850501548960892 40.009497869018190385759 265.99408983143183605
41.009497869018190385759 1804.45710837944875493 41.009497869018190385759 265.69623335108047968
42.009497869018190385759 1808.99815304932917570 42.009497869018190385759 265.13508264382829793
43.009497869018190385759 1813.39483346883821469 43.009497869018190385759 264.76023862495458161
44.009497869018218807469 1817.64814981354402335 44.009497869018218807469 264.42654996267890510
46.009497869018190385759 1825.76099421338722095 46.009497869018190385759 263.52059273318786836
48.009497869018190385759 1833.34983262948139782 48.009497869018190385759 262.59472133451453146
50.009497869018190385759 1840.50045686462021877 50.009497869018190385759 261.77816653232986255
52.009497869018190385759 1847.28402628174490019 52.009497869018190385759 261.20217186777870211
54.009497869018190385759 1853.71195565754260315 54.009497869018190385759 260.65608499653637864
56.009497869018190385759 1859.79827379576204294 56.009497869018190385759 260.41749409544405580
58.009497869018218807469 1865.58551588581485703 58.009497869018218807469 260.20120128340778365
60.009497869018190385759 1871.14154166275852731 60.009497869018190385759 259.89557515592690606
62.009497869018190385759 1876.44829712266960087 62.009497869018190385759 259.54627914823868196
64.009497869018190385759 1881.52341081007148205 64.009497869018190385759 259.26187469293535059
66.009497869018190385759 1886.37869047144749857 66.009497869018190385759 258.94836845033688633
68.009497869018190385759 1891.02094559052238765 68.009497869018190385759 258.30252722721962755
70.009497869018190385759 1895.45006784368547414 70.009497869018190385759 257.80017207758800168
72.009497869018218807469 1899.69223958350789871 72.009497869018218807469 256.45770179607194450
74.009497869018190385759 1903.76787941139195937 74.009497869018190385759 255.27594273109909295
76.009497869018190385759 1907.69213074802792107 76.009497869018190385759 254.28992685003763086
78.009497869018190385759 1911.45867489871648104 78.009497869018190385759 252.99601246824977352
80.009497869018190385759 1915.06748645555035182 80.009497869018190385759 252.14348177207014601
82.009497869018218807469 1918.52210161879406769 82.009497869018218807469 251.35793422012551446
84.009497869018190385759 1921.83423120054999345 84.009497869018190385759 250.25532835469672932
86.009497869018190385759 1924.97677415074053897 86.009497869018190385759 249.04599737712922547
88.009497869018190385759 1927.98281259896612028 88.009497869018190385759 248.26864598760289482
91.009497869018218807469 1932.29186084732782547 91.009497869018218807469 247.58772472756470506
94.009497869018190385759 1936.41995338636638735 94.009497869018190385759 247.14676398988251549
97.009497869018190385759 1940.38115993260953474 97.009497869018190385759 247.12991701726639349
99.504748934509109403734 1943.54695191916152908 99.504748934509109403734 241.30021863017495320
nan nan nan nan

