Time Pressure difference Time.1 Pressure.1 difference.1
(hr) (psi) (hr) (psi)
0.000200000000006639311 0.81072283196545925 0.000200000000006639311 0.64743725430108867
0.000399999999999067768 1.61858601042930750 0.000399999999999067768 1.68356987423623572
0.000600000000005707079 2.42408656998249583 0.000600000000005707079 2.45807243811558163
0.000799999999998135536 3.22745433728881226 0.000799999999998135536 3.24353259933061500
0.001007140329434719206 4.05740813824196245 0.001007140329434719206 4.06493522596505663
0.001267914553963578328 5.09940667419440175 0.001267914553963578328 5.10201209420284840
0.001596209851982166583 6.40694070409487981 0.001596209851982166583 6.39997625183442942
0.002009509145210586212 8.04665596940595762 0.002009509145210586212 8.02263726608848415
0.002529822128138903281 10.10142487139487599 0.002529822128138903281 10.04850623018442590
0.003184857364445292660 12.67404296818654785 0.003184857364445292660 12.57373974546962359
0.004009497869020606231 15.89165521614305376 0.004009497869020606231 15.71543867128096572
0.005047658755842121536 19.91096976137706775 0.005047658755842121536 19.61521689613641328
0.006354625877804664924 24.92432483768628515 0.006354625877804664924 24.44286814679969666
0.008000000000009777068 31.16658687547629469 0.008000000000009777068 30.39981080760767185
0.010071403294347192059 38.92279726467543810 0.010071403294347192059 37.72181704199887520
0.012679145539692626699 48.53631745711783907 0.012679145539692626699 46.68015512687006208
0.015962098519750611558 60.41698722104068509 0.015962098519750611558 57.58003657288193722
0.020095091452091651263 75.04853327075173297 0.020095091452091651263 70.75481591834291351
0.025298221281346400247 92.99402568441965400 0.025298221281346400247 86.55371683101515146
0.031848573644282396344 114.89759086815580247 0.031848573644282396344 105.32038162885380927
0.040094978690191851456 141.47993027034894453 0.040094978690191851456 127.35901261360847059
0.050476587558421215363 173.52436240651235266 0.050476587558421215363 152.88753289375028999
0.063546258777947173257 211.85067213038672662 0.063546258777947173257 181.97132917560233523
0.079999999999998294697 257.27052451301580049 0.079999999999998294697 214.44302045322217509
0.100714032943542974863 310.52424433162678952 0.100714032943542974863 249.81874266578520860
0.126791455396897845276 372.19757171193703016 0.126791455396897845276 287.20754993790336584
0.159620985197506115583 442.61667669280359405 0.159620985197506115583 325.27217480172026853
0.200950914520774404082 521.74689762758259803 0.200950914520774404082 362.23924392941358974
0.252982212813464002465 609.09269021693501145 0.252982212813464002465 396.02925501400045505
0.318485736442795541734 703.65659948787470057 0.318485736442795541734 424.50202001490941939
0.400949786901819038576 803.95275529822606586 0.400949786901819038576 445.80719183925924654
0.504765875584169521062 908.12768278812086464 0.504765875584169521062 458.78176444474411255
0.635462587779443310865 1014.15691439487989101 0.635462587779443310865 463.23410138734953989
0.799999999999997157829 1120.09601390309944691 0.799999999999997157829 460.03251745761446045
1.007140329435330272645 1224.31660594173035861 1.007140329435330272645 450.93707905062444752
1.267914553968893187630 1325.67784865324506427 1.267914553968893187630 438.20924347640413998
1.596209851975103788391 1423.58040316242500012 1.596209851975103788391 424.12249968142089074
2.009509145207687197399 1517.91061418207505085 2.009509145207687197399 410.58503974431846473
2.529822128134711078928 1608.91919151873207738 2.529822128134711078928 398.90518105567014118
3.184857364427983839050 1697.05681288014989150 3.184857364427983839050 389.74449605240948813
4.009497869018190385759 1782.83113941571241412 4.009497869018190385759 383.21977525416571098
5.009497869018190385759 1863.95792801360266822 5.009497869018190385759 379.14054777050137091
6.009497869018190385759 1929.15284349328362623 6.009497869018190385759 377.18193577016126028
7.009497869018204596614 1983.58454937553460695 7.009497869018204596614 376.28551043334067572
8.009497869018190385759 2030.23360180249869700 8.009497869018190385759 376.05982026014379471
9.009497869018204596614 2071.01569618307257770 9.009497869018204596614 376.12920338845663082
10.009497869018190385759 2107.15279700558039622 10.009497869018190385759 376.22353970696104852
11.009497869018190385759 2139.59366367241636908 11.009497869018190385759 376.25143120156877785
12.009497869018190385759 2168.93472240527262329 12.009497869018190385759 376.54128867450936013
13.009497869018190385759 2195.68770862685005341 13.009497869018190385759 376.67094477915270545
14.009497869018204596614 2220.29013855770062946 14.009497869018204596614 376.73429288624021183
15.009497869018190385759 2242.98369834298682690 15.009497869018190385759 376.97228202902471139
16.009497869018190385759 2264.01861875945996871 16.009497869018190385759 376.97372851710770192
17.009497869018190385759 2283.63892458116106354 17.009497869018190385759 376.69604199722812155
18.009497869018190385759 2301.96756974510708460 18.009497869018190385759 376.79512552033156680
19.009497869018204596614 2319.11873763109633728 19.009497869018204596614 376.78101462797093291
20.009497869018190385759 2335.24405665513268104 20.009497869018190385759 376.78710220580580881
21.009497869018204596614 2350.50703395395703410 21.009497869018204596614 376.57598568282253382
22.009497869018190385759 2364.94669712505037751 22.009497869018190385759 376.47882429292769757
23.009497869018190385759 2378.62008350580117622 23.009497869018190385759 377.01031050835661063
24.009497869018190385759 2391.56850013775738262 24.009497869018190385759 377.07590652166106793
25.009497869018190385759 2403.88476759797913473 25.009497869018190385759 377.06584401905109871
26.009497869018204596614 2415.67881891234674185 26.009497869018204596614 377.25321280725290762
27.009497869018190385759 2426.96311575086565426 27.009497869018190385759 377.13830784530767914
28.009497869018190385759 2437.74633114713378745 28.009497869018190385759 377.27239054930481643
29.009497869018190385759 2448.06104259932135392 29.009497869018190385759 377.70730513510727633
30.009497869018190385759 2457.92183265364019462 30.009497869018190385759 377.73115743125475774
31.009497869018190385759 2467.37909522949485108 31.009497869018190385759 377.59300033054609003
32.009497869018190385759 2476.48595096073813693 32.009497869018190385759 377.42119301061313763
33.009497869018190385759 2485.26771468038714374 33.009497869018190385759 377.26911803545152679
34.009497869018190385759 2493.72506155370865599 34.009497869018190385759 376.97187361264587935
35.009497869018190385759 2501.86465562991043043 35.009497869018190385759 376.90062624660760093
36.009497869018190385759 2509.70774209137789512 36.009497869018190385759 376.89019651631110719
37.009497869018190385759 2517.26639447562365604 37.009497869018190385759 376.74930015032521169
38.009497869018190385759 2524.54937399492791883 38.009497869018190385759 376.41560163891125512
39.009497869018190385759 2531.58653003635527057 39.009497869018190385759 375.89031974079085785
40.009497869018190385759 2538.40182210277134800 40.009497869018190385759 375.15929432872462712
41.009497869018190385759 2545.01464996870254254 41.009497869018190385759 374.73919617146611927
42.009497869018190385759 2551.41936037015238981 42.009497869018190385759 373.94774661904108370
43.009497869018190385759 2557.62045876529782618 43.009497869018190385759 373.41906488143877141
44.009497869018218807469 2563.61935580638601095 44.009497869018218807469 372.94842884909627401
46.009497869018190385759 2575.06174906396836377 46.009497869018190385759 371.67066258322455496
48.009497869018190385759 2585.76508185892180336 48.009497869018190385759 370.36480928104936083
50.009497869018190385759 2595.85035534663256840 50.009497869018190385759 369.21313661207210544
52.009497869018190385759 2605.41793302165160640 52.009497869018190385759 368.40075107363009010
54.009497869018190385759 2614.48391433780579973 54.009497869018190385759 367.63054762517276686
56.009497869018190385759 2623.06808558477405313 56.009497869018190385759 367.29403791496156373
58.009497869018218807469 2631.23043859039762538 58.009497869018218807469 366.98897753266760446
60.009497869018190385759 2639.06668303880405801 60.009497869018190385759 366.55792102916853992
62.009497869018190385759 2646.55135547937243246 62.009497869018190385759 366.06527232468340571
64.009497869018190385759 2653.70931929281778139 64.009497869018190385759 365.66414696575850485
66.009497869018190385759 2660.55722817938294611 66.009497869018190385759 365.22197631145780861
68.009497869018190385759 2667.10468626640113143 68.009497869018190385759 364.31107886382420702
70.009497869018190385759 2673.35154077375318593 70.009497869018190385759 363.60255483775426910
72.009497869018218807469 2679.33471941257766957 72.009497869018218807469 361.70912854474892129
74.009497869018190385759 2685.08302067271461055 74.009497869018190385759 360.04237009472939235
76.009497869018190385759 2690.61780290473279820 76.009497869018190385759 358.65168873646922520
78.009497869018190385759 2695.93015419240919073 78.009497869018190385759 356.82674590897653388
80.009497869018190385759 2701.02003870031421684 80.009497869018190385759 355.62433267274633408
82.009497869018218807469 2705.89244390165185905 82.009497869018218807469 354.51639277289376651
84.009497869018190385759 2710.56388677996619663 84.009497869018190385759 352.96127236153756712
86.009497869018190385759 2714.99614388890540795 86.009497869018190385759 351.25562635849439630
88.009497869018190385759 2719.23587441703921286 88.009497869018190385759 350.15924636401791759
91.009497869018218807469 2725.31337599276275796 91.009497869018218807469 349.19887187009123863
94.009497869018190385759 2731.13565679926841767 94.009497869018190385759 348.57693880653948781
97.009497869018190385759 2736.72256082980766223 97.009497869018190385759 348.55317775845662709
99.504748934509109403734 2741.18760848714100575 99.504748934509109403734 340.33094419516010021
nan nan nan nan

