Time Pressure difference Time.1 Pressure.1 difference.1
(hr) (psi) (hr) (psi)
0.000200000000006639311 0.81819875971923905 0.000200000000006639311 0.65340747488378315
0.000399999999999067768 1.63351149618121716 0.000399999999999067768 1.69909459643718486
0.000600000000005707079 2.44643982728766218 0.000600000000005707079 2.48073908969656554
0.000799999999998135536 3.25721569900561514 0.000799999999998135536 3.27344222370968829
0.001007140329434719206 4.09482276246755461 0.001007140329434719206 4.10241925981104494
0.001267914553963578328 5.14642989147693264 0.001267914553963578328 5.14905933687480033
0.001596209851982166583 6.46602109993182061 0.001596209851982166583 6.45899242628782044
0.002009509145210586212 8.12085669043531588 0.002009509145210586212 8.09661650317331727
0.002529822128138903281 10.19457325647946178 0.002529822128138903281 10.14116663599555146
0.003184857364445292660 12.79091426604892412 0.003184857364445292660 12.68968611607333763
0.004009497869020606231 16.03819711875092935 0.004009497869020606231 15.86035562624154949
0.005047658755842121536 20.09457501532419244 0.005047658755842121536 19.79609492079340782
0.006354625877804664924 25.15415980032888399 0.006354625877804664924 24.66826344733371101
0.008000000000009777068 31.45398368068048001 0.008000000000009777068 30.68013693185815427
0.010071403294347192059 39.28171650174724761 0.010071403294347192059 38.06966166636156146
0.012679145539692626699 48.98388595825929315 0.012679145539692626699 47.11060737701537704
0.015962098519750611558 60.97411107861176305 0.015962098519750611558 58.11100002488596772
0.020095091452091651263 75.74057917181399091 0.020095091452091651263 71.40726811431125043
0.025298221281346400247 93.85155256060794216 0.025298221281346400247 87.35185561326836989
0.031848573644282396344 115.95709734132528013 0.031848573644282396344 106.29157367256250666
0.040094978690191851456 142.78456077489110498 0.040094978690191851456 128.53342973811922434
0.050476587558421215363 175.12448460083473378 0.050476587558421215363 154.29735645527051702
0.063546258777947173257 213.80421316437596602 0.063546258777947173257 183.64934348152490884
0.079999999999998294697 259.64289615299236402 0.079999999999998294697 216.42046633854903348
0.100714032943542974863 313.38768510927496891 0.100714032943542974863 252.12239910430167811
0.126791455396897845276 375.62972145108398081 0.126791455396897845276 289.85598021397009916
0.159620985197506115583 446.69818293279871568 0.159620985197506115583 328.27161083985089363
0.200950914520774404082 526.55808828193528370 0.200950914520774404082 365.57956482630368100
0.252982212813464002465 614.70932363082067695 0.252982212813464002465 399.68116412785906277
0.318485736442795541734 710.14523616348014912 0.318485736442795541734 428.41648536340755982
0.400949786901819038576 811.36625406634493629 0.400949786901819038576 449.91811881318687938
0.504765875584169521062 916.50181101055227373 0.504765875584169521062 463.01233399392725687
0.635462587779443310865 1023.50877118745552252 0.635462587779443310865 467.50572732227391270
0.799999999999997157829 1130.42476812966492616 0.799999999999997157829 464.27462058990801097
1.007140329435330272645 1235.60641070963561106 1.007140329435330272645 455.09531031236173249
1.267914553968893187630 1337.90233701172792280 1.267914553968893187630 442.25010740190373326
1.596209851975103788391 1436.70768147027501982 1.596209851975103788391 428.03346535471263223
2.009509145207687197399 1531.90774074727869447 2.009509145207687197399 414.37117228294437155
2.529822128134711078928 1623.75553652249072911 2.529822128134711078928 402.58360997933925773
3.184857364427983839050 1712.70590234318387957 3.184857364427983839050 393.33845144633539803
4.009497869018190385759 1799.27118066032448951 4.009497869018190385759 386.75356416532093817
5.009497869018190385759 1881.14606464487565063 5.009497869018190385759 382.63672085445068660
6.009497869018190385759 1946.94216274680752576 6.009497869018190385759 380.66004788279599325
7.009497869018204596614 2001.87580034313714350 7.009497869018204596614 379.75535632873010172
8.009497869018190385759 2048.95501821256266339 8.009497869018190385759 379.52758499614918719
9.009497869018204596614 2090.11317698803941312 9.009497869018204596614 379.59760792789944617
10.009497869018190385759 2126.58350927304945799 10.009497869018190385759 379.69281415098015486
11.009497869018190385759 2159.32352327595299357 11.009497869018190385759 379.72096284174716629
12.009497869018190385759 2188.93514505040320728 12.009497869018190385759 380.01349318072925598
13.009497869018190385759 2215.93482889082679321 13.009497869018190385759 380.14434488469817097
14.009497869018204596614 2240.76412549112228589 14.009497869018204596614 380.20827714441247736
15.009497869018190385759 2263.66694965967371900 15.009497869018190385759 380.44846085921039958
16.009497869018190385759 2284.89583962916822202 16.009497869018190385759 380.44992068581058220
17.009497869018190385759 2304.69707040209368643 17.009497869018190385759 380.16967353203864377
18.009497869018190385759 2323.19472971201867040 18.009497869018190385759 380.26967073517073459
19.009497869018204596614 2340.50405385925205337 19.009497869018204596614 380.25542972187645319
20.009497869018190385759 2356.77806947264934934 20.009497869018190385759 380.26157343516257470
21.009497869018204596614 2372.18179143918814589 21.009497869018204596614 380.04851014096334438
22.009497869018190385759 2386.75460724198228490 22.009497869018190385759 379.95045279562896212
23.009497869018190385759 2400.55408017747367921 23.009497869018190385759 380.48684001099513807
24.009497869018190385759 2413.62189819230616195 24.009497869018190385759 380.55304090556984420
25.009497869018190385759 2426.05173779099322928 25.009497869018190385759 380.54288561348903386
26.009497869018204596614 2437.95454572608787203 26.009497869018204596614 380.73198218764770218
27.009497869018190385759 2449.34289858053534772 27.009497869018190385759 380.61601765125823249
28.009497869018190385759 2460.22554936467940934 28.009497869018190385759 380.75133677363243123
29.009497869018190385759 2470.63537598394623274 29.009497869018190385759 381.19026184229579712
30.009497869018190385759 2480.58709545474948754 30.009497869018190385759 381.21433408789545183
31.009497869018190385759 2490.13156639452108720 31.009497869018190385759 381.07490299752862484
32.009497869018190385759 2499.32239927902355703 32.009497869018190385759 380.90151138878474057
33.009497869018190385759 2508.18514237723502447 33.009497869018190385759 380.74803408290961215
34.009497869018190385759 2516.72047708033096569 34.009497869018190385759 380.44804867669694204
35.009497869018190385759 2524.93512888879286038 35.009497869018190385759 380.37614431650456481
36.009497869018190385759 2532.85053889344999334 36.009497869018190385759 380.36561841041645948
37.009497869018190385759 2540.47889196566529790 37.009497869018190385759 380.22342279515407881
38.009497869018190385759 2547.82903010758627715 38.009497869018190385759 379.88664714582745319
39.009497869018190385759 2554.93107795677269678 39.009497869018190385759 379.35652145971204163
40.009497869018190385759 2561.80921595412883107 40.009497869018190385759 378.61875503462476900
41.009497869018190385759 2568.48302276554477430 41.009497869018190385759 378.19478302140794312
42.009497869018190385759 2574.94679299651625115 42.009497869018190385759 377.39603526614286011
43.009497869018190385759 2581.20507365145340373 43.009497869018190385759 376.86247838956683154
44.009497869018218807469 2587.25928839066591536 44.009497869018218807469 376.38750247577848995
46.009497869018190385759 2598.80719552050049970 46.009497869018190385759 375.09795352917637956
48.009497869018190385759 2609.60922708098132716 48.009497869018190385759 373.78005854696073129
50.009497869018190385759 2619.78750001683647497 50.009497869018190385759 372.61776594558506304
52.009497869018190385759 2629.44330330566299381 52.009497869018190385759 371.79788914705500247
54.009497869018190385759 2638.59288485936349389 54.009497869018190385759 371.02058341269992070
56.009497869018190385759 2647.25621342315844231 56.009497869018190385759 370.68097064163640653
58.009497869018218807469 2655.49383402821877098 58.009497869018218807469 370.37309720253847445
60.009497869018190385759 2663.40233892748165090 60.009497869018190385759 369.93806579275724289
62.009497869018190385759 2670.95602986391577360 62.009497869018190385759 369.44087422111999786
64.009497869018190385759 2678.17999949121440295 64.009497869018190385759 369.03604996031987184
66.009497869018190385759 2685.09105507857748307 66.009497869018190385759 368.58980191269046145
68.009497869018190385759 2691.69888931598916315 68.009497869018190385759 367.67050479597008916
70.009497869018190385759 2698.00334801449434963 70.009497869018190385759 366.95544724916800305
72.009497869018218807469 2704.04169940716064957 72.009497869018218807469 365.04456108255908475
74.009497869018190385759 2709.84300754367222908 74.009497869018190385759 363.36243293371762775
76.009497869018190385759 2715.42882772660050250 76.009497869018190385759 361.95892766948998087
78.009497869018190385759 2720.79016586016768997 78.009497869018190385759 360.11715647576011179
80.009497869018190385759 2725.92698577849296271 80.009497869018190385759 358.90365541255647486
82.009497869018218807469 2730.84432094582734862 82.009497869018218807469 357.78549885379129591
84.009497869018190385759 2735.55884065396185179 84.009497869018190385759 356.21603819274031366
86.009497869018190385759 2740.03196898624173627 86.009497869018190385759 354.49466389663626842
88.009497869018190385759 2744.31079539014717739 88.009497869018190385759 353.38817384073530548
91.009497869018218807469 2750.44433950089296559 91.009497869018218807469 352.41894343446710991
94.009497869018190385759 2756.32030937221225031 94.009497869018190385759 351.79127533241944548
97.009497869018190385759 2761.95873198500066792 97.009497869018190385759 351.76729517631122235
99.504748934509109403734 2766.46495323753470075 99.504748934509109403734 343.46924183630397920
nan nan nan nan

