Time Pressure difference Time.1 Pressure.1 difference.1
(hr) (psi) (hr) (psi)
0.000200000000006639311 0.68612403606912842 0.000200000000006639311 0.54793357792284758
0.000399999999999067768 1.36982791456414743 0.000399999999999067768 1.42482450422042106
0.000600000000005707079 2.05153228156305500 0.000600000000005707079 2.08029491176585069
0.000799999999998135536 2.73143164200876942 0.000799999999998135536 2.74503885967939354
0.001007140329434719206 3.43383106781543157 0.001007140329434719206 3.44020132853190219
0.001267914553963578328 4.31568638615222966 0.001267914553963578328 4.31789138300363895
0.001596209851982166583 5.42226744014587148 0.001596209851982166583 5.41637334427790851
0.002009509145210586212 6.80997728558331961 0.002009509145210586212 6.78964998134127828
0.002529822128138903281 8.54895178665181099 0.002529822128138903281 8.50416613333231020
0.003184857364445292660 10.72618800381361659 0.003184857364445292660 10.64130023540769265
0.004009497869020606231 13.44929017267844706 0.004009497869020606231 13.30015608860458798
0.005047658755842121536 16.85088219559166234 0.005047658755842121536 16.60058315185315081
0.006354625877804664924 21.09374212697629858 0.006354625877804664924 20.68627980456613713
0.008000000000009777068 26.37664012207317654 0.008000000000009777068 25.72770873676632775
0.010071403294347192059 32.94080998014540285 0.010071403294347192059 31.92440663595396089
0.012679145539692626699 41.07684243809357838 0.012679145539692626699 39.50595095778142252
0.015962098519750611558 51.13158959485615185 0.015962098519750611558 48.73064570614802449
0.020095091452091651263 63.51443491971406985 0.020095091452091651263 59.88061265220415663
0.025298221281346400247 78.70191108128138069 0.025298221281346400247 73.25140379346160557
0.031848573644282396344 97.23914964866463606 0.031848573644282396344 89.13384756704225254
0.040094978690191851456 119.73608852797974578 0.040094978690191851456 107.78539387176290631
0.050476587558421215363 146.85565916780657858 0.050476587558421215363 129.39047353507964999
0.063546258777947173257 179.29165489723303040 0.063546258777947173257 154.00442407689297397
0.079999999999998294697 217.73099718007279080 0.079999999999998294697 181.48558903110810547
0.100714032943542974863 262.80023137082349649 0.100714032943542974863 211.42446869051084946
0.126791455396897845276 314.99507605948770106 0.126791455396897845276 243.06704533679115343
0.159620985197506115583 374.59157269288499492 0.159620985197506115583 275.28157416620996401
0.200950914520774404082 441.56038672170416248 0.200950914520774404082 306.56722898124547783
0.252982212813464002465 515.48213331884051058 0.252982212813464002465 335.16410311635695507
0.318485736442795541734 595.51265489445131607 0.318485736442795541734 359.26093087327370768
0.400949786901819038576 680.39444249624455097 0.400949786901819038576 377.29174227379934337
0.504765875584169521062 768.55887908093006899 0.504765875584169521062 388.27227195835922657
0.635462587779443310865 858.29263451861754675 0.635462587779443310865 392.04033580527743652
0.799999999999997157829 947.95011012700831543 0.799999999999997157829 389.33079858605486834
1.007140329435330272645 1036.15319314330872658 1.007140329435330272645 381.63322468833587209
1.267914553968893187630 1121.93637601186514985 1.267914553968893187630 370.86151138474366462
1.596209851975103788391 1204.79243136492118538 1.596209851975103788391 358.93973845989097526
2.009509145207687197399 1284.62517142868227893 2.009509145207687197399 347.48283076722037777
2.529822128134711078928 1361.64677478941871414 2.529822128134711078928 337.59803232785196769
3.184857364427983839050 1436.23865516291380118 3.184857364427983839050 329.84523948697767537
4.009497869018190385759 1508.83045200551077869 4.009497869018190385759 324.32329340157878050
5.009497869018190385759 1577.48898415905296133 5.009497869018190385759 320.87099637134645036
6.009497869018190385759 1632.66418926788128374 6.009497869018190385759 319.21340055958324911
7.009497869018204596614 1678.73036658216369688 7.009497869018204596614 318.45474551018384091
8.009497869018190385759 1718.20999496809827178 8.009497869018190385759 318.26374132672003725
9.009497869018204596614 1752.72434943362486592 9.009497869018204596614 318.32246106441107258
10.009497869018190385759 1783.30759254775534828 10.009497869018190385759 318.40229897330925724
11.009497869018190385759 1810.76267028013944582 11.009497869018190385759 318.42590386526211432
12.009497869018190385759 1835.59434498642963263 12.009497869018190385759 318.67121357084505462
13.009497869018190385759 1858.23570422723173579 13.009497869018190385759 318.78094302006161342
14.009497869018204596614 1879.05702300067696342 14.009497869018204596614 318.83455525003523690
15.009497869018190385759 1898.26284306486377318 15.009497869018190385759 319.03596819259678341
16.009497869018190385759 1916.06493759765794493 16.009497869018190385759 319.03719237206041726
17.009497869018190385759 1932.66982756561355927 17.009497869018190385759 318.80218308371968305
18.009497869018190385759 1948.18157029657641033 18.009497869018190385759 318.88603860634623288
19.009497869018204596614 1962.69680049516978215 19.009497869018204596614 318.87409639621313318
20.009497869018190385759 1976.34384302985586146 20.009497869018190385759 318.87924838319219134
21.009497869018204596614 1989.26107586677085237 21.009497869018204596614 318.70057804714286931
22.009497869018190385759 2001.48152850952033077 22.009497869018190385759 318.61834924790809964
23.009497869018190385759 2013.05347231126233964 23.009497869018190385759 319.06815213104766826
24.009497869018190385759 2024.01186589527424076 24.009497869018190385759 319.12366678984841428
25.009497869018190385759 2034.43526438107642207 25.009497869018190385759 319.11515077841823995
26.009497869018204596614 2044.41670534999843767 26.009497869018204596614 319.27372313400712756
27.009497869018190385759 2053.96673525636788327 27.009497869018190385759 319.17647774613124056
28.009497869018190385759 2063.09269418804569796 28.009497869018190385759 319.28995347717807363
29.009497869018190385759 2071.82215285557322204 29.009497869018190385759 319.65802668196585046
30.009497869018190385759 2080.16745263515031183 30.009497869018190385759 319.67821315391029202
31.009497869018190385759 2088.17124247906031087 31.009497869018190385759 319.56128921417121092
32.009497869018190385759 2095.87847898931340751 32.009497869018190385759 319.41588670775252012
33.009497869018190385759 2103.31058639958973799 33.009497869018190385759 319.28718391115052100
34.009497869018190385759 2110.46813611000334276 34.009497869018190385759 319.03562254512860363
35.009497869018190385759 2117.35676798187068925 35.009497869018190385759 318.97532508165767240
36.009497869018190385759 2123.99446205684216693 36.009497869018190385759 318.96649828122230019
37.009497869018190385759 2130.39143630826356457 37.009497869018190385759 318.84725606984494561
38.009497869018190385759 2136.55510545062543315 38.009497869018190385759 318.56484319030812458
39.009497869018190385759 2142.51073136273498676 39.009497869018190385759 318.12029109210374145
40.009497869018190385759 2148.27859124681299363 40.009497869018190385759 317.50161589705589904
41.009497869018190385759 2153.87510335466004108 41.009497869018190385759 317.14608200576952868
42.009497869018190385759 2159.29548326408394132 42.009497869018190385759 316.47626916734418501
43.009497869018190385759 2164.54354399604108039 43.009497869018190385759 316.02883974597176575
44.009497869018218807469 2169.62047940171578375 44.009497869018218807469 315.63053507105894369
46.009497869018190385759 2179.30430812175973188 46.009497869018190385759 314.54914681736011062
48.009497869018190385759 2188.36266149125958691 48.009497869018190385759 313.44398818252739147
50.009497869018190385759 2196.89794417655548386 50.009497869018190385759 312.46931438685612648
52.009497869018190385759 2204.99509495479969701 52.009497869018190385759 311.78178318321567986
54.009497869018190385759 2212.66773897851180664 54.009497869018190385759 311.12995116638597892
56.009497869018190385759 2219.93262161170423497 56.009497869018190385759 310.84515913704734658
58.009497869018218807469 2226.84051462670913679 58.009497869018218807469 310.58698303481912717
60.009497869018190385759 2233.47241822751220752 60.009497869018190385759 310.22217496935780900
62.009497869018190385759 2239.80678240364886733 62.009497869018190385759 309.80524071740626368
64.009497869018190385759 2245.86464931953605628 64.009497869018190385759 309.46576372307021074
66.009497869018190385759 2251.66011319279732561 66.009497869018190385759 309.09154962424599944
68.009497869018190385759 2257.20130210660590819 68.009497869018190385759 308.32064666139223164
70.009497869018190385759 2262.48808676139333329 70.009497869018190385759 307.72101464752563516
72.009497869018218807469 2267.55171950285784987 72.009497869018218807469 306.11858624791250350
74.009497869018190385759 2272.41657282342475810 74.009497869018190385759 304.70798944492463534
76.009497869018190385759 2277.10072254027591043 76.009497869018190385759 303.53103985279057042
78.009497869018190385759 2281.59662639644466253 78.009497869018190385759 301.98656979591658001
80.009497869018190385759 2285.90425406399526764 80.009497869018190385759 300.96895367591031345
82.009497869018218807469 2290.02782649873415721 82.009497869018218807469 300.03129142460068124
84.009497869018190385759 2293.98132221337300507 84.009497869018190385759 298.71517517482584481
86.009497869018190385759 2297.73239226663508816 86.009497869018190385759 297.27166738946351643
88.009497869018190385759 2301.32052486524025880 88.009497869018190385759 296.34378841872825205
91.009497869018218807469 2306.46398419059642038 91.009497869018218807469 295.53101246382721001
94.009497869018190385759 2311.39144725020059923 94.009497869018190385759 295.00466337520657589
97.009497869018190385759 2316.11970824325953799 97.009497869018190385759 294.98455412754628924
99.504748934509109403734 2319.89852931391214952 99.504748934509109403734 288.02598350942849947
nan nan nan nan

