Time Pressure difference Time.1 Pressure.1 difference.1
(hr) (psi) (hr) (psi)
0.000200000000006639311 0.30152908606912060 0.000200000000006639311 0.24079889683534339
0.000399999999999067768 0.60199459199368710 0.000399999999999067768 0.62616379543827216
0.000600000000005707079 0.90158137797504700 0.000600000000005707079 0.91422161376634847
0.000799999999998135536 1.20037492257770384 0.000799999999998135536 1.20635484995595643
0.001007140329434719206 1.50905651043220534 0.001007140329434719206 1.51185603178823302
0.001267914553963578328 1.89660309706205732 0.001267914553963578328 1.89757212110208395
0.001596209851982166583 2.38290929875659963 0.001596209851982166583 2.38031903628678077
0.002009509145210586212 2.99276241485078121 0.002009509145210586212 2.98382922908823733
0.002529822128138903281 3.75698486507821761 0.002529822128138903281 3.73730303438211697
0.003184857364445292660 4.71380901378249639 0.003184857364445292660 4.67650361434986994
0.004009497869020606231 5.91052340518435315 0.004009497869020606231 5.84498385007683474
0.005047658755842121536 7.40541190920069248 0.005047658755842121536 7.29541366116548939
0.006354625877804664924 9.27001015991815613 0.006354625877804664924 9.09094378820521420
0.008000000000009777068 11.59167114323554770 0.008000000000009777068 11.30648701143605095
0.010071403294347192059 14.47640922856268908 0.010071403294347192059 14.02973318262867686
0.012679145539692626699 18.05192954603869993 0.012679145539692626699 17.36157408919450162
0.015962098519750611558 22.47066225536656958 0.015962098519750611558 21.41552589749604962
0.020095091452091651263 27.91251800951114603 0.020095091452091651263 26.31557190405582247
0.025298221281346400247 34.58691733959460635 0.025298221281346400247 32.19159755087961372
0.031848573644282396344 42.73342775116860537 0.031848573644282396344 39.17141242958394542
0.040094978690191851456 52.62009701653347093 0.040094978690191851456 47.36815735526626270
0.050476587558421215363 64.53826183766803126 0.050476587558421215363 56.86288364798294026
0.063546258777947173257 78.79282170423194032 0.063546258777947173257 67.67991033887669516
0.079999999999998294697 95.68565614572206357 0.079999999999998294697 79.75698404151603427
0.100714032943542974863 115.49211136514398390 0.100714032943542974863 92.91414302016396221
0.126791455396897845276 138.43003947892739802 0.126791455396897845276 106.82002113469151539
0.159620985197506115583 164.62075167980296442 0.159620985197506115583 120.97725353793488523
0.200950914520774404082 194.05135639222589816 0.200950914520774404082 134.72627617456674898
0.252982212813464002465 226.53754769338874553 0.252982212813464002465 147.29366759229728245
0.318485736442795541734 261.70834591608456776 0.318485736442795541734 157.88343572275829274
0.400949786901819038576 299.01111698079517964 0.400949786901819038576 165.80738794841303729
0.504765875584169521062 337.75650497140151174 0.504765875584169521062 170.63297181705135586
0.635462587779443310865 377.19155730055467757 0.635462587779443310865 172.28891270861464591
0.799999999999997157829 416.59308713814044722 0.799999999999997157829 171.09815966917423680
1.007140329435330272645 455.35545897218042910 1.007140329435330272645 167.71532755673840143
1.267914553968893187630 493.05436379213932696 1.267914553968893187630 162.98151166181835947
1.596209851975103788391 529.46689174995924532 1.596209851975103788391 157.74228215610222037
2.009509145207687197399 564.55077146321025339 2.009509145207687197399 152.70734572457746481
2.529822128134711078928 598.39924848493831178 2.529822128134711078928 148.36329992131996391
3.184857364427983839050 631.17994167571146136 3.184857364427983839050 144.95620088834490957
4.009497869018190385759 663.08166353268825333 4.009497869018190385759 142.52948608326042290
5.009497869018190385759 693.25484412800994960 5.009497869018190385759 141.01231438595490886
6.009497869018190385759 717.50254322547334596 6.009497869018190385759 140.28385520959892574
7.009497869018204596614 737.74712235995809806 7.009497869018204596614 139.95045111403962323
8.009497869018190385759 755.09712853924895626 8.009497869018190385759 139.86651101888543280
9.009497869018204596614 770.26505913366327150 9.009497869018204596614 139.89231642419034074
10.009497869018190385759 783.70539478793602939 10.009497869018190385759 139.92740257543735538
11.009497869018190385759 795.77100400931067270 11.009497869018190385759 139.93777615386218827
12.009497869018190385759 806.68371335360041030 12.009497869018190385759 140.04558175086771143
13.009497869018190385759 816.63385064707631500 13.009497869018190385759 140.09380425700044270
14.009497869018204596614 825.78413964799733549 14.009497869018204596614 140.11736507961597908
15.009497869018190385759 834.22446977305753535 15.009497869018190385759 140.20587948415570168
16.009497869018190385759 842.04790841156147962 16.009497869018190385759 140.20641747101444707
17.009497869018190385759 849.34521477762439190 17.009497869018190385759 140.10313857069036203
18.009497869018190385759 856.16211866544449549 18.009497869018190385759 140.13999033184464338
19.009497869018204596614 862.54108786894255445 19.009497869018204596614 140.13474212085395720
20.009497869018190385759 868.53851697316918035 20.009497869018190385759 140.13700625072488037
21.009497869018204596614 874.21521857099014596 21.009497869018204596614 140.05848647834486087
22.009497869018190385759 879.58570804958344524 22.009497869018190385759 140.02234960894750770
23.009497869018190385759 884.67119909078462570 23.009497869018190385759 140.22002327308754843
24.009497869018190385759 889.48705486680933063 24.009497869018190385759 140.24442015098665593
25.009497869018190385759 894.06779778490408717 25.009497869018190385759 140.24067764233151934
26.009497869018204596614 898.45431482088315533 26.009497869018204596614 140.31036500925492305
27.009497869018190385759 902.65124079668464674 27.009497869018190385759 140.26762884000683584
28.009497869018190385759 906.66180144099348581 28.009497869018190385759 140.31749771454676079
29.009497869018190385759 910.49811317987052917 29.009497869018190385759 140.47925385660241204
30.009497869018190385759 914.16559964474527078 30.009497869018190385759 140.48812515117364796
31.009497869018190385759 917.68300365605193747 31.009497869018190385759 140.43674090162730295
32.009497869018190385759 921.07008217084830903 32.009497869018190385759 140.37284125292271142
33.009497869018190385759 924.33625043952918077 33.009497869018190385759 140.31628058080829646
34.009497869018190385759 927.48175957376656697 34.009497869018190385759 140.20572758339187658
35.009497869018190385759 930.50908810825558248 35.009497869018190385759 140.17922881917886002
36.009497869018190385759 933.42613768357603021 36.009497869018190385759 140.17534972891490952
37.009497869018190385759 936.23739876501167601 37.009497869018190385759 140.12294667476234622
38.009497869018190385759 938.94612987721188802 38.009497869018190385759 139.99883544561964754
39.009497869018190385759 941.56343279016084580 39.009497869018190385759 139.80346932982280350
40.009497869018190385759 944.09821867142011342 40.009497869018190385759 139.53158180463836402
41.009497869018190385759 946.55770280598255795 41.009497869018190385759 139.37533628098586291
42.009497869018190385759 948.93978259668563169 42.009497869018190385759 139.08097543310645960
43.009497869018190385759 951.24613374160151125 43.009497869018190385759 138.88434482783020485
44.009497869018218807469 953.47728089930126316 44.009497869018218807469 138.70930294285037121
46.009497869018190385759 957.73300708014380689 46.009497869018190385759 138.23406815339191667
48.009497869018190385759 961.71385728974235008 48.009497869018190385759 137.74838705842307718
50.009497869018190385759 965.46483503158549411 50.009497869018190385759 137.32004978502271797
52.009497869018190385759 969.02326812178239379 52.009497869018190385759 137.01790229480297967
54.009497869018190385759 972.39514436949116316 54.009497869018190385759 136.73144343026405068
56.009497869018190385759 975.58782281482899634 56.009497869018190385759 136.60628664255230547
58.009497869018218807469 978.62361599212533747 58.009497869018218807469 136.49282668479338554
60.009497869018190385759 981.53812084332560062 60.009497869018190385759 136.33250546474201315
62.009497869018190385759 984.32186684325006354 62.009497869018190385759 136.14927648961071327
64.009497869018190385759 986.98410133534082433 64.009497869018190385759 136.00008744730570243
66.009497869018190385759 989.53101826753675141 66.009497869018190385759 135.83563258305241561
68.009497869018190385759 991.96618966670462214 68.009497869018190385759 135.49684592988543841
70.009497869018190385759 994.28955870991012489 70.009497869018190385759 135.23332726035326345
72.009497869018218807469 996.51485978152231837 72.009497869018218807469 134.52911235834412196
74.009497869018190385759 998.65280379528223875 74.009497869018190385759 133.90920117252741761
76.009497869018190385759 1000.71133448198588667 76.009497869018190385759 133.39197029850240028
78.009497869018190385759 1002.68713726623423099 78.009497869018190385759 132.71322619360500994
80.009497869018190385759 1004.58019881989139321 80.009497869018190385759 132.26601717234314037
82.009497869018218807469 1006.39237411506110220 82.009497869018218807469 131.85394526286927430
84.009497869018190385759 1008.12980625115562816 84.009497869018190385759 131.27555519184235777
86.009497869018190385759 1009.77827892589414205 86.009497869018190385759 130.64118070505477931
88.009497869018190385759 1011.35514591535365980 88.009497869018190385759 130.23340822760093261
91.009497869018218807469 1013.61552816124276433 91.009497869018218807469 129.87621976315892880
94.009497869018190385759 1015.78098710874417065 94.009497869018190385759 129.64490654382564117
97.009497869018190385759 1017.85890325944706092 97.009497869018190385759 129.63606918680301305
99.504748934509109403734 1019.51957159921335005 99.504748934509109403734 126.57800485947038283
nan nan nan nan

