Time Pressure difference Time.1 Pressure.1 difference.1
(hr) (psi) (hr) (psi)
0.000200000000006639311 0.48676596263499911 0.000200000000006639311 0.38872769571766186
0.000399999999999067768 0.97181496117989141 0.000399999999999067768 1.01083191219511703
0.000600000000005707079 1.45544542009194910 0.000600000000005707079 1.47585086960628153
0.000799999999998135536 1.93779532956070089 0.000799999999998135536 1.94744887623743890
0.001007140329434719206 2.43610775513298172 0.001007140329434719206 2.44062709263885536
0.001267914553963578328 3.06173392528475352 0.001267914553963578328 3.06329824508490667
0.001596209851982166583 3.84679021782745911 0.001596209851982166583 3.84260869218747514
0.002009509145210586212 4.83129139146710163 0.002009509145210586212 4.81687032574574925
0.002529822128138903281 6.06499485106290770 0.002529822128138903281 6.03322197836892737
0.003184857364445292660 7.60962006081692444 0.003184857364445292660 7.54939701930860618
0.004009497869020606231 9.54150610313507208 0.004009497869020606231 9.43570395632238323
0.005047658755842121536 11.95474209033500301 0.005047658755842121536 11.77716916099993583
0.006354625877804664924 14.96480978984032895 0.006354625877804664924 14.67573845699243940
0.008000000000009777068 18.71272531662818750 0.008000000000009777068 18.25234542342018074
0.010071403294347192059 23.36963032489734360 0.010071403294347192059 22.64854998628210936
0.012679145539692626699 29.14168240765476625 0.012679145539692626699 28.02722428723960846
0.015962098519750611558 36.27495339296090293 0.015962098519750611558 34.57162031937377833
0.020095091452091651263 45.05987755805380601 0.020095091452091651263 42.48188742638213000
0.025298221281346400247 55.83452771626016187 0.025298221281346400247 51.96770293337591085
0.031848573644282396344 68.98564369747879255 0.031848573644282396344 63.23539306814377881
0.040094978690191851456 84.94594174018901356 0.040094978690191851456 76.46760388481000348
0.050476587558421215363 104.18573398587730594 0.050476587558421215363 91.79517856120661179
0.063546258777947173257 127.19722732418711075 0.063546258777947173257 109.25737591895796186
0.079999999999998294697 154.46775344736397528 0.079999999999998294697 128.75369875572562250
0.100714032943542974863 186.44181063353821060 0.100714032943542974863 149.99363033007185209
0.126791455396897845276 223.47108301556872334 0.126791455396897845276 172.44223797501166473
0.159620985197506115583 265.75140629301529316 0.159620985197506115583 195.29661314939352224
0.200950914520774404082 313.26196927229852918 0.200950914520774404082 217.49200506417659540
0.252982212813464002465 365.70524228188929783 0.252982212813464002465 237.77986008012732100
0.318485736442795541734 422.48234354497395771 0.318485736442795541734 254.87518824665667694
0.400949786901819038576 482.70114201307433177 0.400949786901819038576 267.66702296906345282
0.504765875584169521062 545.24879314942495512 0.504765875584169521062 275.45708398014352269
0.635462587779443310865 608.90978671659786414 0.635462587779443310865 278.13031087396194607
0.799999999999997157829 672.51666408526250507 0.799999999999997157829 276.20804839155954369
1.007140329435330272645 735.09173266583400164 1.007140329435330272645 270.74705770867410592
1.267914553968893187630 795.95001978565733225 1.267914553968893187630 263.10514003808691541
1.596209851975103788391 854.73167648891501358 1.596209851975103788391 254.64732050544327535
2.009509145207687197399 911.36846302325409397 2.009509145207687197399 246.51929640386336473
2.529822128134711078928 966.01090802251746936 2.529822128134711078928 239.50659436334294128
3.184857364427983839050 1018.92960281533589750 3.184857364427983839050 234.00642898228684885
4.009497869018190385759 1070.42935214918816200 4.009497869018190385759 230.08892243743969175
5.009497869018190385759 1119.13867399177365769 5.009497869018190385759 227.63971413269854338
6.009497869018190385759 1158.28234250723789955 6.009497869018190385759 226.46374422265833459
7.009497869018204596614 1190.96367411276992243 7.009497869018204596614 225.92552163313283131
8.009497869018190385759 1218.97222403305750049 8.009497869018190385759 225.79001503324207079
9.009497869018204596614 1243.45819463450879994 9.009497869018204596614 225.83167334593812825
10.009497869018190385759 1265.15526541523558990 10.009497869018190385759 225.88831379946637412
11.009497869018190385759 1284.63308085249605028 11.009497869018190385759 225.90506012717145268
12.009497869018190385759 1302.24974111628057472 12.009497869018190385759 226.07909340498207484
13.009497869018190385759 1318.31249718784238212 13.009497869018190385759 226.15694020551586618
14.009497869018204596614 1333.08403810943923418 14.009497869018204596614 226.19497503210732248
15.009497869018190385759 1346.70947461986679627 15.009497869018190385759 226.33786605431197358
16.009497869018190385759 1359.33904773877407024 16.009497869018190385759 226.33873453998475611
17.009497869018190385759 1371.11927234073800719 17.009497869018190385759 226.17200882210622126
18.009497869018190385759 1382.12397117892692222 18.009497869018190385759 226.23149954396959060
19.009497869018204596614 1392.42170107768697562 19.009497869018204596614 226.22302722540058539
20.009497869018190385759 1402.10350122941372319 20.009497869018190385759 226.22668226701043181
21.009497869018204596614 1411.26754292727332540 21.009497869018204596614 226.09992583005532651
22.009497869018190385759 1419.93725872467189220 22.009497869018190385759 226.04158917587668043
23.009497869018190385759 1428.14689439999960996 23.009497869018190385759 226.36069872735345143
24.009497869018190385759 1435.92125110730103188 24.009497869018190385759 226.40008321894816845
25.009497869018190385759 1443.31605923403253655 25.009497869018190385759 226.39404159340566025
26.009497869018204596614 1450.39732365024087812 26.009497869018204596614 226.50653965681374302
27.009497869018190385759 1457.17252646517135872 27.009497869018190385759 226.43754958744906958
28.009497869018190385759 1463.64687505350457286 28.009497869018190385759 226.51805416177521124
29.009497869018190385759 1469.83992926557607461 29.009497869018190385759 226.77918115693941559
30.009497869018190385759 1475.76044460556681770 30.009497869018190385759 226.79350231015911277
31.009497869018190385759 1481.43867807836477368 31.009497869018190385759 226.71055142797132476
32.009497869018190385759 1486.90652383503334022 32.009497869018190385759 226.60739662317553211
33.009497869018190385759 1492.17918115031443449 33.009497869018190385759 226.51608931226903110
34.009497869018190385759 1497.25705540007493255 34.009497869018190385759 226.33762083710092838
35.009497869018190385759 1502.14414774500755811 35.009497869018190385759 226.29484321773773559
36.009497869018190385759 1506.85321400158545657 36.009497869018190385759 226.28858110508025447
37.009497869018190385759 1511.39150324048705443 37.009497869018190385759 226.20398554107643463
38.009497869018190385759 1515.76427577974163796 38.009497869018190385759 226.00362967254304181
39.009497869018190385759 1519.98945348494271457 39.009497869018190385759 225.68824525420433247
40.009497869018190385759 1524.08142187727889905 40.009497869018190385759 225.24933040638589432
41.009497869018190385759 1528.05182877219226611 41.009497869018190385759 224.99709934065487005
42.009497869018190385759 1531.89727989437415090 42.009497869018190385759 224.52190524462915278
43.009497869018190385759 1535.62048036523015071 43.009497869018190385759 224.20447952922452828
44.009497869018218807469 1539.22227715424378403 44.009497869018218807469 223.92190502619919812
46.009497869018190385759 1546.09240261422678486 46.009497869018190385759 223.15472159197699398
48.009497869018190385759 1552.51878890300008607 48.009497869018190385759 222.37067442489234281
50.009497869018190385759 1558.57408630443273978 50.009497869018190385759 221.67919882651051466
52.009497869018190385759 1564.31855404783595986 52.009497869018190385759 221.19143455855248703
54.009497869018190385759 1569.76185840364155410 54.009497869018190385759 220.72899683232708412
56.009497869018190385759 1574.91587925479279875 56.009497869018190385759 220.52695309238470145
58.009497869018218807469 1579.81663628480828265 58.009497869018218807469 220.34379183826149529
60.009497869018190385759 1584.52159452944556506 60.009497869018190385759 220.08498127366064523
62.009497869018190385759 1589.01546548249189073 62.009497869018190385759 219.78919014576277391
64.009497869018190385759 1593.31317736228606918 64.009497869018190385759 219.54835053476895723
66.009497869018190385759 1597.42472921426042376 66.009497869018190385759 219.28286692470723551
68.009497869018190385759 1601.35588745093355101 68.009497869018190385759 218.73595513750100849
70.009497869018190385759 1605.10656034161797834 70.009497869018190385759 218.31055034315980379
72.009497869018218807469 1608.69891964730572909 72.009497869018218807469 217.17371857297425208
74.009497869018190385759 1612.15025626456031205 74.009497869018190385759 216.17298040523712643
76.009497869018190385759 1615.47339395714516286 76.009497869018190385759 215.33800163890470003
78.009497869018190385759 1618.66298192290173574 78.009497869018190385759 214.24228801502073338
80.009497869018190385759 1621.71899864588522178 80.009497869018190385759 213.52034728097268612
82.009497869018218807469 1624.64443865406565237 82.009497869018218807469 212.85512926733170502
84.009497869018190385759 1627.44921890682394405 84.009497869018190385759 211.92141967608711184
86.009497869018190385759 1630.11038967100262198 86.009497869018190385759 210.89733303901405748
88.009497869018190385759 1632.65596558236165947 88.009497869018190385759 210.23905570626484973
91.009497869018218807469 1636.30495730713005287 91.009497869018218807469 209.66243741380480969
94.009497869018190385759 1639.80071197169172592 94.009497869018190385759 209.28902268507391682
97.009497869018190385759 1643.15514410478203899 97.009497869018190385759 209.27475631808971457
99.504748934509109403734 1645.83600263674657072 99.504748934509109403734 204.33804641225799514
nan nan nan nan

