Time Pressure difference Time.1 Pressure.1 difference.1
(hr) (psi) (hr) (psi)
0.000200000000006639311 0.25833483682505926 0.000200000000006639311 0.20630428902421985
0.000399999999999067768 0.51575845209376492 0.000399999999999067768 0.53646540049945635
0.000600000000005707079 0.77242922465630759 0.000600000000005707079 0.78325873796510848
0.000799999999998135536 1.02842038821395554 0.000799999999998135536 1.03354368687686615
0.001007140329434719206 1.29288312601767452 0.001007140329434719206 1.29528161401140629
0.001267914553963578328 1.62491339720743744 0.001267914553963578328 1.62574360788635830
0.001596209851982166583 2.04155590058761049 0.001596209851982166583 2.03933669500051984
0.002009509145210586212 2.56404713779226689 0.002009509145210586212 2.55639363704253952
0.002529822128138903281 3.21879419570062142 0.002529822128138903281 3.20193180080671747
0.003184857364445292660 4.03855262613321386 0.003184857364445292660 4.00659125086173429
0.004009497869020606231 5.06383685678328899 0.004009497869020606231 5.00768588808235648
0.005047658755842121536 6.34458155306175087 0.005047658755842121536 6.25034062981395966
0.006354625877804664924 7.94207482020536304 0.006354625877804664924 7.78865982956424663
0.008000000000009777068 9.93115626872246793 0.008000000000009777068 9.68682496021105166
0.010071403294347192059 12.40265363659227660 0.010071403294347192059 12.01996424186644319
0.012679145539692626699 15.46597820611029483 0.012679145539692626699 14.87451664391044126
0.015962098519750611558 19.25172441162259673 0.015962098519750611558 18.34773706369496082
0.020095091452091651263 23.91403058115142244 0.020095091452091651263 22.54584810512771398
0.025298221281346400247 29.63231761050667146 0.025298221281346400247 27.58012903119438164
0.031848573644282396344 36.61183479507833738 0.031848573644282396344 33.56008062148927706
0.040094978690191851456 45.08223187917881347 0.040094978690191851456 40.58263619142646661
0.050476587558421215363 55.29311138158334415 0.050476587558421215363 48.71723640364378838
0.063546258777947173257 67.50569573007200574 0.063546258777947173257 57.98471657132409973
0.079999999999998294697 81.97862000363515733 0.079999999999998294697 68.33174114851649961
0.100714032943542974863 98.94778687206550671 0.100714032943542974863 79.60412804206885085
0.126791455396897845276 118.59984098607829139 0.126791455396897845276 91.51797953963929899
0.159620985197506115583 141.03871562649786142 0.159620985197506115583 103.64717865095799709
0.200950914520774404082 166.25336594485469277 0.200950914520774404082 115.42664432586845180
0.252982212813464002465 194.08588796871597992 0.252982212813464002465 126.19374826778086174
0.318485736442795541734 224.21844512369779068 0.318485736442795541734 135.26652482032463354
0.400949786901819038576 256.17756854277490675 0.400949786901819038576 142.05536543238693525
0.504765875584169521062 289.37265301957540942 0.504765875584169521062 146.18968108843793630
0.635462587779443310865 323.15860694345042248 0.635462587779443310865 147.60840730682963340
0.799999999999997157829 356.91584049576221105 0.799999999999997157829 146.58823046036690130
1.007140329435330272645 390.12547586872761940 1.007140329435330272645 143.68999137781167974
1.267914553968893187630 422.42398660979426950 1.267914553968893187630 139.63429787004270111
1.596209851975103788391 453.62039486015794409 1.596209851975103788391 135.14559159930519172
2.009509145207687197399 483.67848464203416370 2.009509145207687197399 130.83191327918345337
2.529822128134711078928 512.67814401877626551 2.529822128134711078928 127.11015502900964691
3.184857364427983839050 540.76298033373620910 3.184857364427983839050 124.19112527899523002
4.009497869018190385759 568.09475856381823178 4.009497869018190385759 122.11203904103027185
5.009497869018190385759 593.94561025843279367 5.009497869018190385759 120.81220323424787466
6.009497869018190385759 614.71980976066708990 6.009497869018190385759 120.18809633659851954
7.009497869018204596614 632.06433899158946588 7.009497869018204596614 119.90245260734525345
8.009497869018190385759 646.92894483665679672 8.009497869018190385759 119.83053698863187719
9.009497869018204596614 659.92405892718807081 9.009497869018204596614 119.85264575185452429
10.009497869018190385759 671.43905724255682799 10.009497869018190385759 119.88270578777139974
11.009497869018190385759 681.77625963332127412 11.009497869018190385759 119.89159334394251744
12.009497869018190385759 691.12571584840145533 12.009497869018190385759 119.98395571493075806
13.009497869018190385759 699.65048912187535279 13.009497869018190385759 120.02527031384886413
14.009497869018204596614 707.48999292156247520 14.009497869018204596614 120.04545603239824914
15.009497869018190385759 714.72123994330820551 15.009497869018190385759 120.12129068752734895
16.009497869018190385759 721.42396560880342804 16.009497869018190385759 120.12175160739805335
17.009497869018190385759 727.67592781223459042 17.009497869018190385759 120.03326748067412666
18.009497869018190385759 733.51630552328720114 18.009497869018190385759 120.06484020166304560
19.009497869018204596614 738.98148299515469262 19.009497869018204596614 120.06034380051124799
20.009497869018190385759 744.11977624973997081 20.009497869018190385759 120.06228359221884716
21.009497869018204596614 748.98328643409899996 21.009497869018204596614 119.99501183130924176
22.009497869018190385759 753.58444959619953352 22.009497869018190385759 119.96405159334069879
23.009497869018190385759 757.94144054334446992 23.009497869018190385759 120.13340836895378061
24.009497869018190385759 762.06742166274852934 24.009497869018190385759 120.15431037729160835
25.009497869018190385759 765.99197000304457106 25.009497869018190385759 120.15110398557878568
26.009497869018204596614 769.75011545260224466 26.009497869018204596614 120.21080858919637535
27.009497869018190385759 773.34582889192540733 27.009497869018190385759 120.17419440562569832
28.009497869018190385759 776.78187396184296176 28.009497869018190385759 120.21691952954282101
29.009497869018190385759 780.06863140203790863 29.009497869018190385759 120.35550399284669254
30.009497869018190385759 783.21074790500210838 30.009497869018190385759 120.36310446836088772
31.009497869018190385759 786.22428136923451802 31.009497869018190385759 120.31908104795066095
32.009497869018190385759 789.12615855408762400 32.009497869018190385759 120.26433506793102879
33.009497869018190385759 791.92444596885286501 33.009497869018190385759 120.21587675105064363
34.009497869018190385759 794.61935875328219936 34.009497869018190385759 120.12116054665253273
35.009497869018190385759 797.21302039026863895 35.009497869018190385759 120.09845774866286661
36.009497869018190385759 799.71220060493703841 36.009497869018190385759 120.09513434075078919
37.009497869018190385759 802.12074660032681095 37.009497869018190385759 120.05023806019585209
38.009497869018190385759 804.44145011518708088 38.009497869018190385759 119.94390585010388861
39.009497869018190385759 806.68382258330586865 39.009497869018190385759 119.77652606494461907
40.009497869018190385759 808.85549864135441567 40.009497869018190385759 119.54358661499320249
41.009497869018190385759 810.96265997978116502 41.009497869018190385759 119.40972337021102589
42.009497869018190385759 813.00350519991525289 42.009497869018190385759 119.15752991651820025
43.009497869018190385759 814.97946995492588940 43.009497869018190385759 118.98906678086829913
44.009497869018218807469 816.89100374568226925 44.009497869018218807469 118.83909976646407358
46.009497869018190385759 820.53709422017834640 46.009497869018190385759 118.43194268789223145
48.009497869018190385759 823.94768489561954539 48.009497869018190385759 118.01583574426881285
50.009497869018190385759 827.16133249262566096 50.009497869018190385759 117.64885808028117253
52.009497869018190385759 830.21001759194030001 52.009497869018190385759 117.38999342612598298
54.009497869018190385759 833.09887024493605168 54.009497869018190385759 117.14456999121794922
56.009497869018190385759 835.83419530416472298 56.009497869018190385759 117.03734199954205053
58.009497869018218807469 838.43510901804677360 58.009497869018218807469 116.94013525887257288
60.009497869018190385759 840.93210904207785461 60.009497869018190385759 116.80278016400761487
62.009497869018190385759 843.31708151033274135 62.009497869018190385759 116.64579886575464229
64.009497869018190385759 845.59794907793673246 64.009497869018190385759 116.51798125650707050
66.009497869018190385759 847.78001840552053636 66.009497869018190385759 116.37708466481902292
68.009497869018190385759 849.86634982464227051 68.009497869018190385759 116.08682943304235380
70.009497869018190385759 851.85689465229211237 70.009497869018190385759 115.86105999440734138
72.009497869018218807469 853.76341981281927929 72.009497869018218807469 115.25772436210749561
74.009497869018190385759 855.59510187419493832 74.009497869018190385759 114.72661588059511928
76.009497869018190385759 857.35874662230742160 76.009497869018190385759 114.28347868549379029
78.009497869018190385759 859.05151429696650212 78.009497869018190385759 113.70196514107755092
80.009497869018190385759 860.67339347930089843 80.009497869018190385759 113.31881912010666724
82.009497869018218807469 862.22597341538289584 82.009497869018218807469 112.96577679546101081
84.009497869018190385759 863.71451720140316866 84.009497869018190385759 112.47024150044894952
86.009497869018190385759 865.12684503017374027 86.009497869018190385759 111.92674159579073034
88.009497869018190385759 866.47782473739664511 88.009497869018190385759 111.57738280656718644
91.009497869018218807469 868.41440566982498694 91.009497869018218807469 111.27136183565407634
94.009497869018190385759 870.26966113173398298 94.009497869018190385759 111.07318439429690216
97.009497869018190385759 872.04991436277691719 97.009497869018190385759 111.06561299475410465
99.504748934509109403734 873.47269081916078903 99.504748934509109403734 108.44561848841678398
nan nan nan nan

