Time Pressure difference Time.1 Pressure.1 difference.1
(hr) (psi) (hr) (psi)
0.000200000000006639311 0.67117218056156869 0.000200000000006639311 0.53599313675745863
0.000399999999999067768 1.33997694306032811 0.000399999999999067768 1.39377505981852323
0.000600000000005707079 2.00682576695272186 0.000600000000005707079 2.03496160860388331
0.000799999999998135536 2.67190891857516410 0.000799999999998135536 2.68521961092124739
0.001007140329434719206 3.35900181936424769 0.001007140329434719206 3.36523326083992336
0.001267914553963578328 4.22163995158716876 0.001267914553963578328 4.22379689765973509
0.001596209851982166583 5.30410664847199076 0.001596209851982166583 5.29834099537112557
0.002009509145210586212 6.66157584352460308 0.002009509145210586212 6.64169150717161294
0.002529822128138903281 8.36265501648264298 0.002529822128138903281 8.31884532171005731
0.003184857364445292660 10.49244540808886406 0.003184857364445292660 10.40940749420026279
0.004009497869020606231 13.15620636746269234 0.004009497869020606231 13.01032217868342222
0.005047658755842121536 16.48367168769740942 0.005047658755842121536 16.23882710253916173
0.006354625877804664924 20.63407220169110090 0.006354625877804664924 20.23548920349810842
0.008000000000009777068 25.80184651166480236 0.008000000000009777068 25.16705648826536645
0.010071403294347192059 32.22297150600179805 0.010071403294347192059 31.22871738722857415
0.012679145539692626699 40.18170543581066312 0.012679145539692626699 38.64504645749079259
0.015962098519750611558 50.01734187971401724 0.015962098519750611558 47.66871880213996349
0.020095091452091651263 62.13034311758954686 0.020095091452091651263 58.57570826026750410
0.025298221281346400247 76.98685732890479017 0.025298221281346400247 71.65512622895518291
0.031848573644282396344 95.12013670232570917 0.031848573644282396344 87.19146347962487198
0.040094978690191851456 117.12682751889543908 0.040094978690191851456 105.43655962274144144
0.050476587558421215363 143.65541477916190161 0.050476587558421215363 126.57082641203915330
0.063546258777947173257 175.38457282925458003 0.063546258777947173257 150.64839546504782675
0.079999999999998294697 212.98625390011963532 0.079999999999998294697 177.53069726045444554
0.100714032943542974863 257.07334981552708086 0.100714032943542974863 206.81715581347791044
0.126791455396897845276 308.13077658119379976 0.126791455396897845276 237.77018478465771523
0.159620985197506115583 366.42856021289475166 0.159620985197506115583 269.28270208994877066
0.200950914520774404082 431.93800541299873430 0.200950914520774404082 299.88658718746535214
0.252982212813464002465 504.24886649106912273 0.252982212813464002465 327.86028488863968278
0.318485736442795541734 582.53538154324053266 0.318485736442795541734 351.43200017627748366
0.400949786901819038576 665.56744496000692379 0.400949786901819038576 369.06988832594413452
0.504765875584169521062 751.81062263606725082 0.504765875584169521062 379.81113285999310847
0.635462587779443310865 839.58892093346605634 0.635462587779443310865 383.49708393542874774
0.799999999999997157829 927.29260167387735692 0.799999999999997157829 380.84659232146771046
1.007140329435330272645 1013.57358360749810799 1.007140329435330272645 373.31676216486124531
1.267914553968893187630 1097.48739929489966016 1.267914553968893187630 362.77978353374442122
1.596209851975103788391 1178.53787474922069123 1.596209851975103788391 351.11780711330743543
2.009509145207687197399 1256.63091829827521906 2.009509145207687197399 339.91056568996856413
2.529822128134711078928 1331.97408478190095593 2.529822128134711078928 330.24117448051379142
3.184857364427983839050 1404.94047623684537029 3.184857364427983839050 322.65732869912585556
4.009497869018190385759 1475.95036951628662791 4.009497869018190385759 317.25571557926832611
5.009497869018190385759 1543.11271089650722388 5.009497869018190385759 313.87865020344781897
6.009497869018190385759 1597.08555076083302993 6.009497869018190385759 312.25717633431389686
7.009497869018204596614 1642.14786464695907853 7.009497869018204596614 311.51505371940504574
8.009497869018190385759 1680.76716214796988424 8.009497869018190385759 311.32821185470919545
9.009497869018204596614 1714.52938782369119508 9.009497869018204596614 311.38565198552561242
10.009497869018190385759 1744.44616801281631524 10.009497869018190385759 311.46375008527104455
11.009497869018190385759 1771.30295107306619684 11.009497869018190385759 311.48684058490528059
12.009497869018190385759 1795.59349969616823728 12.009497869018190385759 311.72680455840531977
13.009497869018190385759 1817.74146369927734668 13.009497869018190385759 311.83414280897068238
14.009497869018204596614 1838.10904913383410531 14.009497869018204596614 311.88658673369064900
15.009497869018190385759 1856.89634043148907949 15.009497869018190385759 312.08361053222540704
16.009497869018190385759 1874.31049585824143833 16.009497869018190385759 312.08480803465477038
17.009497869018190385759 1890.55353592374785876 17.009497869018190385759 311.85492001409869545
18.009497869018190385759 1905.72725036275255661 18.009497869018190385759 311.93694817666795416
19.009497869018204596614 1919.92616803885857735 19.009497869018204596614 311.92526620840220630
20.009497869018190385759 1933.27581739482297962 20.009497869018190385759 311.93030592447854588
21.009497869018204596614 1945.91156089630840142 21.009497869018204596614 311.75552913086130502
22.009497869018190385759 1957.86570827565674335 22.009497869018190385759 311.67509224250574107
23.009497869018190385759 1969.18547896791756102 23.009497869018190385759 312.11509312577061337
24.009497869018190385759 1979.90506978617599998 24.009497869018190385759 312.16939802203091858
25.009497869018190385759 1990.10132399504800560 25.009497869018190385759 312.16106758954225597
26.009497869018204596614 1999.86525172251663207 26.009497869018204596614 312.31618437321759529
27.009497869018190385759 2009.20716959702804161 27.009497869018190385759 312.22105813423013387
28.009497869018190385759 2018.13425775295490894 28.009497869018190385759 312.33206102852284403
29.009497869018190385759 2026.67348608632346441 29.009497869018190385759 312.69211326758886571
30.009497869018190385759 2034.83692703293172599 30.009497869018190385759 312.71185984062896068
31.009497869018190385759 2042.66630014900806600 31.009497869018190385759 312.59748388020619814
32.009497869018190385759 2050.20558235274211256 32.009497869018190385759 312.45524995140925739
33.009497869018190385759 2057.47573100589443129 33.009497869018190385759 312.32935181623440712
34.009497869018190385759 2064.47730505675872337 34.009497869018190385759 312.08327241702653509
35.009497869018190385759 2071.21582146410628411 35.009497869018190385759 312.02428894186363095
36.009497869018190385759 2077.70886845269797050 36.009497869018190385759 312.01565449301165245
37.009497869018190385759 2083.96644132818028083 37.009497869018190385759 311.89901078018726821
38.009497869018190385759 2089.99579322530917125 38.009497869018190385759 311.62275217647572845
39.009497869018190385759 2095.82163552190058908 39.009497869018190385759 311.18788765426126020
40.009497869018190385759 2101.46380354409757274 40.009497869018190385759 310.58269448525567213
41.009497869018190385759 2106.93835776097512280 41.009497869018190385759 310.23490830588588096
42.009497869018190385759 2112.24061801135530914 42.009497869018190385759 309.57969187314051851
43.009497869018190385759 2117.37431422372992529 43.009497869018190385759 309.14201272971570233
44.009497869018218807469 2122.34061423315506545 44.009497869018218807469 308.75238781769445495
46.009497869018190385759 2131.81341520869455053 46.009497869018190385759 307.69456492545634774
48.009497869018190385759 2140.67437104714008456 48.009497869018190385759 306.61348965070482109
50.009497869018190385759 2149.02365483614630648 50.009497869018190385759 305.66005571983015443
52.009497869018190385759 2156.94435438677737693 52.009497869018190385759 304.98750703636591197
54.009497869018190385759 2164.44979793539641832 54.009497869018190385759 304.34987959133155755
56.009497869018190385759 2171.55636593493636610 56.009497869018190385759 304.07129368369766098
58.009497869018218807469 2178.31372375106684558 58.009497869018218807469 303.81874369507727351
60.009497869018190385759 2184.80110645015747650 60.009497869018190385759 303.46188544218051675
62.009497869018190385759 2190.99743363456218503 62.009497869018190385759 303.05403692453296571
64.009497869018190385759 2196.92328892274235841 64.009497869018190385759 302.72195773394764728
66.009497869018190385759 2202.59245939440734219 66.009497869018190385759 302.35589842178063691
68.009497869018190385759 2208.01289600743029951 68.009497869018190385759 301.60179479710035366
70.009497869018190385759 2213.18447227991009640 70.009497869018190385759 301.01522982469816725
72.009497869018218807469 2218.13775951369143513 72.009497869018218807469 299.44772117229211972
74.009497869018190385759 2222.89659908150952106 74.009497869018190385759 298.06786376694810770
76.009497869018190385759 2227.47867289654095657 76.009497869018190385759 296.91656198674917277
78.009497869018190385759 2231.87660306092948304 78.009497869018190385759 295.40574866234942419
80.009497869018190385759 2236.09035990763686641 80.009497869018190385759 294.41030819628997506
82.009497869018218807469 2240.12407241038408756 82.009497869018218807469 293.49307926280550873
84.009497869018190385759 2243.99141446538169475 84.009497869018190385759 292.20564351242040857
86.009497869018190385759 2247.66074207196243151 86.009497869018190385759 290.79359231317977219
88.009497869018190385759 2251.17068291902432975 88.009497869018190385759 289.88593346529353312
91.009497869018218807469 2256.20205717433645987 91.009497869018218807469 289.09086933507558115
94.009497869018190385759 2261.02214210431202446 94.009497869018190385759 288.57599032344660372
97.009497869018190385759 2265.64736593287352662 97.009497869018190385759 288.55631929183698503
99.504748934509109403734 2269.34383981312475953 99.504748934509109403734 281.74938822714074149
nan nan nan nan

