Time Pressure difference Time.1 Pressure.1 difference.1
(hr) (psi) (hr) (psi)
0.000200000000006639311 0.28242393736501653 0.000200000000006639311 0.22554166645734647
0.000399999999999067768 0.56385168396102925 0.000399999999999067768 0.58648950536918054
0.000600000000005707079 0.84445638708406612 0.000600000000005707079 0.85629572639272311
0.000799999999998135536 1.12431810930143072 0.000799999999998135536 1.12991914320943576
0.001007140329434719206 1.41344135963347073 0.001007140329434719206 1.41606350084848254
0.001267914553963578328 1.77643265289559071 0.001267914553963578328 1.77734027871820510
0.001596209851982166583 2.23192606495108503 0.001596209851982166583 2.22949992379478035
0.002009509145210586212 2.80313834999797651 0.002009509145210586212 2.79477117876033265
0.002529822128138903281 3.51893899208428085 0.002529822128138903281 3.50050421953145952
0.003184857364445292660 4.41513791924531329 0.003184857364445292660 4.38019622280704102
0.004009497869020606231 5.53602743185311308 0.004009497869020606231 5.47464052073312235
0.005047658755842121536 6.93619848244693049 0.005047658755842121536 6.83316982037538967
0.006354625877804664924 8.68265414427595950 0.006354625877804664924 8.51493357572940290
0.008000000000009777068 10.85721264104707018 0.008000000000009777068 10.59009802724037819
0.010071403294347192059 13.55917117826808393 0.010071403294347192059 13.14079692036845870
0.012679145539692626699 16.90814337645498355 0.012679145539692626699 16.26152944993424398
0.015962098519750611558 21.04690128601827226 0.015962098519750611558 20.05861929793018206
0.020095091452091651263 26.14395626235203807 0.020095091452091651263 24.64819406991454187
0.025298221281346400247 32.39545976711340813 0.025298221281346400247 30.15190955178806931
0.031848573644282396344 40.02580009751329726 0.031848573644282396344 36.68947720677284252
0.040094978690191851456 49.28604128270352902 0.040094978690191851456 44.36686914818327665
0.050476587558421215363 60.44906067439980291 0.050476587558421215363 53.26000121298677215
0.063546258777947173257 73.80043906181505520 0.063546258777947173257 63.39165155707457444
0.079999999999998294697 89.62292862133746496 0.079999999999998294697 74.70351122345854833
0.100714032943542974863 108.17442937782081458 0.100714032943542974863 87.02702101062189399
0.126791455396897845276 129.65899014555182589 0.126791455396897845276 100.05181042918763978
0.159620985197506115583 154.19023573314879627 0.159620985197506115583 113.31202810715663531
0.200950914520774404082 181.75609138665788578 0.200950914520774404082 126.18990054918096178
0.252982212813464002465 212.18392896901423228 0.252982212813464002465 137.96101096799196739
0.318485736442795541734 245.12627441175962417 0.318485736442795541734 147.87980205437418135
0.400949786901819038576 280.06550901782463825 0.400949786901819038576 155.30168568170918775
0.504765875584169521062 316.35595506963227308 0.504765875584169521062 159.82151630247233243
0.635462587779443310865 353.29236771952781737 0.635462587779443310865 161.37253531936357831
0.799999999999997157829 390.19738189247317450 0.799999999999997157829 160.25722944220174782
1.007140329435330272645 426.50373567642242278 1.007140329435330272645 157.08873655452080698
1.267914553968893187630 461.81400465379437037 1.267914553968893187630 152.65485940776372331
1.596209851975103788391 495.91940274100869601 1.596209851975103788391 147.74759210213431970
2.009509145207687197399 528.78033690769007080 2.009509145207687197399 143.03167368142243276
2.529822128134711078928 560.48414458644356273 2.529822128134711078928 138.96287044972115154
3.184857364427983839050 591.18782415906855476 3.184857364427983839050 135.77164821497871117
4.009497869018190385759 621.06822479645722979 4.009497869018190385759 133.49869219919708030
5.009497869018190385759 649.32960607031236577 5.009497869018190385759 132.07764983808451120
6.009497869018190385759 672.04094957757831708 6.009497869018190385759 131.39534647731028372
7.009497869018204596614 691.00281433164127520 7.009497869018204596614 131.08306715915557561
8.009497869018190385759 707.25350882464090319 8.009497869018190385759 131.00444558242713811
9.009497869018204596614 721.46038596541461629 9.009497869018204596614 131.02861593450333544
10.009497869018190385759 734.04913010440293419 10.009497869018190385759 131.06147899627740117
11.009497869018190385759 745.35025168916149596 11.009497869018190385759 131.07119529562848470
12.009497869018190385759 755.57152214937775625 12.009497869018190385759 131.17217023497255468
13.009497869018190385759 764.89120997246823208 13.009497869018190385759 131.21733732060647526
14.009497869018204596614 773.46172859592036275 14.009497869018204596614 131.23940530873122157
15.009497869018190385759 781.36727196374533833 15.009497869018190385759 131.32231136257007620
16.009497869018190385759 788.69501063341851932 16.009497869018190385759 131.32281526210721267
17.009497869018190385759 795.52995323524044124 17.009497869018190385759 131.22608020395242079
18.009497869018190385759 801.91493208333645271 18.009497869018190385759 131.26059700503355998
19.009497869018204596614 807.88972417476713872 19.009497869018204596614 131.25568132531776655
20.009497869018190385759 813.50715088396009378 20.009497869018190385759 131.25780199792413327
21.009497869018204596614 818.82417166428831479 21.009497869018204596614 131.18425730754066194
22.009497869018190385759 823.85438219520210623 22.009497869018190385759 131.15041010204447502
23.009497869018190385759 828.61765204095536319 23.009497869018190385759 131.33555898856684507
24.009497869018190385759 833.12837094962856099 24.009497869018190385759 131.35841005877537668
25.009497869018190385759 837.41887395831236063 25.009497869018190385759 131.35490467876780940
26.009497869018204596614 841.52745740798968654 26.009497869018204596614 131.42017659269055230
27.009497869018190385759 845.45846245419500065 27.009497869018190385759 131.38014822479979671
28.009497869018190385759 849.21491044059996511 28.009497869018190385759 131.42685736348732917
29.009497869018190385759 852.80815008582919745 29.009497869018190385759 131.57836449378737598
30.009497869018190385759 856.24326137524349178 30.009497869018190385759 131.58667369531417535
31.009497869018190385759 859.53779956765197312 31.009497869018190385759 131.53854519711646276
32.009497869018190385759 862.71026980189651567 32.009497869018190385759 131.47869428648408530
33.009497869018190385759 865.76949076980702102 33.009497869018190385759 131.42571734841550324
34.009497869018190385759 868.71569767239850535 34.009497869018190385759 131.32216908637255415
35.009497869018190385759 871.55121200222288280 35.009497869018190385759 131.29734930721986075
36.009497869018190385759 874.28343474494727161 36.009497869018190385759 131.29371599953464056
37.009497869018190385759 876.91657184601649533 37.009497869018190385759 131.24463324908870732
38.009497869018190385759 879.45367536708556599 38.009497869018190385759 131.12838581683385542
39.009497869018190385759 881.90514366020568104 39.009497869018190385759 130.94539827035745816
40.009497869018190385759 884.27932327350652031 40.009497869018190385759 130.69073777844914730
41.009497869018190385759 886.58297232516270014 41.009497869018190385759 130.54439210891237622
42.009497869018190385759 888.81412144042189993 42.009497869018190385759 130.26868222384626961
43.009497869018190385759 890.97434014364887389 43.009497869018190385759 130.08451030705859353
44.009497869018218807469 893.06411985058525715 44.009497869018218807469 129.92055923021794683
46.009497869018190385759 897.05019946900529249 46.009497869018190385759 129.47543573595936550
48.009497869018190385759 900.77881950003416023 48.009497869018190385759 129.02052782331639946
50.009497869018190385759 904.29213198550712605 50.009497869018190385759 128.61933037715627393
52.009497869018190385759 907.62509961819841919 52.009497869018190385759 128.33632721827277123
54.009497869018190385759 910.78333081439950547 54.009497869018190385759 128.06801863991674395
56.009497869018190385759 913.77371833895824693 56.009497869018190385759 127.95079189660545183
58.009497869018218807469 916.61716098435977074 58.009497869018218807469 127.84452086178994534
60.009497869018190385759 919.34700023892753507 60.009497869018190385759 127.69435773557103175
62.009497869018190385759 921.95436563830594423 62.009497869018190385759 127.52273830982824165
64.009497869018190385759 924.44791860610439471 64.009497869018190385759 127.38300201676013046
66.009497869018190385759 926.83346063626038358 66.009497869018190385759 127.22896715767996056
68.009497869018190385759 929.11433742886924847 68.009497869018190385759 126.91164632551253533
70.009497869018190385759 931.29049576134832478 70.009497869018190385759 126.66482443118486856
72.009497869018218807469 933.37479979536510655 72.009497869018218807469 126.00522920616252520
74.009497869018190385759 935.37728179172438558 74.009497869018190385759 125.42459613955736586
76.009497869018190385759 937.30538215943568048 76.009497869018190385759 124.94013746967166867
78.009497869018190385759 939.15599633751958208 78.009497869018190385759 124.30439918960247780
80.009497869018190385759 940.92911184232252708 80.009497869018190385759 123.88552572616161740
82.009497869018218807469 942.62646611328045765 82.009497869018218807469 123.49956305613102359
84.009497869018190385759 944.25381301761126451 84.009497869018190385759 122.95782028987989065
86.009497869018190385759 945.79783701047938393 86.009497869018190385759 122.36364032980337413
88.009497869018190385759 947.27479231741108379 88.009497869018190385759 121.98170467598986022
91.009497869018218807469 949.39195475157714554 91.009497869018218807469 121.64714798753179537
94.009497869018190385759 951.42020831122056279 94.009497869018190385759 121.43049097768792421
97.009497869018190385759 953.36646586284291516 97.009497869018190385759 121.42221356339678096
99.504748934509109403734 954.92191279265148296 99.504748934509109403734 118.55791088765822394
nan nan nan nan

