Time Pressure difference Time.1 Pressure.1 difference.1
(hr) (psi) (hr) (psi)
0.000200000000006639311 0.47596740032398371 0.000200000000006639311 0.38010404376488094
0.000399999999999067768 0.95025592620491106 0.000399999999999067768 0.98840731346041300
0.000600000000005707079 1.42315738176226425 0.000600000000005707079 1.44311015065597159
0.000799999999998135536 1.89480669596976381 0.000799999999998135536 1.90424608546766660
0.001007140329434719206 2.38206440902934879 0.001007140329434719206 2.38648348819464884
0.001267914553963578328 2.99381150032109877 0.001267914553963578328 2.99534111678097537
0.001596209851982166583 3.76145186828521139 0.001596209851982166583 3.75736310686590969
0.002009509145210586212 4.72411257220247194 0.002009509145210586212 4.71001142773432502
0.002529822128138903281 5.93044718371850887 0.002529822128138903281 5.89937916997507728
0.003184857364445292660 7.44080596390460247 0.003184857364445292660 7.38191892843657183
0.004009497869020606231 9.32983446603480537 0.004009497869020606231 9.22637946582376323
0.005047658755842121536 11.68953450130026894 0.005047658755842121536 11.51590090316205384
0.006354625877804664924 14.63282595491213200 0.006354625877804664924 14.35016746733219861
0.008000000000009777068 18.29759659799991312 0.008000000000009777068 17.84742991061392914
0.010071403294347192059 22.85119142690474092 0.010071403294347192059 22.14610775109154872
0.012679145539692626699 28.49519457267266276 0.012679145539692626699 27.40545992591859203
0.015962098519750611558 35.47021893202491327 0.015962098519750611558 33.80467311092350968
0.020095091452091651263 44.06025570096387867 0.020095091452091651263 41.53945647665009488
0.025298221281346400247 54.59587778398817193 0.025298221281346400247 50.81483580345459927
0.031848573644282396344 67.45524545845621844 0.031848573644282396344 61.83256011612012060
0.040094978690191851456 83.06147545585035630 0.040094978690191851456 74.77122359385005268
0.050476587558421215363 101.87444637185613772 0.050476587558421215363 89.75876675012182204
0.063546258777947173257 124.37544583064712356 0.063546258777947173257 106.83357747706980945
0.079999999999998294697 151.04099441184226293 0.079999999999998294697 125.89738803247574594
0.100714032943542974863 182.30572951026857709 0.100714032943542974863 146.66612658554808490
0.126791455396897845276 218.51353339235643602 0.126791455396897845276 168.61672757624859287
0.159620985197506115583 259.85589727968897478 0.159620985197506115583 190.96409442764928599
0.200950914520774404082 306.31247166045574204 0.200950914520774404082 212.66709710200203176
0.252982212813464002465 357.59232735072106379 0.252982212813464002465 232.50488024899820516
0.318485736442795541734 413.10986834687724922 0.318485736442795541734 249.22096052104822661
0.400949786901819038576 471.99275490356922091 0.400949786901819038576 261.72901734005694152
0.504765875584169521062 533.15283016146850059 0.504765875584169521062 269.34626129799016780
0.635462587779443310865 595.40154912732191406 0.635462587779443310865 271.96018452351569294
0.799999999999997157829 657.59735242466797445 0.799999999999997157829 270.08056608935766008
1.007140329435330272645 718.78423688997077079 1.007140329435330272645 264.74072366394244682
1.267914553968893187630 778.29242549007108209 1.267914553968893187630 257.26833659014300792
1.596209851975103788391 835.77005226646463143 1.596209851975103788391 248.99814786624403951
2.009509145207687197399 891.15039131796004312 2.009509145207687197399 241.05043829251485477
2.529822128134711078928 944.58063190597681569 2.529822128134711078928 234.19330814026537269
3.184857364427983839050 996.32536247984194233 3.184857364427983839050 228.81516007994940765
4.009497869018190385759 1046.68262590697054293 4.009497869018190385759 224.98456067688212556
5.009497869018190385759 1094.31136552437942555 5.009497869018190385759 222.58968634477182036
6.009497869018190385759 1132.58665914103630712 6.009497869018190385759 221.43980450440821528
7.009497869018204596614 1164.54297827067762228 7.009497869018204596614 220.91352200645923176
8.009497869018190385759 1191.93017810740934692 8.009497869018190385759 220.78102152567868188
9.009497869018204596614 1215.87294458288988608 9.009497869018204596614 220.82175567785418480
10.009497869018190385759 1237.08868102889096008 10.009497869018190385759 220.87713960254987455
11.009497869018190385759 1256.13439475849872906 11.009497869018190385759 220.89351442469151721
12.009497869018190385759 1273.36024173998066544 12.009497869018190385759 221.06368689599781874
13.009497869018190385759 1289.06665680654191419 13.009497869018190385759 221.13980671972797154
14.009497869018204596614 1303.51050142783060437 14.009497869018204596614 221.17699777030290420
15.009497869018190385759 1316.83366716242949224 15.009497869018190385759 221.31671885515487475
16.009497869018190385759 1329.18306203808469945 16.009497869018190385759 221.31756807408066834
17.009497869018190385759 1340.70195059939055682 17.009497869018190385759 221.15454104960215886
18.009497869018190385759 1351.46251789338771232 18.009497869018190385759 221.21271201142417340
19.009497869018204596614 1361.53179985924020912 19.009497869018204596614 221.20442764531492230
20.009497869018190385759 1370.99881604855636397 20.009497869018190385759 221.20800160238391641
21.009497869018204596614 1379.95955989305048206 21.009497869018204596614 221.08405716829642529
22.009497869018190385759 1388.43694411132582900 22.009497869018190385759 221.02701467197499596
23.009497869018190385759 1396.46445476313942891 23.009497869018190385759 221.33904500131998816
24.009497869018190385759 1404.06634280628577471 24.009497869018190385759 221.37755577552439945
25.009497869018190385759 1411.29710228856765752 25.009497869018190385759 221.37164817921748750
26.009497869018204596614 1418.22127380817073572 26.009497869018204596614 221.48165055179910610
27.009497869018190385759 1424.84617348898177625 27.009497869018190385759 221.41419097885375322
28.009497869018190385759 1431.17689318371708396 28.009497869018190385759 221.49290961552424051
29.009497869018190385759 1437.23255882111811843 29.009497869018190385759 221.74824369100051058
30.009497869018190385759 1443.02173167063097026 30.009497869018190385759 221.76224713945592271
31.009497869018190385759 1448.57399750666058935 31.009497869018190385759 221.68113646455219623
32.009497869018190385759 1453.92054293084333949 32.009497869018190385759 221.58027007692757593
33.009497869018190385759 1459.07623003264529871 33.009497869018190385759 221.49098835482962500
34.009497869018190385759 1464.04145519495409644 34.009497869018190385759 221.31647907791608532
35.009497869018190385759 1468.82013081551099276 35.009497869018190385759 221.27465045010873723
36.009497869018190385759 1473.42472973192570862 36.009497869018190385759 221.26852725803922795
37.009497869018190385759 1477.86234019931589501 37.009497869018190385759 221.18580838743480399
38.009497869018190385759 1482.13810583923509512 38.009497869018190385759 220.98989727366409852
39.009497869018190385759 1486.26955093322908397 39.009497869018190385759 220.68150943798477215
40.009497869018190385759 1490.27074186976233250 40.009497869018190385759 220.25233160897462881
41.009497869018190385759 1494.15306806564171893 41.009497869018190385759 220.00569611296117500
42.009497869018190385759 1497.91321054518152778 42.009497869018190385759 219.54104386548209504
43.009497869018190385759 1501.55381441856115998 43.009497869018190385759 219.23066001748404119
44.009497869018218807469 1505.07570786583914924 44.009497869018218807469 218.95435423210261661
46.009497869018190385759 1511.79342439923516395 46.009497869018190385759 218.20419022560210465
48.009497869018190385759 1518.07724580446938489 48.009497869018190385759 217.43753659635379449
50.009497869018190385759 1523.99821066969275307 50.009497869018190385759 216.76140090032509988
52.009497869018190385759 1529.61524141537552168 52.009497869018190385759 216.28445734138324497
54.009497869018190385759 1534.93778987250266255 54.009497869018190385759 215.83227847256554810
56.009497869018190385759 1539.97747237712678725 56.009497869018190385759 215.63471693163214127
58.009497869018218807469 1544.76950954128869853 58.009497869018218807469 215.45561898178129923
60.009497869018190385759 1549.37009157913371382 60.009497869018190385759 215.20254994847704211
62.009497869018190385759 1553.76426914926241807 62.009497869018190385759 214.91332073979873485
64.009497869018190385759 1557.96663929793476200 64.009497869018190385759 214.67782398706930280
66.009497869018190385759 1561.98697924875659737 66.009497869018190385759 214.41822994514888023
68.009497869018190385759 1565.83092749041793468 68.009497869018190385759 213.88345101329025510
70.009497869018190385759 1569.49839432721341836 70.009497869018190385759 213.46748352667336235
72.009497869018218807469 1573.01105965513011142 72.009497869018218807469 212.35587157391509550
74.009497869018190385759 1576.38583078428860063 74.009497869018190385759 211.37733408225403764
76.009497869018190385759 1579.63524699222557501 76.009497869018190385759 210.56087873565255109
78.009497869018190385759 1582.75407618058466142 78.009497869018190385759 209.48947275188888284
80.009497869018190385759 1585.74229731073751282 80.009497869018190385759 208.78354776791357494
82.009497869018218807469 1588.60283847914615762 82.009497869018218807469 208.13308715047961073
84.009497869018190385759 1591.34539664438602813 84.009497869018190385759 207.22009125323873491
86.009497869018190385759 1593.94753119707252154 86.009497869018190385759 206.21872326169804523
88.009497869018190385759 1596.43663528787215000 88.009497869018190385759 205.57504935100644161
91.009497869018218807469 1600.00467668427563694 91.009497869018218807469 205.01122293192858592
94.009497869018190385759 1603.42288047743932111 94.009497869018190385759 204.64609214769171786
97.009497869018190385759 1606.70289688061461675 97.009497869018190385759 204.63214227007750878
99.504748934509109403734 1609.32428244173343046 99.504748934509109403734 199.80494981949459543
nan nan nan nan

