Time Pressure difference Time.1 Pressure.1 difference.1
(hr) (psi) (hr) (psi)
0.000200000000006639311 0.25667351954644146 0.000200000000006639311 0.20497757333917663
0.000399999999999067768 0.51244167748222946 0.000399999999999067768 0.53301546223257878
0.000600000000005707079 0.76746183414404834 0.000600000000005707079 0.77822170428044546
0.000799999999998135536 1.02180675227688833 0.000799999999998135536 1.02689710368151643
0.001007140329434719206 1.28456876507865414 0.001007140329434719206 1.28695182871229741
0.001267914553963578328 1.61446379336687529 0.001267914553963578328 1.61528866507036883
0.001596209851982166583 2.02842692373495703 0.001596209851982166583 2.02622198956643285
0.002009509145210586212 2.54755808867463163 0.002009509145210586212 2.53995380657924308
0.002529822128138903281 3.19809455457071401 0.002529822128138903281 3.18134059951535564
0.003184857364445292660 4.01258122660824146 0.003184857364445292660 3.98082539072757502
0.004009497869020606231 5.03127198953709431 0.004009497869020606231 4.97548212031333836
0.005047658755842121536 6.30378038551794528 0.005047658755842121536 6.21014551322351593
0.006354625877804664924 7.89100038406256310 0.006354625877804664924 7.73857198500113430
0.008000000000009777068 9.86729031201042517 0.008000000000009777068 9.62453026593316530
0.010071403294347192059 12.32289380613187646 0.010071403294347192059 11.94266543645251133
0.012679145539692626699 15.36651853918996835 0.012679145539692626699 14.77886058832259231
0.015962098519750611558 19.12791910994013733 0.015962098519750611558 18.22974518547184175
0.020095091452091651263 23.76024260313758774 0.020095091452091651263 22.40085872824586133
0.025298221281346400247 29.44175608246482767 0.025298221281346400247 27.40276485736033507
0.031848573644282396344 36.37638891215178205 0.031848573644282396344 33.34426016733178955
0.040094978690191851456 44.79231398928055796 0.040094978690191851456 40.32165460820186098
0.050476587558421215363 54.93752867173393639 0.050476587558421215363 48.40394227886150702
0.063546258777947173257 67.07157550029661763 0.063546258777947173257 57.61182450334131744
0.079999999999998294697 81.45142630586258292 0.079999999999998294697 67.89230872955496920
0.100714032943542974863 98.31146669925479387 0.100714032943542974863 79.09220438906518780
0.126791455396897845276 117.83714104404563727 0.126791455396897845276 90.92943947829112972
0.159620985197506115583 140.13171423983226305 0.159620985197506115583 102.98063730915119152
0.200950914520774404082 165.18421246610964204 0.200950914520774404082 114.68435079322621561
0.252982212813464002465 192.83774721007469566 0.252982212813464002465 125.38221290914562189
0.318485736442795541734 222.77652586245213229 0.318485736442795541734 134.39664363176947859
0.400949786901819038576 254.53012437208181495 0.400949786901819038576 141.14182610484746760
0.504765875584169521062 287.51173563681288670 0.504765875584169521062 145.24955452195277417
0.635462587779443310865 321.08041654510026319 0.635462587779443310865 146.65915709906866482
0.799999999999997157829 354.62056177874762852 0.799999999999997157829 145.64554087541276317
1.007140329435330272645 387.61663036474863020 1.007140329435330272645 142.76593998631449267
1.267914553968893187630 419.70743364124251684 1.267914553968893187630 138.73632810882057242
1.596209851975103788391 450.70322190285787656 1.596209851975103788391 134.27648811635148718
2.009509145207687197399 480.56801207198890324 2.009509145207687197399 129.99055049282216601
2.529822128134711078928 509.38117846238549191 2.529822128134711078928 126.29272637930539247
3.184857364427983839050 537.28540489750639608 3.184857364427983839050 123.39246852478949279
4.009497869018190385759 564.44141606501557362 4.009497869018190385759 121.32675261632911656
5.009497869018190385759 590.12602434037205512 5.009497869018190385759 120.03527588225914258
6.009497869018190385759 610.76662770432858451 6.009497869018190385759 119.41518253379082637
7.009497869018204596614 627.99961655434458407 7.009497869018204596614 119.13137574170315247
8.009497869018190385759 642.76863007886481682 8.009497869018190385759 119.05992260285289319
9.009497869018204596614 655.68017430386214528 9.009497869018204596614 119.08188918753393182
10.009497869018190385759 667.12112118311915765 10.009497869018190385759 119.11175591132270313
11.009497869018190385759 677.39184638809092576 11.009497869018190385759 119.12058631279175813
12.009497869018190385759 686.68117748281679269 12.009497869018190385759 119.21235471354856372
13.009497869018190385759 695.15112906321371611 13.009497869018190385759 119.25340362372764957
14.009497869018204596614 702.94021804746876114 14.009497869018204596614 119.27345953058218697
15.009497869018190385759 710.12496187293334060 15.009497869018190385759 119.34880650304162941
16.009497869018190385759 716.78458319331264192 16.009497869018190385759 119.34926445879743540
17.009497869018190385759 722.99633985202729036 17.009497869018190385759 119.26134936182734236
18.009497869018190385759 728.79915886397350278 18.009497869018190385759 119.29271904280990668
19.009497869018204596614 734.22919050000905372 19.009497869018204596614 119.28825155742113395
20.009497869018190385759 739.33444006806973903 20.009497869018190385759 119.29017887458400082
21.009497869018204596614 744.16667365960324787 21.009497869018204596614 119.22333972950016800
22.009497869018190385759 748.73824734799256930 22.009497869018190385759 119.19257859274044620
23.009497869018190385759 753.06721906075063089 23.009497869018190385759 119.36084625725632691
24.009497869018190385759 757.16666653951540411 24.009497869018190385759 119.38161384753409777
25.009497869018190385759 761.06597662681917882 25.009497869018190385759 119.37842807570366688
26.009497869018204596614 764.79995393843773854 26.009497869018204596614 119.43774872688643995
27.009497869018190385759 768.37254381866546282 27.009497869018190385759 119.40137000430334524
28.009497869018190385759 771.78649213572180088 28.009497869018190385759 119.44382036858112883
29.009497869018190385759 775.05211287212114257 29.009497869018190385759 119.58151361347147201
30.009497869018190385759 778.17402283808894481 30.009497869018190385759 119.58906521132963974
31.009497869018190385759 781.16817666589543023 31.009497869018190385759 119.54532489973233567
32.009497869018190385759 784.05139226113533368 32.009497869018190385759 119.49093098389289480
33.009497869018190385759 786.83168425844223748 33.009497869018190385759 119.44278429605995484
34.009497869018190385759 789.50926641403270878 34.009497869018190385759 119.34867719908562833
35.009497869018190385759 792.08624855496134387 35.009497869018190385759 119.32612039979686358
36.009497869018190385759 794.56935687114321354 36.009497869018190385759 119.32281836428293786
37.009497869018190385759 796.96241382476193849 37.009497869018190385759 119.27821080578944191
38.009497869018190385759 799.26819320126298862 38.009497869018190385759 119.17256240412251600
39.009497869018190385759 801.49614526765753908 39.009497869018190385759 119.00625901629544501
40.009497869018190385759 803.65385556327510130 40.009497869018190385759 118.77481756923761225
41.009497869018190385759 805.74746602492723468 41.009497869018190385759 118.64181518133507609
42.009497869018190385759 807.77518683850098569 42.009497869018190385759 118.39124355049557380
43.009497869018190385759 809.73844442466906912 43.009497869018190385759 118.22386377906208565
44.009497869018218807469 811.63768539362013144 44.009497869018218807469 118.07486118275690501
46.009497869018190385759 815.26032834094883128 46.009497869018190385759 117.67032247768071329
48.009497869018190385759 818.64898595738407039 48.009497869018190385759 117.25689146295518128
50.009497869018190385759 821.84196701035796195 50.009497869018190385759 116.89227378394495815
52.009497869018190385759 824.87104641771566094 52.009497869018190385759 116.63507385425378970
54.009497869018190385759 827.74132124014533929 54.009497869018190385759 116.39122870510080077
56.009497869018190385759 830.45905578452379814 56.009497869018190385759 116.28469028250319184
58.009497869018218807469 833.04324336519755434 58.009497869018218807469 116.18810866556790984
60.009497869018190385759 835.52418551126061175 60.009497869018190385759 116.05163688321013638
62.009497869018190385759 837.89382053598967559 62.009497869018190385759 115.89566511099094726
64.009497869018190385759 840.16002014495961703 64.009497869018190385759 115.76866947993788415
66.009497869018190385759 842.32805687236600534 66.009497869018190385759 115.62867897565620012
68.009497869018190385759 844.40097136917836451 68.009497869018190385759 115.34029033700991818
70.009497869018190385759 846.37871526546064160 70.009497869018190385759 115.11597279187095921
72.009497869018218807469 848.27297981402307414 72.009497869018218807469 114.51651713148301326
74.009497869018190385759 850.09288256953766449 74.009497869018190385759 113.98882413859773521
76.009497869018190385759 851.84518555078125246 76.009497869018190385759 113.54853670037807944
78.009497869018190385759 853.52706725968698720 78.009497869018190385759 112.97076279290342882
80.009497869018190385759 855.13851635081664426 80.009497869018190385759 112.59008073348218204
82.009497869018218807469 856.68111185001066588 82.009497869018218807469 112.23930877748377100
84.009497869018190385759 858.16008300718192459 84.009497869018190385759 111.74696020462613433
86.009497869018190385759 859.56332834187685421 86.009497869018190385759 111.20695547620366028
88.009497869018190385759 860.90562007670598632 88.009497869018190385759 110.85984336729664790
91.009497869018218807469 862.82974711246276911 91.009497869018218807469 110.55579037690390010
94.009497869018190385759 864.67307167107981059 94.009497869018190385759 110.35888738854579572
97.009497869018190385759 866.44187632828948153 97.009497869018190385759 110.35136467967529939
99.504748934509109403734 867.85550309685106640 99.504748934509109403734 107.74821901260702361
nan nan nan nan

