Time Pressure difference Time.1 Pressure.1 difference.1
(hr) (psi) (hr) (psi)
0.000200000000006639311 0.06313005658747428 0.000200000000006639311 0.05041519603164215
0.000399999999999067768 0.12603743523834771 0.000399999999999067768 0.13109765414134625
0.000600000000005707079 0.18876083946585007 0.000600000000005707079 0.19140728001719692
0.000799999999998135536 0.25131816560855508 0.000799999999998135536 0.25257016142328559
0.001007140329434719206 0.31594571568277580 0.001007140329434719206 0.31653184136613144
0.001267914553963578328 0.39708494594136734 0.001267914553963578328 0.39728782700759879
0.001596209851982166583 0.49890112040083079 0.001596209851982166583 0.49835880649530395
0.002009509145210586212 0.62658386647013598 0.002009509145210586212 0.62471355760525082
0.002529822128138903281 0.78658636293648632 0.002529822128138903281 0.78246564907173799
0.003184857364445292660 0.98691318194895261 0.003184857364445292660 0.97910268509804455
0.004009497869020606231 1.23746495535540202 0.004009497869020606231 1.22374317522269815
0.005047658755842121536 1.55044436666460794 0.005047658755842121536 1.52741443043685177
0.006354625877804664924 1.94082857342639103 0.006354625877804664924 1.90333809339833682
0.008000000000009777068 2.42690635505758046 0.008000000000009777068 2.36719838255961346
0.010071403294347192059 3.03087355749521858 0.010071403294347192059 2.93735460572942042
0.012679145539692626699 3.77946734297229048 0.012679145539692626699 3.63493011233824292
0.015962098519750611558 4.70460146393349632 0.015962098519750611558 4.48369137247851146
0.020095091452091651263 5.84394316452574891 0.020095091452091651263 5.50959632151030920
0.025298221281346400247 7.24133806559005500 0.025298221281346400247 6.73983860569380333
0.031848573644282396344 8.94694355120885376 0.031848573644282396344 8.20117725798451680
0.040094978690191851456 11.01687981613372891 0.040094978690191851456 9.91730016253508495
0.050476587558421215363 13.51214297427760336 0.050476587558421215363 11.90517674172645535
0.063546258777947173257 16.49656873146454217 0.063546258777947173257 14.16989858334608421
0.079999999999998294697 20.03336051535778850 0.079999999999998294697 16.69843192053779291
0.100714032943542974863 24.18016656680700294 0.100714032943542974863 19.45309881413901110
0.126791455396897845276 28.98259779724099516 0.126791455396897845276 22.36452233123018019
0.159620985197506115583 34.46605269329207744 0.159620985197506115583 25.32857098865854439
0.200950914520774404082 40.62783219231175735 0.200950914520774404082 28.20715424040515629
0.252982212813464002465 47.42934882836789257 0.252982212813464002465 30.83834362813937702
0.318485736442795541734 54.79293192733450724 0.318485736442795541734 33.05548516509540491
0.400949786901819038576 62.60287848633728203 0.400949786901819038576 34.71449444649969251
0.504765875584169521062 70.71486054497663076 0.504765875584169521062 35.72480952643498853
0.635462587779443310865 78.97123513730620914 0.635462587779443310865 36.07150789491656440
0.799999999999997157829 87.22059124655281437 0.799999999999997157829 35.82220422825686512
1.007140329435330272645 95.33612915120031062 1.007140329435330272645 35.11395287689288836
1.267914553968893187630 103.22901280496580512 1.267914553968893187630 34.12285092644130202
1.596209851975103788391 110.85257237740194114 1.596209851975103788391 33.02593235224178869
2.009509145207687197399 118.19795766171894513 2.009509145207687197399 31.97178588172971914
2.529822128134711078928 125.28469114285208263 2.529822128134711078928 31.06228868876119975
3.184857364427983839050 132.14786657673298009 3.184857364427983839050 30.34895665981877144
4.009497869018190385759 138.82701495450220364 4.009497869018190385759 29.84088413864404998
5.009497869018190385759 145.14426488630513745 5.009497869018190385759 29.52323937557182632
6.009497869018190385759 150.22091814087042394 6.009497869018190385759 29.37072450669288770
7.009497869018204596614 154.45945261530803805 7.009497869018204596614 29.30092089439948211
8.009497869018190385759 158.09196079609620256 8.009497869018190385759 29.28334665960136007
9.009497869018204596614 161.26761568638679023 9.009497869018204596614 29.28874944418310378
10.009497869018190385759 164.08157025863124545 10.009497869018190385759 29.29609530505024395
11.009497869018190385759 166.60770331875374950 11.009497869018190385759 29.29826718372871852
12.009497869018190385759 168.89245789221385508 12.009497869018190385759 29.32083805252327124
13.009497869018190385759 170.97568222913994873 13.009497869018190385759 29.33093422460615329
14.009497869018204596614 172.89144521555866163 14.009497869018204596614 29.33586706901050789
15.009497869018190385759 174.65856667424895932 15.009497869018190385759 29.35439901045684152
16.009497869018190385759 176.29653178864646179 16.009497869018190385759 29.35451164682396197
17.009497869018190385759 177.82434248787726006 17.009497869018190385759 29.33288851617760074
18.009497869018190385759 179.25157305392224316 18.009497869018190385759 29.34060403641926129
19.009497869018204596614 180.58711481553618228 19.009497869018204596614 29.33950523742397110
20.009497869018190385759 181.84277490347344042 20.009497869018190385759 29.33997927012422124
21.009497869018204596614 183.03128543084091007 21.009497869018204596614 29.32353986874437979
22.009497869018190385759 184.15568543186870443 22.009497869018190385759 29.31597402280994658
23.009497869018190385759 185.22041633856647991 23.009497869018190385759 29.35736024450317672
24.009497869018190385759 186.22869468285816197 24.009497869018190385759 29.36246813078508566
25.009497869018190385759 187.18774829656393877 25.009497869018190385759 29.36168457525397812
26.009497869018204596614 188.10613753825651884 26.009497869018204596614 29.37627476777789326
27.009497869018190385759 188.98483278387888618 27.009497869018190385759 29.36732725024936741
28.009497869018190385759 189.82450939260468203 28.009497869018190385759 29.37776811654422460
29.009497869018190385759 190.62770413683242055 29.009497869018190385759 29.41163441625835517
30.009497869018190385759 191.39555254270149476 30.009497869018190385759 29.41349176718787106
31.009497869018190385759 192.13197872688689927 31.009497869018190385759 29.40273363229662706
32.009497869018190385759 192.84111913218862355 32.009497869018190385759 29.38935519344938285
33.009497869018190385759 193.52494499560393137 33.009497869018190385759 29.37751328964581177
34.009497869018190385759 194.18350889147731664 34.009497869018190385759 29.35436720754209716
35.009497869018190385759 194.81732974167334760 35.009497869018190385759 29.34881925690796578
36.009497869018190385759 195.42806188416466284 36.009497869018190385759 29.34800710577832561
37.009497869018190385759 196.01664547146248196 37.009497869018190385759 29.33703566744335944
38.009497869018190385759 196.58376272911323213 38.009497869018190385759 29.31105094729227289
39.009497869018190385759 197.13173799463422142 39.009497869018190385759 29.27014784866813812
40.009497869018190385759 197.66243696701909016 40.009497869018190385759 29.21322373871216271
41.009497869018190385759 198.17737028444813063 41.009497869018190385759 29.18051117728629862
42.009497869018190385759 198.67609773374135784 42.009497869018190385759 29.11888190885975192
43.009497869018190385759 199.15897014975681145 43.009497869018190385759 29.07771406863662733
44.009497869018218807469 199.62609737836609725 44.009497869018218807469 29.04106618087225300
46.009497869018190385759 200.51710341071881771 46.009497869018190385759 28.94156798803797415
48.009497869018190385759 201.35055965294881730 48.009497869018190385759 28.83988268991777915
50.009497869018190385759 202.13588832617219282 50.009497869018190385759 28.75020326077610733
52.009497869018190385759 202.88090462053847318 52.009497869018190385759 28.68694373114332663
54.009497869018190385759 203.58686218204223906 54.009497869018190385759 28.62696887245197530
56.009497869018190385759 204.25530174635537151 56.009497869018190385759 28.60076524747651661
58.009497869018218807469 204.89089480826868339 58.009497869018218807469 28.57701054557657727
60.009497869018190385759 205.50109417105440457 60.009497869018190385759 28.54344467030410826
62.009497869018190385759 206.08391702503308807 62.009497869018190385759 28.50508268102042919
64.009497869018190385759 206.64129945312924974 64.009497869018190385759 28.47384750962873667
66.009497869018190385759 207.17453825986996208 66.009497869018190385759 28.43941618818728756
68.009497869018190385759 207.68438130762959304 68.009497869018190385759 28.36848564923221261
70.009497869018190385759 208.17081669959551959 70.009497869018190385759 28.31331369638250095
72.009497869018218807469 208.63671995425809769 72.009497869018218807469 28.16587476373045007
74.009497869018190385759 209.08433357697370525 74.009497869018190385759 28.03608619590105633
76.009497869018190385759 209.51532071799150003 76.009497869018190385759 27.92779543439719703
78.009497869018190385759 209.92898741662204998 78.009497869018190385759 27.78568923061702378
80.009497869018190385759 210.32533088240151642 80.009497869018190385759 27.69205869173024581
82.009497869018218807469 210.70473948414502274 82.009497869018218807469 27.60578468313516964
84.009497869018190385759 211.06849938040721781 84.009497869018190385759 27.48468924126726876
86.009497869018190385759 211.41363415528363134 86.009497869018190385759 27.35187254430898918
88.009497869018190385759 211.74377710624483484 88.009497869018190385759 27.26649869228008427
91.009497869018218807469 212.21702517976430613 91.009497869018218807469 27.19171543250710599
94.009497869018190385759 212.67039950486105226 94.009497869018190385759 27.14328621854200918
97.009497869018190385759 213.10544531051783679 97.009497869018190385759 27.14143597299457156
99.504748934509109403734 213.45313344776917575 99.504748934509109403734 26.50118008077066278
nan nan nan nan

