Time Pressure difference Time.1 Pressure.1 difference.1
(hr) (psi) (hr) (psi)
0.000200000000006639311 0.64957505593953802 0.000200000000006639311 0.51874583285189679
0.000399999999999067768 1.29685887311036718 0.000399999999999067768 1.34892586234911516
0.000600000000005707079 1.94224969029335215 0.000600000000005707079 1.96948017070326298
0.000799999999998135536 2.58593165139328995 0.000799999999998135536 2.59881402938170192
0.001007140329434719206 3.25091512715698228 0.001007140329434719206 3.25694605195151032
0.001267914553963578328 4.08579510165985926 0.001267914553963578328 4.08788264105187160
0.001596209851982166583 5.13342994938749619 0.001596209851982166583 5.12784982472799555
0.002009509145210586212 6.44721820499534548 0.002009509145210586212 6.42797371114876448
0.002529822128138903281 8.09355968179384533 0.002529822128138903281 8.05115970492235711
0.003184857364445292660 10.15481721426422190 0.003184857364445292660 10.07445131245619407
0.004009497869020606231 12.73286309326216070 0.004009497869020606231 12.59167319768618398
0.005047658755842121536 15.95325650962794128 0.005047658755842121536 15.71629058686339775
0.006354625877804664924 19.97010453183470702 0.006354625877804664924 19.58434722417762330
0.008000000000009777068 24.97158907440826070 0.008000000000009777068 24.35722546265286681
0.010071403294347192059 31.18609371001659625 0.010071403294347192059 30.22383291684745643
0.012679145539692626699 38.88872976584646324 0.012679145539692626699 37.40151773484876685
0.015962098519750611558 48.40787295784202371 0.015962098519750611558 46.13482438523941909
0.020095091452091651263 60.13109940340969217 0.020095091452091651263 56.69084636080344808
0.025298221281346400247 74.50955746436082450 0.025298221281346400247 69.34939196911255976
0.031848573644282396344 92.05934022428056096 0.031848573644282396344 84.38579757557752714
0.040094978690191851456 113.35789495021811035 0.040094978690191851456 102.04379904082153985
0.050476587558421215363 139.03283955111953674 0.050476587558421215363 122.49800278986957380
0.063546258777947173257 169.74100984217460564 0.063546258777947173257 145.80079858127152193
0.079999999999998294697 206.13273582907618220 0.079999999999998294697 171.81807581395466400
0.100714032943542974863 248.80118756898784227 0.100714032943542974863 200.16214832443037608
0.126791455396897845276 298.21567733476922513 0.126791455396897845276 230.11916398713159992
0.159620985197506115583 354.63754218624217174 0.159620985197506115583 260.61766464646029817
0.200950914520774404082 418.03901018931310318 0.200950914520774404082 290.23677126311616803
0.252982212813464002465 488.02303662873271151 0.252982212813464002465 317.31032522638150795
0.318485736442795541734 563.79043114704722939 0.318485736442795541734 340.12354472506063985
0.400949786901819038576 644.15067074099670208 0.400949786901819038576 357.19387706793111192
0.504765875584169521062 727.61869666015422808 0.504765875584169521062 367.58948749568634184
0.635462587779443310865 812.57244575491392879 0.635462587779443310865 371.15683123453624148
0.799999999999997157829 897.45397835268829567 0.799999999999997157829 368.59162771706405692
1.007140329435330272645 980.95859205577164630 1.007140329435330272645 361.30409407539787026
1.267914553968893187630 1062.17221070372693248 1.267914553968893187630 351.10617663785660625
1.596209851975103788391 1140.61462630431992693 1.596209851975103788391 339.81946183490890689
2.009509145207687197399 1216.19477488768711737 2.009509145207687197399 328.97284946727160104
2.529822128134711078928 1289.11353254882010333 2.529822128134711078928 319.61460203435865424
3.184857364427983839050 1359.73199556585768732 3.184857364427983839050 312.27479089445103000
4.009497869018190385759 1428.45691703185161714 4.009497869018190385759 307.04699205815325058
5.009497869018190385759 1493.45809396171853223 5.009497869018190385759 303.77859462759437292
6.009497869018190385759 1545.69418402842984506 6.009497869018190385759 302.20929689781365823
7.009497869018204596614 1589.30647296277470559 7.009497869018204596614 301.49105446605784664
8.009497869018190385759 1626.68307029667403185 8.009497869018190385759 301.31022483958241764
9.009497869018204596614 1659.35888772045359474 9.009497869018204596614 301.36581664935772551
10.009497869018190385759 1688.31299924012682823 10.009497869018190385759 301.44140169143804542
11.009497869018190385759 1714.30557888507155440 11.009497869018190385759 301.46374917994552334
12.009497869018190385759 1737.81450094356864611 12.009497869018190385759 301.69599154043686440
13.009497869018190385759 1759.24978293667686557 13.009497869018190385759 301.79987583739489310
14.009497869018204596614 1778.96197577061684569 14.009497869018204596614 301.85063221008175560
15.009497869018190385759 1797.14472551661447142 15.009497869018190385759 302.04131613391120936
16.009497869018190385759 1813.99852445686246938 16.009497869018190385759 302.04247510284653799
17.009497869018190385759 1829.71889244105295802 17.009497869018190385759 301.81998446909057066
18.009497869018190385759 1844.40434379167390944 18.009497869018190385759 301.89937311157717659
19.009497869018204596614 1858.14636560196458959 19.009497869018204596614 301.88806704823082327
20.009497869018190385759 1871.06644703310826117 20.009497869018190385759 301.89294459522551506
21.009497869018204596614 1883.29559482786316948 21.009497869018204596614 301.72379180734350257
22.009497869018190385759 1894.86507904896484433 22.009497869018190385759 301.64594323470231529
23.009497869018190385759 1905.82059969419742629 23.009497869018190385759 302.07178567370374367
24.009497869018190385759 1916.19525318414571302 24.009497869018190385759 302.12434313518338058
25.009497869018190385759 1926.06341010411847492 25.009497869018190385759 302.11628076116591046
26.009497869018204596614 1935.51315203837634726 26.009497869018204596614 302.26640616318832144
27.009497869018190385759 1944.55446364464864928 27.009497869018190385759 302.17434091703950116
28.009497869018190385759 1953.19429401337970376 28.009497869018190385759 302.28177193602090256
29.009497869018190385759 1961.45874519740732467 29.009497869018190385759 302.63023833571099885
30.009497869018190385759 1969.35950116306003110 30.009497869018190385759 302.64934949922258056
31.009497869018190385759 1976.93693900559946997 31.009497869018190385759 302.53865395336788424
32.009497869018190385759 1984.23362054436211110 32.009497869018190385759 302.40099685891340187
33.009497869018190385759 1991.26982877055593235 33.009497869018190385759 302.27914990135559492
34.009497869018190385759 1998.04610464651636903 34.009497869018190385759 302.04098889865684896
35.009497869018190385759 2004.56778760511269866 35.009497869018190385759 301.98390340660563425
36.009497869018190385759 2010.85189991337847459 36.009497869018190385759 301.97554679892959939
37.009497869018190385759 2016.90811524583773462 37.009497869018190385759 301.86265647290406378
38.009497869018190385759 2022.74345334429654031 38.009497869018190385759 301.59528737871784188
39.009497869018190385759 2028.38183041847332788 39.009497869018190385759 301.17441602182213956
40.009497869018190385759 2033.84244352906512177 40.009497869018190385759 300.58869689043308426
41.009497869018190385759 2039.14083634787402843 41.009497869018190385759 300.25210185049849088
42.009497869018190385759 2044.27247931297051764 42.009497869018190385759 299.61796911484640304
43.009497869018190385759 2049.24098233039194383 43.009497869018190385759 299.19437370623478500
44.009497869018218807469 2054.04747565634579587 44.009497869018218807469 298.81728622950129193
46.009497869018190385759 2063.21545877871176344 46.009497869018190385759 297.79350219270651223
48.009497869018190385759 2071.79128485007868221 48.009497869018190385759 296.74721399362766761
50.009497869018190385759 2079.87190356666633306 50.009497869018190385759 295.82445986745943856
52.009497869018190385759 2087.53772912185650057 52.009497869018190385759 295.17355260202742784
54.009497869018190385759 2094.80166087311863521 54.009497869018190385759 294.55644287180854235
56.009497869018190385759 2101.67955217960388836 56.009497869018190385759 294.28682136219254062
58.009497869018218807469 2108.21947026402767733 58.009497869018218807469 294.04239798211688139
60.009497869018190385759 2114.49810054953331928 60.009497869018190385759 293.69702279181331050
62.009497869018190385759 2120.49504096810369447 62.009497869018190385759 293.30229811260494444
64.009497869018190385759 2126.23021279404019879 64.009497869018190385759 292.98090463854833843
66.009497869018190385759 2131.71695946339877992 66.009497869018190385759 292.62662446266392635
68.009497869018190385759 2136.96297608639906684 68.009497869018190385759 291.89678654867884688
70.009497869018190385759 2141.96814025110097646 70.009497869018190385759 291.32909619172522753
72.009497869018218807469 2146.76203952933974506 72.009497869018218807469 289.81202717417380654
74.009497869018190385759 2151.36774812096609821 74.009497869018190385759 288.47657112098193011
76.009497869018190385759 2155.80237896670178088 76.009497869018190385759 287.36231618024481804
78.009497869018190385759 2160.05879157629533438 78.009497869018190385759 285.90011813608572311
80.009497869018190385759 2164.13695723734190324 80.009497869018190385759 284.93670917017175270
82.009497869018218807469 2168.04087206054509807 82.009497869018218807469 284.04899502910137699
84.009497869018190385759 2171.78376994050540816 84.009497869018190385759 282.80298666672376839
86.009497869018190385759 2175.33502512410268537 86.009497869018190385759 281.43637275854780455
88.009497869018190385759 2178.73202233004531081 88.009497869018190385759 280.55792075477666003
91.009497869018218807469 2183.60149592862717327 91.009497869018218807469 279.78844037132313360
94.009497869018190385759 2188.26647911580721484 94.009497869018190385759 279.29012924868220580
97.009497869018190385759 2192.74287148453868213 97.009497869018190385759 279.27109119581257346
99.504748934509109403734 2196.32039942309847902 99.504748934509109403734 272.68319504161388522
nan nan nan nan

