Time Pressure difference Time.1 Pressure.1 difference.1
(hr) (psi) (hr) (psi)
0.000200000000006639311 0.73596355442766082 0.000200000000006639311 0.58773504847414404
0.000399999999999067768 1.46933115291021132 0.000399999999999067768 1.52832265222674701
0.000600000000005707079 2.20055399693083098 0.000600000000005707079 2.23140592230574342
0.000799999999998135536 2.92984072012078700 0.000799999999998135536 2.94443635553988203
0.001007140329434719206 3.68326189598604392 0.001007140329434719206 3.69009488750516379
0.001267914553963578328 4.62917450136909903 0.001267914553963578328 4.63153966748332291
0.001596209851982166583 5.81613674572547446 0.001596209851982166583 5.80981450730051652
0.002009509145210586212 7.30464875911237410 0.002009509145210586212 7.28284489524016099
0.002529822128138903281 9.16994102054903770 0.002529822128138903281 9.12190217207315790
0.003184857364445292660 11.50532998956278874 0.003184857364445292660 11.41427603943246538
0.004009497869020606231 14.42623619006428903 0.004009497869020606231 14.26626912167513872
0.005047658755842121536 18.07491722190582450 0.005047658755842121536 17.80643664956645367
0.006354625877804664924 22.62597521126029676 0.006354625877804664924 22.18891514145956023
0.008000000000009777068 28.29261882343442380 0.008000000000009777068 27.59654956510286894
0.010071403294347192059 35.33360489395742121 0.010071403294347192059 34.24337079837192732
0.012679145539692626699 44.06063244570327697 0.012679145539692626699 42.37563262541688403
0.015962098519750611558 54.84574864532996941 0.015962098519750611558 52.27040205284158958
0.020095091452091651263 68.12807426012912515 0.020095091452091651263 64.23029395865965796
0.025298221281346400247 84.41875692253668717 0.025298221281346400247 78.57232900848302393
0.031848573644282396344 104.30252613646111115 0.031848573644282396344 95.60846119176687807
0.040094978690191851456 128.43362522492742528 0.040094978690191851456 115.61484136850114623
0.050476587558421215363 157.52314046328891095 0.050476587558421215363 138.78929727854787757
0.063546258777947173257 192.31526179049450320 0.063546258777947173257 165.19118611637668437
0.079999999999998294697 233.54680811324999468 0.079999999999998294697 194.66856159995373332
0.100714032943542974863 281.88983655514476823 0.100714032943542974863 226.78217828062059880
0.126791455396897845276 337.87607432046740996 0.126791455396897845276 260.72324717723608956
0.159620985197506115583 401.80161429285243457 0.159620985197506115583 295.27781442041407445
0.200950914520774404082 473.63499108405551397 0.200950914520774404082 328.83603496051273396
0.252982212813464002465 552.92635607807835640 0.252982212813464002465 359.51016387541432096
0.318485736442795541734 638.77023273182066987 0.318485736442795541734 385.35736652992795825
0.400949786901819038576 729.81776761703724787 0.400949786901819038576 404.69792209998331600
0.504765875584169521062 824.38640056380643273 0.504765875584169521062 416.47606895291323781
0.635462587779443310865 920.63834646912232529 0.635462587779443310865 420.51784203810626650
0.799999999999997157829 1016.80847163744465433 0.799999999999997157829 417.61148613467872792
1.007140329435330272645 1111.41855826267737939 1.007140329435330272645 409.35476643325131363
1.267914553968893187630 1203.43296506841716109 1.267914553968893187630 397.80060422140786613
1.596209851975103788391 1292.30762008392275675 1.596209851975103788391 385.01284294850296419
2.009509145207687197399 1377.93934853003929675 2.009509145207687197399 372.72371435805962392
2.529822128134711078928 1460.55574148114419586 2.529822128134711078928 362.12089181897925982
3.184857364427983839050 1540.56591824980796446 3.184857364427983839050 353.80494211315038910
4.009497869018190385759 1618.43072696959166024 4.009497869018190385759 347.88188614261355269
5.009497869018190385759 1692.07656170087284409 5.009497869018190385759 344.17881693100838447
6.009497869018190385759 1751.25965095804235716 6.009497869018190385759 342.40081464381444221
7.009497869018204596614 1800.67203969951219733 7.009497869018204596614 341.58705147944658620
8.009497869018190385759 1843.01943770185835092 8.009497869018190385759 341.38217290008952887
9.009497869018204596614 1880.04088813340399611 9.009497869018204596614 341.44515799402927314
10.009497869018190385759 1912.84567433088545840 10.009497869018190385759 341.53079526676998512
11.009497869018190385759 1942.29506763705035155 11.009497869018190385759 341.55611479978477973
12.009497869018190385759 1968.93049595396701079 12.009497869018190385759 341.81924361231079956
13.009497869018190385759 1993.21650598707901736 13.009497869018190385759 341.93694372369805023
14.009497869018204596614 2015.55026922348656626 14.009497869018204596614 341.99445030451721550
15.009497869018190385759 2036.15118517611290372 15.009497869018190385759 342.21049372716788639
16.009497869018190385759 2055.24641006237879992 16.009497869018190385759 342.21180683007935386
17.009497869018190385759 2073.05746637183256098 17.009497869018190385759 341.95972664912306982
18.009497869018190385759 2089.69597007598849814 18.009497869018190385759 342.04967337194040056
19.009497869018204596614 2105.26557534954054063 19.009497869018204596614 342.03686368891629854
20.009497869018190385759 2119.90392847996645287 20.009497869018190385759 342.04238991223763833
21.009497869018204596614 2133.75945910164546149 21.009497869018204596614 341.85074110141476922
22.009497869018190385759 2146.86759595573266779 22.009497869018190385759 341.76253926591590471
23.009497869018190385759 2159.28011678907796522 23.009497869018190385759 342.24501548197122247
24.009497869018190385759 2171.03451959226731560 24.009497869018190385759 342.30456268257347574
25.009497869018190385759 2182.21506566783773451 25.009497869018190385759 342.29542807467134935
26.009497869018204596614 2192.92155077493771387 26.009497869018204596614 342.46551900330547369
27.009497869018190385759 2203.16528745416735546 27.009497869018190385759 342.36120978580180463
28.009497869018190385759 2212.95414897168075186 28.009497869018190385759 342.48292830602878212
29.009497869018190385759 2222.31770875307256574 29.009497869018190385759 342.87773806322240944
30.009497869018190385759 2231.26920464254635590 30.009497869018190385759 342.89939086484810105
31.009497869018190385759 2239.85438357923430885 31.009497869018190385759 342.77397366072119667
32.009497869018190385759 2248.12146777788302643 32.009497869018190385759 342.61800922889676713
33.009497869018190385759 2256.09343771190879124 33.009497869018190385759 342.47995756087090058
34.009497869018190385759 2263.77090628748555901 34.009497869018190385759 342.21012297213553666
35.009497869018190385759 2271.15992304108658573 35.009497869018190385759 342.14544554763762108
36.009497869018190385759 2278.27977407065645821 36.009497869018190385759 342.13597757525786847
37.009497869018190385759 2285.14141957520769211 37.009497869018190385759 342.00807370203705204
38.009497869018190385759 2291.75281286834615457 38.009497869018190385759 341.70514656974938816
39.009497869018190385759 2298.14105083218328218 39.009497869018190385759 341.22830255157850843
40.009497869018190385759 2304.32788358919606253 40.009497869018190385759 340.56468726972343575
41.009497869018190385759 2310.33092200027704166 41.009497869018190385759 340.18332767204816491
42.009497869018190385759 2316.14503410651104787 42.009497869018190385759 339.46486014802292175
43.009497869018190385759 2321.77430990374386965 43.009497869018190385759 338.98492980015862486
44.009497869018218807469 2327.22002996358378368 44.009497869018218807469 338.55769258227383034
46.009497869018190385759 2337.60728449864336653 46.009497869018190385759 337.39775312370585425
48.009497869018190385759 2347.32362963832474634 48.009497869018190385759 336.21231662193622469
50.009497869018190385759 2356.47890864458577198 50.009497869018190385759 335.16684327694247258
52.009497869018190385759 2365.16423018154046076 52.009497869018190385759 334.42937033938142122
54.009497869018190385759 2373.39420912222931292 54.009497869018190385759 333.73018974990071683
56.009497869018190385759 2381.18680720093198033 56.009497869018190385759 333.42471064821302207
58.009497869018218807469 2388.59648421218435033 58.009497869018218807469 333.14778083395850672
60.009497869018190385759 2395.71012415202858392 60.009497869018190385759 332.75647339328213548
62.009497869018190385759 2402.50461163393856623 62.009497869018190385759 332.30925336031708639
64.009497869018190385759 2409.00251730884883727 64.009497869018190385759 331.94511702014551702
66.009497869018190385759 2415.21895918743166476 66.009497869018190385759 331.54372029913071174
68.009497869018190385759 2421.16265577052445224 68.009497869018190385759 330.71681954236504453
70.009497869018190385759 2426.83346836633700150 70.009497869018190385759 330.07363072361710010
72.009497869018218807469 2432.26491946674559586 72.009497869018218807469 328.35480316664705924
74.009497869018190385759 2437.48315196314069908 74.009497869018190385759 326.84174170484652677
76.009497869018190385759 2442.50755468605893839 76.009497869018190385759 325.57929940626206644
78.009497869018190385759 2447.33003751483101951 78.009497869018190385759 323.92264024114052745
80.009497869018190385759 2451.95056791852266542 80.009497869018190385759 322.83110527464469897
82.009497869018218807469 2456.37367345990151080 82.009497869018218807469 321.82533196391790398
84.009497869018190385759 2460.61434804001009979 84.009497869018190385759 320.41361404951055647
86.009497869018190385759 2464.63789291554348893 86.009497869018190385759 318.86525097707584564
88.009497869018190385759 2468.48666468595956758 88.009497869018190385759 317.86997159684415237
91.009497869018218807469 2474.00374091146295541 91.009497869018218807469 316.99815622633286694
94.009497869018190385759 2479.28913106982736281 94.009497869018190385759 316.43357354773974066
97.009497869018190385759 2484.36084927787851484 97.009497869018190385759 316.41200357991039027
99.504748934509109403734 2488.41416098320360106 99.504748934509109403734 308.94796778372113977
nan nan nan nan

