Time Pressure difference Time.1 Pressure.1 difference.1
(hr) (psi) (hr) (psi)
0.000200000000006639311 0.45520093434126196 0.000200000000006639311 0.36352009770184074
0.000399999999999067768 0.90879624356071775 0.000399999999999067768 0.94528308512444392
0.000600000000005707079 1.36106500035902411 0.000600000000005707079 1.38014722959768310
0.000799999999998135536 1.81213624675642349 0.000799999999998135536 1.82116379552579621
0.001007140329434719206 2.27813489729159357 0.001007140329434719206 2.28236117195578991
0.001267914553963578328 2.86319145231407024 0.001267914553963578328 2.86465433158110727
0.001596209851982166583 3.59733965762704333 0.001596209851982166583 3.59342928893982316
0.002009509145210586212 4.51799945823203331 0.002009509145210586212 4.50451354694312389
0.002529822128138903281 5.67170166959466382 0.002529822128138903281 5.64198915383305888
0.003184857364445292660 7.11616346984244696 0.003184857364445292660 7.05984567675958363
0.004009497869020606231 8.92277362545737063 0.004009497869020606231 8.82383236871103271
0.005047658755842121536 11.17951990700269782 0.005047658755842121536 11.01346194578151128
0.006354625877804664924 13.99439550312713365 0.006354625877804664924 13.72406941029327143
0.008000000000009777068 17.49927213909939638 0.008000000000009777068 17.06874623214037356
0.010071403294347192059 21.85419354614973386 0.010071403294347192059 21.17987268341739693
0.012679145539692626699 27.25194873616862168 0.012679145539692626699 26.20975923107048544
0.015962098519750611558 33.92265266099415300 0.015962098519750611558 32.32977463313452660
0.020095091452091651263 42.13790597579093600 0.020095091452091651263 39.72708926562696519
0.025298221281346400247 52.21385868346513348 0.025298221281346400247 48.59778363052900119
0.031848573644282396344 64.51217192187436922 0.031848573644282396344 59.13480443915152307
0.040094978690191851456 79.43750183212215177 0.040094978690191851456 71.50895380354246811
0.050476587558421215363 97.42966249873850870 0.050476587558421215363 85.84259019034338678
0.063546258777947173257 118.94894295845485033 0.063546258777947173257 102.17242662728492064
0.079999999999998294697 144.45107318968510413 0.079999999999998294697 120.40448279545671539
0.100714032943542974863 174.35172735013472334 0.100714032943542974863 140.26708092300233943
0.126791455396897845276 208.97978411694822398 0.126791455396897845276 161.25997680939656220
0.159620985197506115583 248.51837994636923668 0.159620985197506115583 182.63232765506424471
0.200950914520774404082 292.94805317614270734 0.200950914520774404082 203.38842794397402258
0.252982212813464002465 341.99056786770529470 0.252982212813464002465 222.36068826605762183
0.318485736442795541734 395.08587758130670409 0.318485736442795541734 238.34744566410896027
0.400949786901819038576 451.39970276990561615 0.400949786901819038576 250.30977574581359590
0.504765875584169521062 509.89136287693668237 0.504765875584169521062 257.59467921692601067
0.635462587779443310865 569.42416914794478089 0.635462587779443310865 260.09455692650368519
0.799999999999997157829 628.90636846198617604 0.799999999999997157829 258.29694627743106139
1.007140329435330272645 687.42366809023383212 1.007140329435330272645 253.19008127022766530
1.267914553968893187630 744.33551338317442969 1.267914553968893187630 246.04371457486624308
1.596209851975103788391 799.30539030021395774 1.596209851975103788391 238.13435432932237745
2.009509145207687197399 852.26948419239454324 2.009509145207687197399 230.53340346299850694
2.529822128134711078928 903.36856245109129304 2.529822128134711078928 223.97545001896233430
3.184857364427983839050 952.85566952696933640 3.184857364427983839050 218.83195065237745780
4.009497869018190385759 1001.01584467193697492 4.009497869018190385759 215.16848036811765610
5.009497869018190385759 1046.56654154862098949 5.009497869018190385759 212.87809444491264799
6.009497869018190385759 1083.17188343680277285 6.009497869018190385759 211.77838196931188008
7.009497869018204596614 1113.73394780511580393 7.009497869018204596614 211.27506118593308315
8.009497869018190385759 1139.92624363500931395 8.009497869018190385759 211.14834170344138897
9.009497869018204596614 1162.82438679131541903 9.009497869018204596614 211.18729862384657281
10.009497869018190385759 1183.11448028591985349 10.009497869018190385759 211.24026614694122372
11.009497869018190385759 1201.32922919311909027 11.009497869018190385759 211.25592653530708276
12.009497869018190385759 1217.80351217017346244 12.009497869018190385759 211.41867437872045343
13.009497869018190385759 1232.82465607327208090 13.009497869018190385759 211.49147309321278954
14.009497869018204596614 1246.63831550165991757 14.009497869018204596614 211.52704149760208452
15.009497869018190385759 1259.38019128274254399 15.009497869018190385759 211.66066654908354394
16.009497869018190385759 1271.19078184445083934 16.009497869018190385759 211.66147871657275914
17.009497869018190385759 1282.20710109679930611 17.009497869018190385759 211.50556456401741912
18.009497869018190385759 1292.49818465196585748 18.009497869018190385759 211.56119752575995108
19.009497869018204596614 1302.12814366991892712 19.009497869018204596614 211.55327460668860340
20.009497869018190385759 1311.18211377767693193 20.009497869018190385759 211.55669263194832297
21.009497869018204596614 1319.75190021185289879 21.009497869018204596614 211.43815589568313840
22.009497869018190385759 1327.85941600873752577 22.009497869018190385759 211.38360216447173912
23.009497869018190385759 1335.53668623071621369 23.009497869018190385759 211.68201860510185952
24.009497869018190385759 1342.80690376587176615 24.009497869018190385759 211.71884915355562384
25.009497869018190385759 1349.72218508575042506 25.009497869018190385759 211.71319930577868718
26.009497869018204596614 1356.34425488111264713 26.009497869018204596614 211.81840227292482837
27.009497869018190385759 1362.68011007323184458 27.009497869018190385759 211.75388596232437521
28.009497869018190385759 1368.73462035720217500 28.009497869018190385759 211.82917010350311671
29.009497869018190385759 1374.52607719716002066 29.009497869018190385759 212.07336394881025399
30.009497869018190385759 1380.06266833421614137 30.009497869018190385759 212.08675642656518789
31.009497869018190385759 1385.37268871492142353 31.009497869018190385759 212.00918461182303076
32.009497869018190385759 1390.48596426893891476 32.009497869018190385759 211.91271902645081582
33.009497869018190385759 1395.41670865251239775 33.009497869018190385759 211.82733266744614298
34.009497869018190385759 1400.16530095433631686 34.009497869018190385759 211.66043723332987270
35.009497869018190385759 1404.73548287417088432 35.009497869018190385759 211.62043358928374914
36.009497869018190385759 1409.13918305950323884 36.009497869018190385759 211.61457755219109345
37.009497869018190385759 1413.38318050475595555 37.009497869018190385759 211.53546770735476912
38.009497869018190385759 1417.47239441518490821 38.009497869018190385759 211.34810419889691957
39.009497869018190385759 1421.42358448762570333 39.009497869018190385759 211.05317132987025275
40.009497869018190385759 1425.25020339376919765 40.009497869018190385759 210.64271853702982185
41.009497869018190385759 1428.96314362996804448 41.009497869018190385759 210.40684375201169587
42.009497869018190385759 1432.55923102750352882 42.009497869018190385759 209.96246429019927859
43.009497869018190385759 1436.04099529035170235 43.009497869018190385759 209.66562249490621639
44.009497869018218807469 1439.40922846506077803 44.009497869018218807469 209.40137193576308050
46.009497869018190385759 1445.83385090886736180 46.009497869018190385759 208.68393759795802112
48.009497869018190385759 1451.84350907652583373 48.009497869018190385759 207.95073307993345679
50.009497869018190385759 1457.50614214134679969 50.009497869018190385759 207.30409719612245567
52.009497869018190385759 1462.87810173756679433 52.009497869018190385759 206.84796269298084326
54.009497869018190385759 1467.96842731262040616 54.009497869018190385759 206.41551239610109292
56.009497869018190385759 1472.78822838161499931 56.009497869018190385759 206.22657046864645736
58.009497869018218807469 1477.37118888067402622 58.009497869018218807469 206.05528656547318178
60.009497869018190385759 1481.77104744391863278 60.009497869018190385759 205.81325893850859643
62.009497869018190385759 1485.97350696997546038 62.009497869018190385759 205.53664880525255398
64.009497869018190385759 1489.99252763572121694 64.009497869018190385759 205.31142677995455870
66.009497869018190385759 1493.83746008432558483 66.009497869018190385759 205.06315883061358818
68.009497869018190385759 1497.51369679711888239 68.009497869018190385759 204.55171231288491640
70.009497869018190385759 1501.02115199182026117 70.009497869018190385759 204.15389349496857108
72.009497869018218807469 1504.38055967017680814 72.009497869018218807469 203.09078119110901639
74.009497869018190385759 1507.60808947607324626 74.009497869018190385759 202.15493730728658761
76.009497869018190385759 1510.71573359814942705 76.009497869018190385759 201.37410392170608020
78.009497869018190385759 1513.69848821459049759 78.009497869018190385759 200.34944339971221439
80.009497869018190385759 1516.55633320468450620 80.009497869018190385759 199.67431793510755256
82.009497869018218807469 1519.29206891199305574 82.009497869018218807469 199.05223692576410599
84.009497869018190385759 1521.91496921662042041 84.009497869018190385759 198.17907505545346680
86.009497869018190385759 1524.40357259336087736 86.009497869018190385759 197.22139676685955578
88.009497869018190385759 1526.78407702923914258 88.009497869018190385759 196.60580636012483069
91.009497869018218807469 1530.19644471724791401 91.009497869018218807469 196.06657969755121940
94.009497869018190385759 1533.46551221926142716 94.009497869018190385759 195.71737957580288025
97.009497869018190385759 1536.60242144952326271 97.009497869018190385759 195.70403833159244300
99.504748934509109403734 1539.10943591286195442 99.504748934509109403734 191.08745637187266198
nan nan nan nan

