Time Pressure difference Time.1 Pressure.1 difference.1
(hr) (psi) (hr) (psi)
0.000200000000006639311 0.87883684038878684 0.000200000000006639311 0.70183259738786041
0.000399999999999067768 1.75457376950226140 0.000399999999999067768 1.82501734317821485
0.000600000000005707079 2.62774958098512368 0.000600000000005707079 2.66459081918676777
0.000799999999998135536 3.49861341070856913 0.000799999999998135536 3.51604251033994952
0.001007140329434719206 4.39829693674179900 0.001007140329434719206 4.40645642322851305
0.001267914553963578328 5.52784043165745587 0.001267914553963578328 5.53066474965841515
0.001596209851982166583 6.94522875505367043 0.001596209851982166583 6.93767917463199346
0.002009509145210586212 8.72270698322899740 0.002009509145210586212 8.69667031508362243
0.002529822128138903281 10.95011015772108465 0.002529822128138903281 10.89274548313024837
0.003184857364445292660 13.73887034871041912 0.003184857364445292660 13.63014001097014471
0.004009497869020606231 17.22681477323704158 0.004009497869020606231 17.03579314981071846
0.005047658755842121536 21.58381763067309222 0.005047658755842121536 21.26321667634459445
0.006354625877804664924 27.01837671954107378 0.006354625877804664924 26.49646977388737312
0.008000000000009777068 33.78509110067000165 0.008000000000009777068 32.95389327300093640
0.010071403294347192059 42.19295031355186154 0.010071403294347192059 40.89106806397008143
0.012679145539692626699 52.61416380085109523 0.012679145539692626699 50.60205340597185852
0.015962098519750611558 65.49300459002155606 0.015962098519750611558 62.41770358002980146
0.020095091452091651263 81.35384036931898777 0.020095091452091651263 76.69938037049878687
0.025298221281346400247 100.80704833413524568 0.025298221281346400247 93.82564795821110692
0.031848573644282396344 124.55087206814428669 0.031848573644282396344 114.16902024931077619
0.040094978690191851456 153.36656375617744175 0.040094978690191851456 138.05925752581737243
0.050476587558421215363 188.10325351033819175 0.050476587558421215363 165.73259200982357697
0.063546258777947173257 229.64960155117739760 0.063546258777947173257 197.25990396289677165
0.079999999999998294697 278.88546612169130867 0.079999999999998294697 232.45974963064455210
0.100714032943542974863 336.61337141686590257 0.100714032943542974863 270.80761243893516621
0.126791455396897845276 403.46826933527597703 0.126791455396897845276 311.33769245317807872
0.159620985197506115583 479.80373354609241687 0.159620985197506115583 352.60036981579924031
0.200950914520774404082 565.58219025612947917 0.200950914520774404082 392.67327876774544393
0.252982212813464002465 660.26646132122664312 0.252982212813464002465 429.30220471804557292
0.318485736442795541734 762.77528919894609771 0.318485736442795541734 460.16714874567020388
0.400949786901819038576 871.49796629664263037 0.400949786901819038576 483.26230426837742016
0.504765875584169521062 984.42529548138497830 0.504765875584169521062 497.32695367063450931
0.635462587779443310865 1099.36272072723659221 0.635462587779443310865 502.15335990554905266
0.799999999999997157829 1214.20244130069590938 0.799999999999997157829 498.68279044073369732
1.007140329435330272645 1327.17927160486760840 1.007140329435330272645 488.82318610200888997
1.267914553968893187630 1437.05652036386618420 1.267914553968893187630 475.02600368651189910
1.596209851975103788391 1543.18449441172697334 1.596209851975103788391 459.75574248252382858
2.009509145207687197399 1645.43998955392953576 2.009509145207687197399 445.08091398513215609
2.529822128134711078928 1744.09477933075686451 2.529822128134711078928 432.41975569354411846
3.184857364427983839050 1839.63740576557233908 3.184857364427983839050 422.48942297484552455
4.009497869018190385759 1932.61818186662276275 4.009497869018190385759 415.41651866691324813
5.009497869018190385759 2020.56095065408976552 5.009497869018190385759 410.99456920203942900
6.009497869018190385759 2091.23330780317019162 6.009497869018190385759 408.87140168527730566
7.009497869018204596614 2150.23816930257771673 7.009497869018204596614 407.89966192466647499
8.009497869018190385759 2200.80650687197066873 8.009497869018190385759 407.65501007708212455
9.009497869018204596614 2245.01496573943768453 9.009497869018204596614 407.73022252560156176
10.009497869018190385759 2284.18817544252442531 10.009497869018190385759 407.83248464135732547
11.009497869018190385759 2319.35460672686122052 11.009497869018190385759 407.86271947874979560
12.009497869018190385759 2351.16079539424026734 12.009497869018190385759 408.17692973117925703
13.009497869018190385759 2380.16147103197454271 13.009497869018190385759 408.31747907412250242
14.009497869018204596614 2406.83090839554051854 14.009497869018204596614 408.38614946069884581
15.009497869018190385759 2431.43109922836038095 15.009497869018190385759 408.64413359293865824
16.009497869018190385759 2454.23329779457890254 16.009497869018190385759 408.64570160973357815
17.009497869018190385759 2475.50203094965991113 17.009497869018190385759 408.34468486994603609
18.009497869018190385759 2495.37058277697087760 18.009497869018190385759 408.45209303331029105
19.009497869018204596614 2513.96272993207003310 19.009497869018204596614 408.43679659466528165
20.009497869018190385759 2531.44284010361707260 20.009497869018190385759 408.44339562883453709
21.009497869018204596614 2547.98815770828514360 21.009497869018204596614 408.21454185699411710
22.009497869018190385759 2563.64098930154068512 22.009497869018190385759 408.10921731753842323
23.009497869018190385759 2578.46316429214903110 23.009497869018190385759 408.68535708795212713
24.009497869018190385759 2592.49946019031449396 24.009497869018190385759 408.75646424171867466
25.009497869018190385759 2605.85049602321896600 25.009497869018190385759 408.74555632393037286
26.009497869018204596614 2618.63544099309729063 26.009497869018204596614 408.94866716196065681
27.009497869018190385759 2630.86780375452417502 27.009497869018190385759 408.82410829952408449
28.009497869018190385759 2642.55698601810217951 28.009497869018190385759 408.96945614873408203
29.009497869018190385759 2653.73830232590353262 29.009497869018190385759 409.44091068949131795
30.009497869018190385759 2664.42756039708137905 30.009497869018190385759 409.46676696953642249
31.009497869018190385759 2674.67938806639949689 31.009497869018190385759 409.31700240749773911
32.009497869018190385759 2684.55136897178363142 32.009497869018190385759 409.13076045617697218
33.009497869018190385759 2694.07094480722253138 33.009497869018190385759 408.96590869006934099
34.009497869018190385759 2703.23884746293424541 34.009497869018190385759 408.64369086288871813
35.009497869018190385759 2712.06230087750509483 35.009497869018190385759 408.56645755011356869
36.009497869018190385759 2720.56433517692403257 36.009497869018190385759 408.55515155149299744
37.009497869018190385759 2728.75803827378058486 37.009497869018190385759 408.40241758098778746
38.009497869018190385759 2736.65290746581331405 38.009497869018190385759 408.04068292414768848
39.009497869018190385759 2744.28129997793394068 39.009497869018190385759 407.47126873540645420
40.009497869018190385759 2751.66918830402892127 40.009497869018190385759 406.67882520470357122
41.009497869018190385759 2758.83760211771232207 41.009497869018190385759 406.22343191538027440
42.009497869018190385759 2765.78041318813620819 42.009497869018190385759 405.36548762596862616
43.009497869018190385759 2772.50250550582495634 43.009497869018190385759 404.79238795549412089
44.009497869018218807469 2779.00540824093877745 44.009497869018218807469 404.28221078108998654
46.009497869018190385759 2791.40915011237484578 46.009497869018190385759 402.89709120189701252
48.009497869018190385759 2803.01173832657696039 48.009497869018190385759 401.48152481490802757
50.009497869018190385759 2813.94434011960765929 50.009497869018190385759 400.23309276185682393
52.009497869018190385759 2824.31575116486465049 52.009497869018190385759 399.35245352039004274
54.009497869018190385759 2834.14342353421943699 54.009497869018190385759 398.51754035597622305
56.009497869018190385759 2843.44880589005242655 56.009497869018190385759 398.15275831355461378
58.009497869018218807469 2852.29693035721356864 58.009497869018218807469 397.82206785815810690
60.009497869018190385759 2860.79154780230965116 60.009497869018190385759 397.35479554186514406
62.009497869018190385759 2868.90505542743403566 62.009497869018190385759 396.82075626999488804
64.009497869018190385759 2876.66440554487780901 64.009497869018190385759 396.38592980509480412
66.009497869018190385759 2884.08765103871610336 66.009497869018190385759 395.90660956713350060
68.009497869018190385759 2891.18520294042264140 68.009497869018190385759 394.91918180115368386
70.009497869018190385759 2897.95689563384257781 70.009497869018190385759 394.15113014174590944
72.009497869018218807469 2904.44275936322492271 72.009497869018218807469 392.09862500035279709
74.009497869018190385759 2910.67401216365988148 74.009497869018190385759 390.29183151662266482
76.009497869018190385759 2916.67380683730289093 76.009497869018190385759 388.78431012621359741
78.009497869018190385759 2922.43248272087021178 78.009497869018190385759 386.80604218411593820
80.009497869018190385759 2927.95000096816784207 80.009497869018190385759 385.50260652435002839
82.009497869018218807469 2933.23176808191374221 82.009497869018218807469 384.30158150996066979
84.009497869018190385759 2938.29568874303731718 84.009497869018190385759 382.61580549027331699
86.009497869018190385759 2943.10032810908023748 86.009497869018190385759 380.76685726156460987
88.009497869018190385759 2947.69626550535622300 88.009497869018190385759 379.57836337410958549
91.009497869018218807469 2954.28437684461368917 91.009497869018218807469 378.53730167884890534
94.009497869018190385759 2960.59582468609187345 94.009497869018190385759 377.86311604233480921
97.009497869018190385759 2966.65212024378752176 97.009497869018190385759 377.83735867668758601
99.504748934509109403734 2971.49230510183906517 99.504748934509109403734 368.92432270336001920
nan nan nan nan

