Time Pressure difference Time.1 Pressure.1 difference.1
(hr) (psi) (hr) (psi)
0.000200000000006639311 0.64874439730022915 0.000200000000006639311 0.51808247500937521
0.000399999999999067768 1.29520048580459957 0.000399999999999067768 1.34720089321567649
0.000600000000005707079 1.93976599503722236 0.000600000000005707079 1.96696165386093158
0.000799999999998135536 2.58262483342475679 0.000799999999998135536 2.59549073778402706
0.001007140329434719206 3.24675794668747209 0.001007140329434719206 3.25278115930195577
0.001267914553963578328 4.08057029973957697 0.001267914553963578328 4.08265516964387754
0.001596209851982166583 5.12686546096116924 0.001596209851982166583 5.12129247201095250
0.002009509145210586212 6.43897368043652829 0.002009509145210586212 6.41975379591711715
0.002529822128138903281 8.08320986122889273 0.002529822128138903281 8.04086410427667708
0.003184857364445292660 10.14183151450173526 0.003184857364445292660 10.06156838238911533
0.004009497869020606231 12.71658065963906381 0.004009497869020606231 12.57557131380167448
0.005047658755842121536 15.93285592585603716 0.005047658755842121536 15.69619302856817455
0.006354625877804664924 19.94456731376330438 0.006354625877804664924 19.55930330189606892
0.008000000000009777068 24.93965609605223932 0.008000000000009777068 24.32607811551392629
0.010071403294347192059 31.14621379478639440 0.010071403294347192059 30.18518351414049050
0.012679145539692626699 38.83899993238630088 0.012679145539692626699 37.35368970705484060
0.015962098519750611558 48.34597030700079756 0.015962098519750611558 46.07582844612786488
0.020095091452091651263 60.05420541440276594 0.020095091452091651263 56.61835167236252886
0.025298221281346400247 74.41427670033991149 0.025298221281346400247 69.26070988219554181
0.031848573644282396344 91.94161728281729040 0.031848573644282396344 84.27788734849879404
0.040094978690191851456 113.21293600526898615 0.040094978690191851456 101.91330824920923703
0.050476587558421215363 138.85504819619484351 0.050476587558421215363 122.34135572747844378
0.063546258777947173257 169.52394972728691869 0.063546258777947173257 145.61435254728013433
0.079999999999998294697 205.86913898018991631 0.079999999999998294697 171.59835960447389880
0.100714032943542974863 248.48302748258251427 0.100714032943542974863 199.90618649792853034
0.126791455396897845276 297.83432736375283412 0.126791455396897845276 229.82489395645748687
0.159620985197506115583 354.18404149290944360 0.159620985197506115583 260.28439397555689538
0.200950914520774404082 417.50443344994056361 0.200950914520774404082 289.86562449679507836
0.252982212813464002465 487.39896624941212622 0.252982212813464002465 316.90455754706385960
0.318485736442795541734 563.06947151642441440 0.318485736442795541734 339.68860413078306237
0.400949786901819038576 643.32694865565019882 0.400949786901819038576 356.73710740416134968
0.504765875584169521062 726.68823796877302357 0.504765875584169521062 367.11942421244384605
0.635462587779443310865 811.53335055573882073 0.635462587779443310865 370.68220613065574298
0.799999999999997157829 896.30633899418091914 0.799999999999997157829 368.12028292458700207
1.007140329435330272645 979.70416930378223697 1.007140329435330272645 360.84206837964927672
1.267914553968893187630 1060.81393421945108457 1.267914553968893187630 350.65719175724552770
1.596209851975103788391 1139.15603982566995001 1.596209851975103788391 339.38491009343204041
2.009509145207687197399 1214.63953860266451557 2.009509145207687197399 328.55216807409095736
2.529822128134711078928 1287.46504977062477337 2.529822128134711078928 319.20588770950655544
3.184857364427983839050 1357.99320784774295134 3.184857364427983839050 311.87546251734818270
4.009497869018190385759 1426.63024578245017437 4.009497869018190385759 306.65434884580270136
5.009497869018190385759 1491.54830100268804927 5.009497869018190385759 303.39013095159992872
6.009497869018190385759 1543.71759300026064921 6.009497869018190385759 301.82283999640981165
7.009497869018204596614 1587.27411174415215100 7.009497869018204596614 301.10551603323676773
8.009497869018190385759 1624.60291291777798506 8.009497869018190385759 300.92491764669290433
9.009497869018204596614 1657.23694540879068882 9.009497869018204596614 300.98043836719739375
10.009497869018190385759 1686.15403121040799306 10.009497869018190385759 301.05592675321372553
11.009497869018190385759 1712.11337226245632337 11.009497869018190385759 301.07824566437011526
12.009497869018190385759 1735.59223176077648532 12.009497869018190385759 301.31019103974574591
13.009497869018190385759 1757.00010290734621776 13.009497869018190385759 301.41394249233428582
14.009497869018204596614 1776.68708833357004551 14.009497869018204596614 301.46463395917373873
15.009497869018190385759 1794.84658648142681159 15.009497869018190385759 301.65507404166834249
16.009497869018190385759 1811.67883324911713316 16.009497869018190385759 301.65623152854624323
17.009497869018190385759 1827.37909846094930799 17.009497869018190385759 301.43402540966718561
18.009497869018190385759 1842.04577046201711710 18.009497869018190385759 301.51331253215056449
19.009497869018204596614 1855.77021935439165645 19.009497869018204596614 301.50202092668581599
20.009497869018190385759 1868.67377894227320212 20.009497869018190385759 301.50689223640813452
21.009497869018204596614 1880.88728844061529344 21.009497869018204596614 301.33795575643893017
22.009497869018190385759 1892.44197792486124854 22.009497869018190385759 301.26020673440223163
23.009497869018190385759 1903.38348895290027940 23.009497869018190385759 301.68550461785497419
24.009497869018190385759 1913.74487562252897987 24.009497869018190385759 301.73799487030458977
25.009497869018190385759 1923.60041341600594933 25.009497869018190385759 301.72994280622839369
26.009497869018204596614 1933.03807128129392368 26.009497869018204596614 301.87987623203332532
27.009497869018190385759 1942.06782110801873387 27.009497869018190385759 301.78792871637836015
28.009497869018190385759 1950.69660310031918016 28.009497869018190385759 301.89522235553999963
29.009497869018190385759 1958.95048593244882795 29.009497869018190385759 302.24324314602336017
30.009497869018190385759 1966.84113862960361985 30.009497869018190385759 302.26232987070693525
31.009497869018190385759 1974.40888665393003976 31.009497869018190385759 302.15177587925876423
32.009497869018190385759 1981.69623739788585226 32.009497869018190385759 302.01429481689433487
33.009497869018190385759 1988.72344791535078912 33.009497869018190385759 301.89260367386026473
34.009497869018190385759 1995.49105847689179427 34.009497869018190385759 301.65474722487340387
35.009497869018190385759 2002.00440168745899427 35.009497869018190385759 301.59773473217262563
36.009497869018190385759 2008.28047804648167585 36.009497869018190385759 301.58938881069570925
37.009497869018190385759 2014.32894885805512786 37.009497869018190385759 301.47664284570083737
38.009497869018190385759 2020.15682488733477840 38.009497869018190385759 301.20961565572719110
39.009497869018190385759 2025.78799176064921994 39.009497869018190385759 300.78928249749759516
40.009497869018190385759 2031.24162199002489615 40.009497869018190385759 300.20431236755530335
41.009497869018190385759 2036.53323937044729064 41.009497869018190385759 299.86814775606052308
42.009497869018190385759 2041.65832013226304298 42.009497869018190385759 299.23482593183507561
43.009497869018190385759 2046.62046956526410213 43.009497869018190385759 298.81177220533169248
44.009497869018218807469 2051.42081648031489749 44.009497869018218807469 298.43516693764775027
46.009497869018190385759 2060.57707583909723326 46.009497869018190385759 297.41269208760076026
48.009497869018190385759 2069.14193538096105840 48.009497869018190385759 296.36774185297088025
50.009497869018190385759 2077.21222082553276778 50.009497869018190385759 295.44616771929128163
52.009497869018190385759 2084.86824353474412419 52.009497869018190385759 294.79609281609134541
54.009497869018190385759 2092.12288637072333586 54.009497869018190385759 294.17977222874992549
56.009497869018190385759 2098.99198241978365331 56.009497869018190385759 293.91049550367307575
58.009497869018218807469 2105.52353743760295401 58.009497869018218807469 293.66638468546454988
60.009497869018190385759 2111.79413878412515260 60.009497869018190385759 293.32145115141457836
62.009497869018190385759 2117.78341048093216159 62.009497869018190385759 292.92723123522307560
64.009497869018190385759 2123.51124832755158423 64.009497869018190385759 292.60624875026371683
66.009497869018190385759 2128.99097869682145756 66.009497869018190385759 292.25242161808250785
68.009497869018190385759 2134.23028685866756859 68.009497869018190385759 291.52351700066259355
70.009497869018190385759 2139.22905055768524107 70.009497869018190385759 290.95655259045707908
72.009497869018218807469 2144.01681952994158564 72.009497869018218807469 289.44142355886157247
74.009497869018190385759 2148.61663846863757499 74.009497869018190385759 288.10767524998323097
76.009497869018190385759 2153.04559843093920790 76.009497869018190385759 286.99484518768701946
78.009497869018190385759 2157.29656805765534955 78.009497869018190385759 285.53451696199863363
80.009497869018190385759 2161.36951867309971931 80.009497869018190385759 284.57233997685949589
82.009497869018218807469 2165.26844127785898309 82.009497869018218807469 283.68576102011274997
84.009497869018190385759 2169.00655284339518403 84.009497869018190385759 282.44134601881233948
86.009497869018190385759 2172.55326677995435602 86.009497869018190385759 281.07647969875426952
88.009497869018190385759 2175.94591999969998142 88.009497869018190385759 280.19915103514136945
91.009497869018218807469 2180.80916664994629173 91.009497869018218807469 279.43065464194802416
94.009497869018190385759 2185.46818438548007180 94.009497869018190385759 278.93298074580673074
97.009497869018190385759 2189.93885246729496430 97.009497869018190385759 278.91396703827319925
99.504748934509109403734 2193.51180556194367455 99.504748934509109403734 272.33449530370904768
nan nan nan nan

