Time Pressure difference Time.1 Pressure.1 difference.1
(hr) (psi) (hr) (psi)
0.000200000000006639311 0.20849531846652691 0.000200000000006639311 0.16650281847292342
0.000399999999999067768 0.41625521374770103 0.000399999999999067768 0.43296725249313034
0.000600000000005707079 0.62340750928853117 0.000600000000005707079 0.63214772742521619
0.000799999999998135536 0.83001131010193852 0.000799999999998135536 0.83414619101637755
0.001007140329434719206 1.04345229784706217 0.001007140329434719206 1.04538805503814469
0.001267914553963578328 1.31142528199056851 0.001267914553963578328 1.31209532340667501
0.001596209851982166583 1.64768659500800707 0.001596209851982166583 1.64589553197791161
0.002009509145210586212 2.06937566426321196 0.002009509145210586212 2.06319872314365726
0.002529822128138903281 2.59780496180339560 0.002529822128138903281 2.58419576206587198
0.003184857364445292660 3.25941064038404038 0.003184857364445292660 3.23361544683696245
0.004009497869020606231 4.08689083939744524 0.004009497869020606231 4.04157285501180574
0.005047658755842121536 5.12054652674758692 0.005047658755842121536 5.04448713210065591
0.006354625877804664924 6.40984173592137019 0.006354625877804664924 6.28602449267082353
0.008000000000009777068 8.01517756736122067 0.008000000000009777068 7.81798413187451402
0.010071403294347192059 10.00985872278026179 0.010071403294347192059 9.70100007944848031
0.012679145539692626699 12.48218819850059091 0.012679145539692626699 12.00483497627498686
0.015962098519750611558 15.53756536114878450 0.015962098519750611558 14.80798071700139928
0.020095091452091651263 19.30039124073635648 0.020095091452091651263 18.19616679867220554
0.025298221281346400247 23.91547176925136498 0.025298221281346400247 22.25920381617295618
0.031848573644282396344 29.54845830728186939 0.031848573644282396344 27.08546699676465508
0.040094978690191851456 36.38469518223113397 0.040094978690191851456 32.75318869468824801
0.050476587558421215363 44.62563008610103310 0.050476587558421215363 39.31841266017552528
0.063546258777947173257 54.48208883681052583 0.063546258777947173257 46.79795453184035381
0.079999999999998294697 66.16280907045795345 0.079999999999998294697 55.14876857967087176
0.100714032943542974863 79.85818168774419235 0.100714032943542974863 64.24641845195910150
0.126791455396897845276 95.71884272509855407 0.126791455396897845276 73.86177769919440550
0.159620985197506115583 113.82867402653042177 0.159620985197506115583 83.65093839675387244
0.200950914520774404082 134.17876158250331287 0.200950914520774404082 93.15783834660123830
0.252982212813464002465 156.64166520947816252 0.252982212813464002465 101.84768750872346743
0.318485736442795541734 180.96086728632843688 0.318485736442795541734 109.17008916367034033
0.400949786901819038576 206.75424342198235195 0.400949786901819038576 114.64918560620296262
0.504765875584169521062 233.54513153669910253 0.504765875584169521062 117.98588409388399612
0.635462587779443310865 260.81289499294553025 0.635462587779443310865 119.13090107400076079
0.799999999999997157829 288.05747898532575846 0.799999999999997157829 118.30754291174305592
1.007140329435330272645 314.86011074935890974 1.007140329435330272645 115.96844963289625241
1.267914553968893187630 340.92739755324231510 1.267914553968893187630 112.69520503337852801
1.596209851975103788391 366.10520614115637272 1.596209851975103788391 109.07248711069327385
2.009509145207687197399 390.36430754067708904 2.009509145207687197399 105.59102968834420722
2.529822128134711078928 413.76917732705095432 2.529822128134711078928 102.58729553788238320
3.184857364427983839050 436.43571724684181845 3.184857364427983839050 100.23142265282251628
4.009497869018190385759 458.49448359973757761 4.009497869018190385759 98.55344629999549966
5.009497869018190385759 479.35803271661296776 5.009497869018190385759 97.50438267458589792
6.009497869018190385759 496.12434807050630070 6.009497869018190385759 97.00068225236731223
7.009497869018204596614 510.12266587424102227 7.009497869018204596614 96.77014663808249395
8.009497869018190385759 522.11950210289671759 8.009497869018190385759 96.71210541526238558
9.009497869018204596614 532.60752022740905431 9.009497869018204596614 96.72994882223629531
10.009497869018190385759 541.90097545942683155 10.009497869018190385759 96.75420949431067186
11.009497869018190385759 550.24386227641036839 11.009497869018190385759 96.76138240941985202
12.009497869018190385759 557.78956488086419085 12.009497869018190385759 96.83592567346502733
13.009497869018190385759 564.66968736202795753 13.009497869018190385759 96.86926961021242732
14.009497869018204596614 570.99674669875298605 14.009497869018204596614 96.88556097791627053
15.009497869018190385759 576.83289783205907497 15.009497869018190385759 96.94676515295616070
16.009497869018190385759 582.24249314408245937 16.009497869018190385759 96.94713714937914517
17.009497869018190385759 587.28828900601570240 17.009497869018190385759 96.87572391527075411
18.009497869018190385759 592.00190574387488596 18.009497869018190385759 96.90120543606889214
19.009497869018204596614 596.41270814078393414 19.009497869018204596614 96.89757650780809684
20.009497869018190385759 600.55969079962949309 20.009497869018190385759 96.89914206317341439
21.009497869018204596614 604.48490319922461822 21.009497869018204596614 96.84484877703735606
22.009497869018190385759 608.19838214998742387 22.009497869018190385759 96.81986157533285109
23.009497869018190385759 611.71479606552873065 23.009497869018190385759 96.95654501803022640
24.009497869018190385759 615.04476796575511344 24.009497869018190385759 96.97341448456653268
25.009497869018190385759 618.21216871628359968 25.009497869018190385759 96.97082668932563365
26.009497869018204596614 621.24527002766296846 26.009497869018204596614 97.01901271989804343
27.009497869018190385759 624.14727669412638988 27.009497869018190385759 96.98946236595513426
28.009497869018190385759 626.92041917820768049 28.009497869018190385759 97.02394470069211252
29.009497869018190385759 629.57307550453856493 29.009497869018190385759 97.13579261159009093
30.009497869018190385759 632.10899589760629169 30.009497869018190385759 97.14192675742310712
31.009497869018190385759 634.54114026906074741 31.009497869018190385759 97.10639660140068941
32.009497869018190385759 636.88316976551777771 32.009497869018190385759 97.06221254678678179
33.009497869018190385759 639.14159465653403913 33.009497869018190385759 97.02310310133024984
34.009497869018190385759 641.31658857580009681 34.009497869018190385759 96.94666011964561392
35.009497869018190385759 643.40986533105274248 35.009497869018190385759 96.92833728268288951
36.009497869018190385759 645.42688859112274713 36.009497869018190385759 96.92565504671526355
37.009497869018190385759 647.37076333338268341 37.009497869018190385759 96.88942042800371723
38.009497869018190385759 649.24374269746601840 38.009497869018190385759 96.80360247066262502
39.009497869018190385759 651.05350311385780060 39.009497869018190385759 96.66851460546978103
40.009497869018190385759 652.80620629897100571 40.009497869018190385759 96.48051524232570841
41.009497869018190385759 654.50684133416416444 41.009497869018190385759 96.37247770393237545
42.009497869018190385759 656.15395435748780528 42.009497869018190385759 96.16893893583944930
43.009497869018190385759 657.74870404722310013 43.009497869018190385759 96.03297672668149687
44.009497869018218807469 659.29145318381438301 44.009497869018218807469 95.91194225524914430
46.009497869018190385759 662.23411784329505281 46.009497869018190385759 95.58333638154645939
48.009497869018190385759 664.98671674855472702 48.009497869018190385759 95.24750730486003647
50.009497869018190385759 667.58036802459503178 50.009497869018190385759 94.95132919019476958
52.009497869018190385759 670.04088236519930888 52.009497869018190385759 94.74240626996019898
54.009497869018190385759 672.37240010121843170 54.009497869018190385759 94.54433140770323973
56.009497869018190385759 674.58000971493675024 56.009497869018190385759 94.45779048837637504
58.009497869018218807469 676.67913943257144638 58.009497869018218807469 94.37933745973316491
60.009497869018190385759 678.69440311756113715 60.009497869018190385759 94.26848174008331682
62.009497869018190385759 680.61925228004349719 62.009497869018190385759 94.14178622284377695
64.009497869018190385759 682.46008108862417885 64.009497869018190385759 94.03862795943175001
66.009497869018190385759 684.22117241088631090 66.009497869018190385759 93.92491398993432483
68.009497869018190385759 685.90499616072418121 68.009497869018190385759 93.69065655206954091
70.009497869018190385759 687.51151304734833047 70.009497869018190385759 93.50844391831589064
72.009497869018218807469 689.05021984893141962 72.009497869018218807469 93.02150744337292565
74.009497869018190385759 690.52852273447888365 74.009497869018190385759 92.59286362067322784
76.009497869018190385759 691.95191447652462102 76.009497869018190385759 92.23521913202230849
78.009497869018190385759 693.31810317858071357 78.009497869018190385759 91.76589469585360348
80.009497869018190385759 694.62707962477327328 80.009497869018190385759 91.45666752137225330
82.009497869018218807469 695.88012645421576963 82.009497869018218807469 91.17173625614377386
84.009497869018190385759 697.08149137476596024 84.009497869018190385759 90.77180262576426628
86.009497869018190385759 698.22134438126568057 86.009497869018190385759 90.33315800817837271
88.009497869018190385759 699.31168491667699527 88.009497869018190385759 90.05119962845132875
91.009497869018218807469 700.87464894895845191 91.009497869018218807469 89.80421807314847626
94.009497869018190385759 702.37197731210687834 94.009497869018190385759 89.64427422176375160
97.009497869018190385759 703.80877332815759928 97.009497869018190385759 89.63816354238996098
99.504748934509109403734 704.95705914986922380 99.504748934509109403734 87.52363421412415789
nan nan nan nan

