Time Pressure difference Time.1 Pressure.1 difference.1
(hr) (psi) (hr) (psi)
0.000200000000006639311 0.86969959535638908 0.000200000000006639311 0.69453566112012277
0.000399999999999067768 1.73633150913881651 0.000399999999999067768 1.80604268271038815
0.000600000000005707079 2.60042893316769774 0.000600000000005707079 2.63688713392112062
0.000799999999998135536 3.46223841305469948 0.000799999999998135536 3.47948630276552695
0.001007140329434719206 4.35256795157718734 0.001007140329434719206 4.36064260408341653
0.001267914553963578328 5.47036761053436305 0.001267914553963578328 5.47316256417047242
0.001596209851982166583 6.87301938236407750 0.001596209851982166583 6.86554829474451545
0.002009509145210586212 8.63201721308200476 0.002009509145210586212 8.60625124753549464
0.002529822128138903281 10.83626213150659368 0.002529822128138903281 10.77949387602775921
0.003184857364445292660 13.59602765132306956 0.003184857364445292660 13.48842778023226963
0.004009497869020606231 17.04770800338296866 0.004009497869020606231 16.85867242708111746
0.005047658755842121536 21.35941120918216285 0.005047658755842121536 21.04214353509715352
0.006354625877804664924 26.73746732075567678 0.006354625877804664924 26.22098662879024644
0.008000000000009777068 33.43382833875377003 0.008000000000009777068 32.61127245447257650
0.010071403294347192059 41.75427124601965545 0.010071403294347192059 40.46592463419345620
0.012679145539692626699 52.06713563278931645 0.012679145539692626699 50.07594510023869105
0.015962098519750611558 64.81207543076803290 0.015962098519750611558 61.76874824980264833
0.020095091452091651263 80.50800649024289157 0.020095091452091651263 75.90193879764861151
0.025298221281346400247 99.75895992990510308 0.025298221281346400247 92.85014500212383837
0.031848573644282396344 123.25591971204826791 0.031848573644282396344 112.98200775144461261
0.040094978690191851456 151.77201536173703289 0.040094978690191851456 136.62385881808202726
0.050476587558421215363 186.14754860616645260 0.050476587558421215363 164.00947432352103306
0.063546258777947173257 227.26194028741281272 0.063546258777947173257 195.20899758899145127
0.079999999999998294697 275.98590078394215652 0.079999999999998294697 230.04287132635616331
0.100714032943542974863 333.11361046640701034 0.100714032943542974863 267.99203234741503366
0.126791455396897845276 399.27341965409635804 0.126791455396897845276 308.10072211576311929
0.159620985197506115583 474.81522591943166844 0.159620985197506115583 348.93439243586175280
0.200950914520774404082 559.70184612303171434 0.200950914520774404082 388.59066433821311648
0.252982212813464002465 653.40168714869969335 0.252982212813464002465 424.83876024555166850
0.318485736442795541734 754.84473326209513289 0.318485736442795541734 455.38280220861690850
0.400949786901819038576 862.43702335783063972 0.400949786901819038576 478.23783796691031966
0.504765875584169521062 974.19024987619116018 0.504765875584169521062 492.15625755496631655
0.635462587779443310865 1087.93267353631063088 0.635462587779443310865 496.93248376286379653
0.799999999999997157829 1201.57840835711567706 0.799999999999997157829 493.49799772348603710
1.007140329435330272645 1313.38062133298330991 1.007140329435330272645 483.74090344877441794
1.267914553968893187630 1422.11547903683140248 1.267914553968893187630 470.08716999979009188
1.596209851975103788391 1527.14004314657677241 1.596209851975103788391 454.97567332627829728
2.009509145207687197399 1628.33239041868091590 2.009509145207687197399 440.45341866014496190
2.529822128134711078928 1725.96146877060709812 2.529822128134711078928 427.92389812017074746
3.184857364427983839050 1820.51074086630819693 3.184857364427983839050 418.09681082671386321
4.009497869018190385759 1912.52479812320802921 4.009497869018190385759 411.09744333105686565
5.009497869018190385759 1999.55322810475604456 5.009497869018190385759 406.72146876610133859
6.009497869018190385759 2069.49080649330699089 6.009497869018190385759 404.62037576983493636
7.009497869018204596614 2127.88219589773052576 7.009497869018204596614 403.65873916363494800
8.009497869018190385759 2177.92477570411438137 8.009497869018190385759 403.41663095529770544
9.009497869018204596614 2221.67360031114458252 9.009497869018204596614 403.49106142183831025
10.009497869018190385759 2260.43952711561723845 10.009497869018190385759 403.59226032088957936
11.009497869018190385759 2295.24033387809458873 11.009497869018190385759 403.62218080742059101
12.009497869018190385759 2326.71583438352490703 12.009497869018190385759 403.93312422357718106
13.009497869018190385759 2355.41499070933605253 13.009497869018190385759 404.07221227845582234
14.009497869018204596614 2381.80714658802526174 14.009497869018204596614 404.14016870071054655
15.009497869018190385759 2406.15156984129816919 15.009497869018190385759 404.39547057826729315
16.009497869018190385759 2428.71669450937997681 16.009497869018190385759 404.39702229243010834
17.009497869018190385759 2449.76429716851998819 17.009497869018190385759 404.09913521628874378
18.009497869018190385759 2469.42627615074525238 18.009497869018190385759 404.20542665961801276
19.009497869018204596614 2487.82512120876845074 19.009497869018204596614 404.19028925766968996
20.009497869018190385759 2505.12349110443028621 20.009497869018190385759 404.19681968184289644
21.009497869018204596614 2521.49678744855873447 21.009497869018204596614 403.97034529704427541
22.009497869018190385759 2536.98687693640158614 22.009497869018190385759 403.86611581423704820
23.009497869018190385759 2551.65494613788314382 23.009497869018190385759 404.43626547361617440
24.009497869018190385759 2565.54530701253270308 24.009497869018190385759 404.50663332805243044
25.009497869018190385759 2578.75753245397982027 25.009497869018190385759 404.49583881961729048
26.009497869018204596614 2591.40955266519131328 26.009497869018204596614 404.69683791925598371
27.009497869018190385759 2603.51473585159465074 27.009497869018190385759 404.57357409225107858
28.009497869018190385759 2615.08238597443551043 28.009497869018190385759 404.71741076344477506
29.009497869018190385759 2626.14745041136256987 29.009497869018190385759 405.18396360292763347
30.009497869018190385759 2636.72557252905880887 30.009497869018190385759 405.20955105586449463
31.009497869018190385759 2646.87081219803440035 31.009497869018190385759 405.06134359229690745
32.009497869018190385759 2656.64015436054614838 32.009497869018190385759 404.87703799396717841
33.009497869018190385759 2666.06075539996436419 33.009497869018190385759 404.71390018762065210
34.009497869018190385759 2675.13333959706233145 34.009497869018190385759 404.39503245127076525
35.009497869018190385759 2683.86505578331525612 35.009497869018190385759 404.31860213135058757
36.009497869018190385759 2692.27869464105788211 36.009497869018190385759 404.30741368091986487
37.009497869018190385759 2700.38720800817418422 37.009497869018190385759 404.15626768175258121
38.009497869018190385759 2708.19999443923097715 38.009497869018190385759 403.79829397125013202
39.009497869018190385759 2715.74907474186875334 39.009497869018190385759 403.23479996783601109
40.009497869018190385759 2723.06015137459189646 40.009497869018190385759 402.45059545304786752
41.009497869018190385759 2730.15403536601570522 41.009497869018190385759 401.99993687656251495
42.009497869018190385759 2737.02466220035785227 42.009497869018190385759 401.15091261284425173
43.009497869018190385759 2743.67686508941278589 43.009497869018190385759 400.58377144555987570
44.009497869018218807469 2750.11215730459616680 44.009497869018218807469 400.07889857070057360
46.009497869018190385759 2762.38693777661319473 46.009497869018190385759 398.70818004573362714
48.009497869018190385759 2773.86889416628173421 48.009497869018190385759 397.30733126768308239
50.009497869018190385759 2784.68782996713480316 50.009497869018190385759 396.07187913200766616
52.009497869018190385759 2794.95140970662851032 52.009497869018190385759 395.20039587509296553
54.009497869018190385759 2804.67690400787159888 54.009497869018190385759 394.37416328233189233
56.009497869018190385759 2813.88553853202756727 56.009497869018190385759 394.01317386984089808
58.009497869018218807469 2822.64166926654343115 58.009497869018218807469 393.68592159498251704
60.009497869018190385759 2831.04796838281527016 60.009497869018190385759 393.22350749747897680
62.009497869018190385759 2839.07712006854762876 62.009497869018190385759 392.69502061879455823
64.009497869018190385759 2846.75579641350395832 64.009497869018190385759 392.26471503396430762
66.009497869018190385759 2854.10186260636646693 66.009497869018190385759 391.79037827673801075
68.009497869018190385759 2861.12562143537115844 68.009497869018190385759 390.81321677297540873
70.009497869018190385759 2867.82690900626994335 70.009497869018190385759 390.05315052779582174
72.009497869018218807469 2874.24533936984516913 72.009497869018218807469 388.02198523191816548
74.009497869018190385759 2880.41180598804521651 74.009497869018190385759 386.23397693563691746
76.009497869018190385759 2886.34922094390913117 76.009497869018190385759 384.74212920807718774
78.009497869018190385759 2892.04802401583265237 78.009497869018190385759 382.78442926915823818
80.009497869018190385759 2897.50817676150472835 80.009497869018190385759 381.49454539791537400
82.009497869018218807469 2902.73502947236647742 82.009497869018218807469 380.30600741108582952
84.009497869018190385759 2907.74630067482075901 84.009497869018190385759 378.63775836324776947
86.009497869018190385759 2912.50098632344679572 86.009497869018190385759 376.80803360383566769
88.009497869018190385759 2917.04913987155714494 88.009497869018190385759 375.63189645812173012
91.009497869018218807469 2923.56875477912126371 91.009497869018218807469 374.60165865572292887
94.009497869018190385759 2929.81458265249375472 94.009497869018190385759 373.93448251070373090
97.009497869018190385759 2935.80791105410753516 97.009497869018190385759 373.90899294375418549
99.504748934509109403734 2940.59777262913576124 99.504748934509109403734 365.08862558640635143
nan nan nan nan

