Time Pressure difference Time.1 Pressure.1 difference.1
(hr) (psi) (hr) (psi)
0.000200000000006639311 0.56650919200865080 0.000200000000006639311 0.45241004859973616
0.000399999999999067768 1.13102014253359395 0.000399999999999067768 1.17642894900523864
0.000600000000005707079 1.69388016468039160 0.000600000000005707079 1.71762848647010924
0.000799999999998135536 2.25524985453992821 0.000799999999998135536 2.26648486961422080
0.001007140329434719206 2.83519708020596140 0.001007140329434719206 2.84045678699607418
0.001267914553963578328 3.56331490963174424 0.001267914553963578328 3.56513550025240011
0.001596209851982166583 4.47698110675482397 0.001596209851982166583 4.47211455302364858
0.002009509145210586212 5.62276574911358829 0.002009509145210586212 5.60598218798396175
0.002529822128138903281 7.05857762529846866 0.002529822128138903281 7.02159964035428175
0.003184857364445292660 8.85624723801559988 0.003184857364445292660 8.78615830574824130
0.004009497869020606231 11.10461973095242172 0.004009497869020606231 10.98148480923526549
0.005047658755842121536 13.91319813243766568 0.005047658755842121536 13.70653475734122217
0.006354625877804664924 17.41638272469471715 0.006354625877804664924 17.07995499602191813
0.008000000000009777068 21.77829123880618312 0.008000000000009777068 21.24249074875864096
0.010071403294347192059 27.19810218699656801 0.010071403294347192059 26.35889264615084926
0.012679145539692626699 33.91574641983028471 0.012679145539692626699 32.61871495545633337
0.015962098519750611558 42.21760787371900392 0.015962098519750611558 40.23523047408348674
0.020095091452091651263 52.44170050271791439 0.020095091452091651263 49.44137751671093639
0.025298221281346400247 64.98148106226865650 0.025298221281346400247 60.48118327741018163
0.031848573644282396344 80.28704607795313564 0.031848573644282396344 73.59477486770316546
0.040094978690191851456 98.86200045530532066 0.040094978690191851456 88.99471987959115893
0.050476587558421215363 121.25370405864902068 0.050476587558421215363 106.83329655075581854
0.063546258777947173257 148.03499835340548429 0.063546258777947173257 127.15619518213196670
0.079999999999998294697 179.77305094044751854 0.079999999999998294697 149.84645486587862706
0.100714032943542974863 216.98517892845234201 0.100714032943542974863 174.56596567424745103
0.126791455396897845276 260.08068023313632011 0.126791455396897845276 200.69216091972347726
0.159620985197506115583 309.28747285296316250 0.159620985197506115583 227.29059755612010463
0.200950914520774404082 364.58133625206079387 0.200950914520774404082 253.12209463100415974
0.252982212813464002465 425.61599869666974882 0.252982212813464002465 276.73355729461917463
0.318485736442795541734 491.69446808476487831 0.318485736442795541734 296.62948529730346081
0.400949786901819038576 561.77846220634251040 0.400949786901819038576 311.51691069095784314
0.504765875584169521062 634.57282752202706888 0.504765875584169521062 320.58315917142982698
0.635462587779443310865 708.66292583740573718 0.635462587779443310865 323.69432084648809678
0.799999999999997157829 782.69004250196087469 0.799999999999997157829 321.45714846935766218
1.007140329435330272645 855.51631685682389161 1.007140329435330272645 315.10152450053880102
1.267914553968893187630 926.34456227614055024 1.267914553968893187630 306.20768857674960373
1.596209851975103788391 994.75597843931734587 1.596209851975103788391 296.36428768722237237
2.009509145207687197399 1060.67114638542534522 2.009509145207687197399 286.90471014920615289
2.529822128134711078928 1124.26525472927801275 2.529822128134711078928 278.74316954914655753
3.184857364427983839050 1185.85322375436703624 3.184857364427983839050 272.34195318416317377
4.009497869018190385759 1245.78979209171711773 4.009497869018190385759 267.78267082309531588
5.009497869018190385759 1302.47879805868547010 5.009497869018190385759 264.93222702815774028
6.009497869018190385759 1348.03508121149525323 6.009497869018190385759 263.56360675742826061
7.009497869018204596614 1386.07035110052743221 7.009497869018204596614 262.93721118395325220
8.009497869018190385759 1418.66733240707367258 8.009497869018190385759 262.77950555063324600
9.009497869018204596614 1447.16465655415527181 9.009497869018204596614 262.82798843332733441
10.009497869018190385759 1472.41619626824353873 10.009497869018190385759 262.89390786900349894
11.009497869018190385759 1495.08491662355322660 11.009497869018190385759 262.91339762240767186
12.009497869018190385759 1515.58758266434006146 12.009497869018190385759 263.11594147132723265
13.009497869018190385759 1534.28178000359798716 13.009497869018190385759 263.20654133133416508
14.009497869018204596614 1551.47323206593432587 14.009497869018204596614 263.25080711927847688
15.009497869018190385759 1567.33082199786576894 15.009497869018190385759 263.41710690962588615
16.009497869018190385759 1582.02940368232748369 16.009497869018190385759 263.41811767281501488
17.009497869018190385759 1595.73949443068818255 17.009497869018190385759 263.22407852675161166
18.009497869018190385759 1608.54701082598649009 18.009497869018190385759 263.29331516892023046
19.009497869018204596614 1620.53174084468014371 19.009497869018204596614 263.28345489372560451
20.009497869018190385759 1631.79963794959076040 20.009497869018190385759 263.28770871348314131
21.009497869018204596614 1642.46495610307238167 21.009497869018204596614 263.14018671689029816
22.009497869018190385759 1652.55496663861117668 22.009497869018190385759 263.07229320468928790
23.009497869018190385759 1662.10952556450456541 23.009497869018190385759 263.44368008883117227
24.009497869018190385759 1671.15749702249013353 24.009497869018190385759 263.48951664730827815
25.009497869018190385759 1679.76374129285022718 25.009497869018190385759 263.48248526741070918
26.009497869018204596614 1688.00507633014399289 26.009497869018204596614 263.61341304769109684
27.009497869018190385759 1695.89020998164983212 27.009497869018190385759 263.53312085092193229
28.009497869018190385759 1703.42520270732120480 28.009497869018190385759 263.62681388793635051
29.009497869018190385759 1710.63281870157516096 29.009497869018190385759 263.93071936694997248
30.009497869018190385759 1717.52324781740026083 30.009497869018190385759 263.94738664765958447
31.009497869018190385759 1724.13170383864303403 31.009497869018190385759 263.85084654245133606
32.009497869018190385759 1730.49530589674532166 32.009497869018190385759 263.73079265700630458
33.009497869018190385759 1736.63174325002455589 33.009497869018190385759 263.62452715182161000
34.009497869018190385759 1742.54148768404638759 34.009497869018190385759 263.41682152031199848
35.009497869018190385759 1748.22919583975271962 35.009497869018190385759 263.36703596330573873
36.009497869018190385759 1753.70971322368814072 36.009497869018190385759 263.35974797553711824
37.009497869018190385759 1758.99147646759752206 37.009497869018190385759 263.26129375258386744
38.009497869018190385759 1764.08060764809511056 38.009497869018190385759 263.02811507964906923
39.009497869018190385759 1768.99796463605957797 39.009497869018190385759 262.66106358936406195
40.009497869018190385759 1773.76028962509235498 40.009497869018190385759 262.15024460265391326
41.009497869018190385759 1778.38113860517933063 41.009497869018190385759 261.85669240670074487
42.009497869018190385759 1782.85656124225783969 42.009497869018190385759 261.30365081371513725
43.009497869018190385759 1787.18970581755456806 43.009497869018190385759 260.93422361592342895
44.009497869018218807469 1791.38155805323253844 44.009497869018218807469 260.60535704414309066
46.009497869018190385759 1799.37716481723987272 46.009497869018190385759 259.71249168213023495
48.009497869018190385759 1806.85633793830379545 48.009497869018190385759 258.79999992794643049
50.009497869018190385759 1813.90362945328183741 50.009497869018190385759 257.99524505064874802
52.009497869018190385759 1820.58917041062136377 52.009497869018190385759 257.42757400841776416
54.009497869018190385759 1826.92421063358960964 54.009497869018190385759 256.88937856595060794
56.009497869018190385759 1832.92257619755741871 56.009497869018190385759 256.65423551024974813
58.009497869018218807469 1838.62618762156876073 58.009497869018218807469 256.44106831688452530
60.009497869018190385759 1844.10192400867231299 60.009497869018190385759 256.13985875193952779
62.009497869018190385759 1849.33199225095472684 62.009497869018190385759 255.79561037442013571
64.009497869018190385759 1854.33376614518601855 64.009497869018190385759 255.51531581008947569
66.009497869018190385759 1859.11888280567541187 66.009497869018190385759 255.20634000452275814
68.009497869018190385759 1863.69405331320240293 68.009497869018190385759 254.56983174705749207
70.009497869018190385759 1868.05917090952812032 70.009497869018190385759 254.07473606490617613
72.009497869018218807469 1872.24003958952653193 72.009497869018218807469 252.75166564294954696
74.009497869018190385759 1876.25678288810604499 74.009497869018190385759 251.58698402111212999
76.009497869018190385759 1880.12432539039741641 76.009497869018190385759 250.61521692445901976
78.009497869018190385759 1883.83643971231890646 78.009497869018190385759 249.34000072737910614
80.009497869018190385759 1887.39310081312919465 80.009497869018190385759 248.49978983894774842
82.009497869018218807469 1890.79779379193291788 82.009497869018218807469 247.72559413023927277
84.009497869018190385759 1894.06206022944365941 84.009497869018190385759 246.63892187558258229
86.009497869018190385759 1897.15919070925565393 86.009497869018190385759 245.44706677919381832
88.009497869018190385759 1900.12178929551282636 88.009497869018190385759 244.68094879125021635
91.009497869018218807469 1904.36856806051650892 91.009497869018218807469 244.00986743381375277
94.009497869018190385759 1908.43700608309518429 94.009497869018190385759 243.57527896112696908
97.009497869018190385759 1912.34096976017303859 97.009497869018190385759 243.55867544187236717
99.504748934509109403734 1915.46101330761280224 99.504748934509109403734 237.81322125112617982
nan nan nan nan

