Time Pressure difference Time.1 Pressure.1 difference.1
(hr) (psi) (hr) (psi)
0.000200000000006639311 0.32894082116631340 0.000200000000006639311 0.26268970563855648
0.000399999999999067768 0.65672137308402223 0.000399999999999067768 0.68308777684175148
0.000600000000005707079 0.98354332142732404 0.000600000000005707079 0.99733266956328925
0.000799999999998135536 1.30949991553931322 0.000799999999998135536 1.31602347267922504
0.001007140329434719206 1.64624346592604209 0.001007140329434719206 1.64929748922352681
0.001267914553963578328 2.06902156043133489 0.001267914553963578328 2.07007867756590969
0.001596209851982166583 2.59953741682538153 0.001596209851982166583 2.59671167594921526
0.002009509145210586212 3.26483172529176091 0.002009509145210586212 3.25508643173262247
0.002529822128138903281 4.09852894372169185 0.002529822128138903281 4.07705785568958223
0.003184857364445292660 5.14233710594454241 0.003184857364445292660 5.10164030656349432
0.004009497869020606231 6.44784371474656748 0.004009497869020606231 6.37634601826563774
0.005047658755842121536 8.07863117367348238 0.005047658755842121536 7.95863308490780685
0.006354625877804664924 10.11273835627435247 0.006354625877804664924 9.91739322349659780
0.008000000000009777068 12.64545942898423547 0.008000000000009777068 12.33434946702114487
0.010071403294347192059 15.79244643115929669 0.010071403294347192059 15.30516347195855786
0.012679145539692626699 19.69301405022403628 0.012679145539692626699 18.93989900639400403
0.015962098519750611558 24.51344973312716391 0.015962098519750611558 23.36239188817750545
0.020095091452091651263 30.45001964673943107 0.020095091452091651263 28.70789662260634856
0.025298221281346400247 37.73118255228502704 0.025298221281346400247 35.11810641914139808
0.031848573644282396344 46.61828481945665459 0.031848573644282396344 42.73244992318249302
0.040094978690191851456 57.40374219985469040 0.040094978690191851456 51.67435347847229110
0.050476587558421215363 70.40537655018330554 0.050476587558421215363 62.03223670689047964
0.063546258777947173257 85.95580549552575178 0.063546258777947173257 73.83262946059275578
0.079999999999998294697 104.38435215896953423 0.079999999999998294697 87.00761895438114379
0.100714032943542974863 125.99139421652071746 0.100714032943542974863 101.36088329472433145
0.126791455396897845276 151.01458852246625497 0.126791455396897845276 116.53093214693619473
0.159620985197506115583 179.58627455978503917 0.159620985197506115583 131.97518567774716303
0.200950914520774404082 211.69238879151916422 0.200950914520774404082 146.97411946316370290
0.252982212813464002465 247.13187021096953799 0.252982212813464002465 160.68400100977888201
0.318485736442795541734 285.50001372663768962 0.318485736442795541734 172.23647533391815045
0.400949786901819038576 326.19394579723109473 0.400949786901819038576 180.88078685281419666
0.504765875584169521062 368.46164178698342084 0.504765875584169521062 186.14506016405601940
0.635462587779443310865 411.48169887333239103 0.635462587779443310865 187.95154113667052798
0.799999999999997157829 454.46518596888046204 0.799999999999997157829 186.65253782091735957
1.007140329435330272645 496.75140978783321088 1.007140329435330272645 182.96217551644190280
1.267914553968893187630 537.87748777324293314 1.267914553968893187630 177.79801272198363904
1.596209851975103788391 577.60024554541007547 1.596209851975103788391 172.08248962483878586
2.009509145207687197399 615.87356886895668140 2.009509145207687197399 166.58983169953904735
2.529822128134711078928 652.79918016538726988 2.529822128134711078928 161.85087264143996322
3.184857364427983839050 688.55993637350343306 3.184857364427983839050 158.13403733273992202
4.009497869018190385759 723.36181476293256765 4.009497869018190385759 155.48671209082954192
5.009497869018190385759 756.27801177601088511 5.009497869018190385759 153.83161569376898115
6.009497869018190385759 782.73004715506181128 6.009497869018190385759 153.03693295592609047
7.009497869018204596614 804.81504257449978468 7.009497869018204596614 152.67321939713414736
8.009497869018190385759 823.74232204281702252 8.009497869018190385759 152.58164838423866172
9.009497869018204596614 840.28915541854178173 9.009497869018204596614 152.60979973548037947
10.009497869018190385759 854.95133976865758996 10.009497869018190385759 152.64807553684073582
11.009497869018190385759 868.11382255561159127 11.009497869018190385759 152.65939216784963151
12.009497869018190385759 880.01859638574592282 12.009497869018190385759 152.77699827367391094
13.009497869018190385759 890.87329161499235397 13.009497869018190385759 152.82960464400048295
14.009497869018204596614 900.85542507054253747 14.009497869018204596614 152.85530735958104742
15.009497869018190385759 910.06305793424462536 15.009497869018190385759 152.95186852816988221
16.009497869018190385759 918.59771826715791576 16.009497869018190385759 152.95245542292485652
17.009497869018190385759 926.55841612104472915 17.009497869018190385759 152.83978753166221054
18.009497869018190385759 933.99503854412125747 18.009497869018190385759 152.87998945292142139
19.009497869018204596614 940.95391403884650572 19.009497869018204596614 152.87426413184067542
20.009497869018190385759 947.49656397072999425 20.009497869018190385759 152.87673409169988759
21.009497869018204596614 953.68932935017107866 21.009497869018204596614 152.79107615819441435
22.009497869018190385759 959.54804514500006007 22.009497869018190385759 152.75165411885183175
23.009497869018190385759 965.09585355358331071 23.009497869018190385759 152.96729811609552030
24.009497869018190385759 970.34951440015561275 24.009497869018190385759 152.99391289198544541
25.009497869018190385759 975.34668849262266122 25.009497869018190385759 152.98983015527073803
26.009497869018204596614 980.13197980459960945 26.009497869018204596614 153.06585273736902764
27.009497869018190385759 984.71044450547412907 27.009497869018190385759 153.01923146182562618
28.009497869018190385759 989.08560157199281093 28.009497869018190385759 153.07363387041465330
29.009497869018190385759 993.27066892349523641 29.009497869018190385759 153.25009511629352232
30.009497869018190385759 997.27156324881298133 30.009497869018190385759 153.25977289218943156
31.009497869018190385759 1001.10873126114756815 31.009497869018190385759 153.20371734722976953
32.009497869018190385759 1004.80372600456189502 32.009497869018190385759 153.13400863955206432
33.009497869018190385759 1008.36681866130459184 33.009497869018190385759 153.07230608815450523
34.009497869018190385759 1011.79828317138185412 34.009497869018190385759 152.95170281824564995
35.009497869018190385759 1015.10082339082430281 35.009497869018190385759 152.92279507546783179
36.009497869018190385759 1018.28305929117379947 36.009497869018190385759 152.91856334063442091
37.009497869018190385759 1021.34988956183099162 37.009497869018190385759 152.86139637246802181
38.009497869018190385759 1024.30486895695844396 38.009497869018190385759 152.72600230431237378
39.009497869018190385759 1027.16010849835743102 39.009497869018190385759 152.51287563253396229
40.009497869018190385759 1029.92532945973107417 40.009497869018190385759 152.21627105960550352
41.009497869018190385759 1032.60840306107184006 41.009497869018190385759 152.04582139743914126
42.009497869018190385759 1035.20703556002081314 42.009497869018190385759 151.72470047247975344
43.009497869018190385759 1037.72305499083813629 43.009497869018190385759 151.51019435763296883
44.009497869018218807469 1040.15703370832852670 44.009497869018218807469 151.31923957401858161
46.009497869018190385759 1044.79964408742966953 46.009497869018190385759 150.80080162188207282
48.009497869018190385759 1049.14238977062814229 48.009497869018190385759 150.27096770009791271
50.009497869018190385759 1053.23436548900235721 50.009497869018190385759 149.80369067457024812
52.009497869018190385759 1057.11629249648990481 52.009497869018190385759 149.47407523069418289
54.009497869018190385759 1060.79470294853581436 54.009497869018190385759 149.16157465119715653
56.009497869018190385759 1064.27762488890448367 56.009497869018190385759 149.02503997369342414
58.009497869018218807469 1067.58939926413677313 58.009497869018218807469 148.90126547432004145
60.009497869018190385759 1070.76885910180976680 60.009497869018190385759 148.72636959790037281
62.009497869018190385759 1073.80567291990905687 62.009497869018190385759 148.52648344321170271
64.009497869018190385759 1076.70992872946271746 64.009497869018190385759 148.36373176069710667
66.009497869018190385759 1079.48838356458554699 66.009497869018190385759 148.18432645423902727
68.009497869018190385759 1082.14493418185952578 68.009497869018190385759 147.81474101442049118
70.009497869018190385759 1084.67951859262916514 70.009497869018190385759 147.52726610220355496
72.009497869018218807469 1087.10711976166066961 72.009497869018218807469 146.75903166364813046
74.009497869018190385759 1089.43942232212611998 74.009497869018190385759 146.08276491548446074
76.009497869018190385759 1091.68509216216625646 76.009497869018190385759 145.51851305291168615
78.009497869018190385759 1093.84051338134645448 78.009497869018190385759 144.77806493847816682
80.009497869018190385759 1095.90567143988141652 80.009497869018190385759 144.29020055164707514
82.009497869018218807469 1097.88258994370312394 82.009497869018218807469 143.84066755949376670
84.009497869018190385759 1099.77797045580587110 84.009497869018190385759 143.20969657291894350
86.009497869018190385759 1101.57630428279367152 86.009497869018190385759 142.51765167824157743
88.009497869018190385759 1103.29652281674930236 88.009497869018190385759 142.07280897556464083
91.009497869018218807469 1105.76239435771935860 91.009497869018218807469 141.68314883253702874
94.009497869018190385759 1108.12471320953909526 94.009497869018190385759 141.43080713871887610
97.009497869018190385759 1110.39153082848747545 97.009497869018190385759 141.42116638560327146
99.504748934509109403734 1112.20316901732348924 99.504748934509109403734 138.08509621033135772
nan nan nan nan

