Time Pressure difference Time.1 Pressure.1 difference.1
(hr) (psi) (hr) (psi)
0.000200000000006639311 0.86471564352053587 0.000200000000006639311 0.69055551406499316
0.000399999999999067768 1.72638118530421014 0.000399999999999067768 1.79569286790975569
0.000600000000005707079 2.58552676163091988 0.000600000000005707079 2.62177603286713179
0.000799999999998135536 3.44239750524349741 0.000799999999998135536 3.45954655317947823
0.001007140329434719206 4.32762486876012620 0.001007140329434719206 4.33565324818608921
0.001267914553963578328 5.43901879901267638 0.001267914553963578328 5.44179773572250447
0.001596209851982166583 6.83363245180611667 0.001596209851982166583 6.82620417844225535
0.002009509145210586212 8.58255006572909807 0.002009509145210586212 8.55693175614560708
0.002529822128138903281 10.77416320811687278 0.002529822128138903281 10.71772027215367373
0.003184857364445292660 13.51811345274815324 0.003184857364445292660 13.41113019982979360
0.004009497869020606231 16.95001340164438730 0.004009497869020606231 16.76206112377406043
0.005047658755842121536 21.23700770655074876 0.005047658755842121536 20.92155818532582501
0.006354625877804664924 26.58424401232727519 0.006354625877804664924 26.07072309510090236
0.008000000000009777068 33.24223046861764885 0.008000000000009777068 32.42438837163892629
0.010071403294347192059 41.51499175463845859 0.010071403294347192059 40.23402821795166062
0.012679145539692626699 51.76875663202834232 0.012679145539692626699 49.78897693347514064
0.015962098519750611558 64.44065952572066180 0.015962098519750611558 61.41477261513329466
0.020095091452091651263 80.04664255620139102 0.020095091452091651263 75.46697066700305356
0.025298221281346400247 99.18727534577956817 0.025298221281346400247 92.31805248062170222
0.031848573644282396344 122.54958206326863035 0.031848573644282396344 112.33454638897214295
0.040094978690191851456 150.90226169204228768 0.040094978690191851456 135.84091406840821037
0.050476587558421215363 185.08080047661823642 0.050476587558421215363 163.06959194917422451
0.063546258777947173257 225.95957959808666260 0.063546258777947173257 194.09032138504306886
0.079999999999998294697 274.40431969062444750 0.079999999999998294697 228.72457406947160052
0.100714032943542974863 331.20464994797492864 0.100714032943542974863 266.45626138840407293
0.126791455396897845276 396.98531982799840989 0.126791455396897845276 306.33510193171866831
0.159620985197506115583 472.09422175943495859 0.159620985197506115583 346.93476841044139292
0.200950914520774404082 556.49438568679659056 0.200950914520774404082 386.36378374028640792
0.252982212813464002465 649.65726487277595425 0.252982212813464002465 422.40415416964600581
0.318485736442795541734 750.51897547835824298 0.318485736442795541734 452.77315864295150050
0.400949786901819038576 857.49469084575139277 0.400949786901819038576 475.49721998429191672
0.504765875584169521062 968.60749772790347834 0.504765875584169521062 489.33587785551088700
0.635462587779443310865 1081.69810234126020987 0.635462587779443310865 494.08473313958080553
0.799999999999997157829 1194.69257220607232739 0.799999999999997157829 490.66992896862365114
1.007140329435330272645 1305.85408482104617178 1.007140329435330272645 480.96874927428285673
1.267914553968893187630 1413.96582013117631504 1.267914553968893187630 467.39326071612367741
1.596209851975103788391 1518.38852427467645612 1.596209851975103788391 452.36836287741715523
2.009509145207687197399 1619.00097270854507769 2.009509145207687197399 437.92933030106098613
2.529822128134711078928 1716.07057210143443626 2.529822128134711078928 425.47161217105804099
3.184857364427983839050 1810.07801455761864418 3.184857364427983839050 415.70084056409660889
4.009497869018190385759 1901.56477062680005474 4.009497869018190385759 408.74158405695345664
5.009497869018190385759 1988.09447035057405628 5.009497869018190385759 404.39068671013512812
6.009497869018190385759 2057.63126032429090628 6.009497869018190385759 402.30163436141180000
7.009497869018204596614 2115.68802858599565297 7.009497869018204596614 401.34550856670870189
8.009497869018190385759 2165.44383143073855535 8.009497869018190385759 401.10478779796073923
9.009497869018204596614 2208.94194644116669224 9.009497869018204596614 401.17879172887643335
10.009497869018190385759 2247.48571893730422744 10.009497869018190385759 401.27941069154348952
11.009497869018190385759 2282.08709414240365732 11.009497869018190385759 401.30915971396831310
12.009497869018190385759 2313.38221928677148753 12.009497869018190385759 401.61832121943058382
13.009497869018190385759 2341.91691053335125616 13.009497869018190385759 401.75661220809217866
14.009497869018204596614 2368.15782196574446061 14.009497869018204596614 401.82417919526233163
15.009497869018190385759 2392.36273563017357446 15.009497869018190385759 402.07801802481014875
16.009497869018190385759 2414.79854726290750477 16.009497869018190385759 402.07956084662822605
17.009497869018190385759 2435.72553328789808802 17.009497869018190385759 401.78338085974843352
18.009497869018190385759 2455.27483617280358885 18.009497869018190385759 401.88906318305862442
19.009497869018204596614 2473.56824372333130668 19.009497869018204596614 401.87401252839941890
20.009497869018190385759 2490.76748255941902244 20.009497869018190385759 401.88050552893832901
21.009497869018204596614 2507.04694912507102345 21.009497869018204596614 401.65532899161706837
22.009497869018190385759 2522.44827019178046612 22.009497869018190385759 401.55169681243620516
23.009497869018190385759 2537.03228169010162674 23.009497869018190385759 402.11857913852378488
24.009497869018190385759 2550.84304164283321370 24.009497869018190385759 402.18854373877996977
25.009497869018190385759 2563.97955232530375724 25.009497869018190385759 402.17781108999196249
26.009497869018204596614 2576.55906812269768125 26.009497869018204596614 402.37765833232617751
27.009497869018190385759 2588.59488063181470352 27.009497869018190385759 402.25510088828406197
28.009497869018190385759 2600.09624049607236884 28.009497869018190385759 402.39811328055975537
29.009497869018190385759 2611.09789482161204432 29.009497869018190385759 402.86199246480197189
30.009497869018190385759 2621.61539732831897709 30.009497869018190385759 402.88743328477067962
31.009497869018190385759 2631.70249808801645486 31.009497869018190385759 402.74007514764190319
32.009497869018190385759 2641.41585548168905007 32.009497869018190385759 402.55682574185271960
33.009497869018190385759 2650.78247026873259529 33.009497869018190385759 402.39462282264855730
34.009497869018190385759 2659.80306257931442815 34.009497869018190385759 402.07758240857003784
35.009497869018190385759 2668.48474027739393932 35.009497869018190385759 402.00159008475253586
36.009497869018190385759 2676.85016343967663488 36.009497869018190385759 401.99046575151629668
37.009497869018190385759 2684.91220968147990789 37.009497869018190385759 401.84018591853339331
38.009497869018190385759 2692.68022369745904143 38.009497869018190385759 401.48426363330594313
39.009497869018190385759 2700.18604279492410569 39.009497869018190385759 400.92399882188857418
40.009497869018190385759 2707.45522214035327124 40.009497869018190385759 400.14428831578112522
41.009497869018190385759 2714.50845350145391421 41.009497869018190385759 399.69621230993465133
42.009497869018190385759 2721.33970711611527804 42.009497869018190385759 398.85205351477634395
43.009497869018190385759 2727.95378849864255244 43.009497869018190385759 398.28816244014115000
44.009497869018218807469 2734.35220224840941228 44.009497869018218807469 397.78618281957909630
46.009497869018190385759 2746.55664013892510411 46.009497869018190385759 396.42331941509911530
48.009497869018190385759 2757.97279735157553660 48.009497869018190385759 395.03049842374218770
50.009497869018190385759 2768.72973352033204719 50.009497869018190385759 393.80212624299900881
52.009497869018190385759 2778.93449618395425205 52.009497869018190385759 392.93563715947635728
54.009497869018190385759 2788.60425699349934803 54.009497869018190385759 392.11413942398041854
56.009497869018190385759 2797.76011997310433799 56.009497869018190385759 391.75521871872433621
58.009497869018218807469 2806.46607230799554600 58.009497869018218807469 391.42984181506858476
60.009497869018190385759 2814.82419779036354157 60.009497869018190385759 390.97007765508652710
62.009497869018190385759 2822.80733714551888625 62.009497869018190385759 390.44461935450351575
64.009497869018190385759 2830.44200961457272570 64.009497869018190385759 390.01677970425680542
66.009497869018190385759 2837.74597800690344229 66.009497869018190385759 389.54516120924955658
68.009497869018190385759 2844.72948606897944046 68.009497869018190385759 388.57359948487805923
70.009497869018190385759 2851.39237084577553105 70.009497869018190385759 387.81788892018664683
72.009497869018218807469 2857.77401937345621263 72.009497869018218807469 385.79836354004470422
74.009497869018190385759 2863.90514807407362241 74.009497869018190385759 384.02060170964477948
76.009497869018190385759 2869.80853772933096479 76.009497869018190385759 382.53730325273005519
78.009497869018190385759 2875.47468290399410762 78.009497869018190385759 380.59082222463581502
80.009497869018190385759 2880.90354537605207952 80.009497869018190385759 379.30833023804188997
82.009497869018218807469 2886.10044477624978754 82.009497869018218807469 378.12660335715406745
84.009497869018190385759 2891.08299809215668574 84.009497869018190385759 376.46791447577930967
86.009497869018190385759 2895.81043625855591017 86.009497869018190385759 374.64867524507445751
88.009497869018190385759 2900.33252588948516859 88.009497869018190385759 373.47927814031010030
91.009497869018218807469 2906.81477910703461021 91.009497869018218807469 372.45494427947232907
94.009497869018190385759 2913.02481427053089647 94.009497869018190385759 371.79159149345042579
97.009497869018190385759 2918.98379695064522821 97.009497869018190385759 371.76624799851776970
99.504748934509109403734 2923.74620946220647966 99.504748934509109403734 362.99642715897709877
nan nan nan nan

