Time Pressure difference Time.1 Pressure.1 difference.1
(hr) (psi) (hr) (psi)
0.000200000000006639311 0.88963540269980212 0.000200000000006639311 0.71045624934064133
0.000399999999999067768 1.77613280447724198 0.000399999999999067768 1.84744194191291866
0.000600000000005707079 2.66003761931480787 0.000600000000005707079 2.69733153813707771
0.000799999999998135536 3.54160204429950598 0.000799999999998135536 3.55924530110972226
0.001007140329434719206 4.45234028284543193 0.001007140329434719206 4.46060002767272046
0.001267914553963578328 5.59576285662111061 0.001267914553963578328 5.59862187796234601
0.001596209851982166583 7.03056710459591816 0.001596209851982166583 7.02292475995355936
0.002009509145210586212 8.82988580249362620 0.002009509145210586212 8.80352921309504666
0.002529822128138903281 11.08465782506548436 0.002529822128138903281 11.02658829152409936
0.003184857364445292660 13.90768444562273842 0.003184857364445292660 13.79761810184217907
0.004009497869020606231 17.43848641033730829 0.004009497869020606231 17.24511764030933847
0.005047658755842121536 21.84902521970782985 0.005047658755842121536 21.52448493418247821
0.006354625877804664924 27.35036055446927250 0.006354625877804664924 26.82204076354761568
0.008000000000009777068 34.20021981929826893 0.008000000000009777068 33.35880878580719155
0.010071403294347192059 42.71138921154446422 0.010071403294347192059 41.39351029916064562
0.012679145539692626699 53.26065163583319872 0.012679145539692626699 51.22381776729286429
0.015962098519750611558 66.29773905095755993 0.015962098519750611558 63.18465078848007721
0.020095091452091651263 82.35346222640892222 0.020095091452091651263 77.64181132023081489
0.025298221281346400247 102.04569826640721431 0.025298221281346400247 94.97851508813242560
0.031848573644282396344 126.08127030716687500 0.031848573644282396344 115.57185320133444861
0.040094978690191851456 155.25103004051609901 0.040094978690191851456 139.75563781677735165
0.050476587558421215363 190.41454112435937418 0.050476587558421215363 167.76900382090832409
0.063546258777947173257 232.47138304471738479 0.063546258777947173257 199.68370240478492406
0.079999999999998294697 282.31222515721304944 0.079999999999998294697 235.31606035389444287
0.100714032943542974863 340.74945254013556450 0.100714032943542974863 274.13511618345899024
0.126791455396897845276 408.42581895848826434 0.126791455396897845276 315.16320285194109374
0.159620985197506115583 485.69924255941867841 0.159620985197506115583 356.93288853754341972
0.200950914520774404082 572.53168786797220946 0.200950914520774404082 397.49818672992000756
0.252982212813464002465 668.37937625239487716 0.252982212813464002465 434.57718454917466033
0.318485736442795541734 772.14776439704280619 0.318485736442795541734 465.82137647127865421
0.400949786901819038576 882.20635340614774123 0.400949786901819038576 489.20030989738393146
0.504765875584169521062 996.52125846934154652 0.504765875584169521062 503.43777635278786420
0.635462587779443310865 1112.87095831651254230 0.635462587779443310865 508.32348625599524894
0.799999999999997157829 1229.12175296129044000 0.799999999999997157829 504.81027274293558094
1.007140329435330272645 1343.48676738073072556 1.007140329435330272645 494.82952014674060592
1.267914553968893187630 1454.71411465945220698 1.267914553968893187630 480.86280713445580659
1.596209851975103788391 1562.14611863417735549 1.596209851975103788391 465.40491512172309285
2.009509145207687197399 1665.65806125922381398 2.009509145207687197399 450.54977209648063763
2.529822128134711078928 1765.52505544729706344 2.529822128134711078928 437.73304191662168705
3.184857364427983839050 1862.24164610106595319 3.184857364427983839050 427.68069187718293733
4.009497869018190385759 1956.36490810884038183 4.009497869018190385759 420.52088042747084273
5.009497869018190385759 2045.38825912148422503 5.009497869018190385759 416.04459698996612360
6.009497869018190385759 2116.92899116937178405 6.009497869018190385759 413.89534140352742497
7.009497869018204596614 2176.65886514467001689 7.009497869018204596614 412.91166155134004612
8.009497869018190385759 2227.84855279761859492 8.009497869018190385759 412.66400358464551346
9.009497869018204596614 2272.60021579105614364 9.009497869018204596614 412.74014019368553363
10.009497869018190385759 2312.25475982886928250 10.009497869018190385759 412.84365883827382504
11.009497869018190385759 2347.85329282085876912 11.009497869018190385759 412.87426518122964580
12.009497869018190385759 2380.05029477053994924 12.009497869018190385759 413.19233624016345630
13.009497869018190385759 2409.40731141327478326 13.009497869018190385759 413.33461255991039707
14.009497869018204596614 2436.40444507714892097 14.009497869018204596614 413.40412672250334936
15.009497869018190385759 2461.30690668579791236 15.009497869018190385759 413.66528079209575708
16.009497869018190385759 2484.38928349526850070 16.009497869018190385759 413.66686807563763750
17.009497869018190385759 2505.91935269100758887 17.009497869018190385759 413.36215264245015533
18.009497869018190385759 2526.03203606250963276 18.009497869018190385759 413.47088056585562299
19.009497869018204596614 2544.85263115051657223 19.009497869018204596614 413.45539617475094474
20.009497869018190385759 2562.54752528447488658 20.009497869018190385759 413.46207629346105250
21.009497869018204596614 2579.29614074250821432 21.009497869018204596614 413.23041051875304674
22.009497869018190385759 2595.14130391488652094 22.009497869018190385759 413.12379182144013612
23.009497869018190385759 2610.14560392900966690 23.009497869018190385759 413.70701081398556198
24.009497869018190385759 2624.35436849132975112 24.009497869018190385759 413.77899168514244366
25.009497869018190385759 2637.86945296868407240 25.009497869018190385759 413.76794973811854561
26.009497869018204596614 2650.81149083516766041 26.009497869018204596614 413.97355626697532216
27.009497869018190385759 2663.19415673071443962 27.009497869018190385759 413.84746690811931558
28.009497869018190385759 2675.02696788788989579 28.009497869018190385759 413.99460069498508119
29.009497869018190385759 2686.34567277036194355 29.009497869018190385759 414.47184815543027980
30.009497869018190385759 2697.16627333201722649 30.009497869018190385759 414.49802214023958413
31.009497869018190385759 2707.54406863810390860 31.009497869018190385759 414.34641737091692448
32.009497869018190385759 2717.53734987597408690 32.009497869018190385759 414.15788700242484310
33.009497869018190385759 2727.17389592489189454 33.009497869018190385759 413.99100964750874709
34.009497869018190385759 2736.45444766805530890 34.009497869018190385759 413.66483262207350435
35.009497869018190385759 2745.38631780700188756 35.009497869018190385759 413.58665031774251020
36.009497869018190385759 2753.99281944658378052 36.009497869018190385759 413.57520539853402397
37.009497869018190385759 2762.28720131495174428 37.009497869018190385759 413.42059473462944652
38.009497869018190385759 2770.27907740631962952 38.009497869018190385759 413.05441532302660335
39.009497869018190385759 2778.00120252964825340 39.009497869018190385759 412.47800455162604294
40.009497869018190385759 2785.47986831154548781 40.009497869018190385759 411.67582400211489357
41.009497869018190385759 2792.73636282426241451 41.009497869018190385759 411.21483514307396945
42.009497869018190385759 2799.76448253732905869 42.009497869018190385759 410.34634900511576916
43.009497869018190385759 2806.56917145249371970 43.009497869018190385759 409.76620746723460798
44.009497869018218807469 2813.15197752934363962 44.009497869018218807469 409.24976157518659647
46.009497869018190385759 2825.70812832736646669 46.009497869018190385759 407.84762256827195870
48.009497869018190385759 2837.45328142510788894 48.009497869018190385759 406.41466264344660431
50.009497869018190385759 2848.52021575434719125 50.009497869018190385759 405.15089068804223871
52.009497869018190385759 2859.01906379732508867 52.009497869018190385759 404.25943073755928481
54.009497869018190385759 2868.96749206535832855 54.009497869018190385759 403.41425871573773065
56.009497869018190385759 2878.38721276771866542 56.009497869018190385759 403.04499447430714554
58.009497869018218807469 2887.34405710073360751 58.009497869018218807469 402.71024071463830296
60.009497869018190385759 2895.94305075262218452 60.009497869018190385759 402.23722686704871876
62.009497869018190385759 2904.15625176066350832 62.009497869018190385759 401.69662567595889868
64.009497869018190385759 2912.01094360922888882 64.009497869018190385759 401.25645635279443013
66.009497869018190385759 2919.52540100421992975 66.009497869018190385759 400.77124654669188430
68.009497869018190385759 2926.71016290093848511 68.009497869018190385759 399.77168592536452252
70.009497869018190385759 2933.56506164824759253 70.009497869018190385759 398.99419695823235088
72.009497869018218807469 2940.13061935540008562 72.009497869018218807469 396.91647199941201052
74.009497869018190385759 2946.43843764393159290 74.009497869018190385759 395.08747783960569677
76.009497869018190385759 2952.51195380222270614 76.009497869018190385759 393.56143302946571794
78.009497869018190385759 2958.34138846318728611 78.009497869018190385759 391.55885744724781716
80.009497869018190385759 2963.92670230331623316 80.009497869018190385759 390.23940603740908273
82.009497869018218807469 2969.27336825683323696 82.009497869018218807469 389.02362362681270724
84.009497869018190385759 2974.39951100547568785 84.009497869018190385759 387.31713391312166550
86.009497869018190385759 2979.26318658300988318 86.009497869018190385759 385.44546703888062211
88.009497869018190385759 2983.91559579984505035 88.009497869018190385759 384.24236972936807888
91.009497869018218807469 2990.58465746746787772 91.009497869018218807469 383.18851616072515753
94.009497869018190385759 2996.97365618034427825 94.009497869018190385759 382.50604657971695133
97.009497869018190385759 3003.10436746795494400 97.009497869018190385759 382.47997272469979180
99.504748934509109403734 3008.00402529685243280 99.504748934509109403734 373.45741929612336207
nan nan nan nan

