Time Pressure difference Time.1 Pressure.1 difference.1
(hr) (psi) (hr) (psi)
0.000200000000006639311 0.74343948218144063 0.000200000000006639311 0.59370526905683840
0.000399999999999067768 1.48425663866212099 0.000399999999999067768 1.54384737442769571
0.000600000000005707079 2.22290725423599778 0.000600000000005707079 2.25407257388672688
0.000799999999998135536 2.95960208183758944 0.000799999999998135536 2.97434597991895533
0.001007140329434719206 3.72067652021163564 0.001007140329434719206 3.72757892135115299
0.001267914553963578328 4.67619771865162903 0.001267914553963578328 4.67858691015527484
0.001596209851982166583 5.87521714156241526 0.001596209851982166583 5.86883068175390843
0.002009509145210586212 7.37884948014173236 0.002009509145210586212 7.35682413232499322
0.002529822128138903281 9.26308940563361993 0.002529822128138903281 9.21456257788428346
0.003184857364445292660 11.62220128742516323 0.003184857364445292660 11.53022241003618298
0.004009497869020606231 14.57277809267216639 0.004009497869020606231 14.41118607663572071
0.005047658755842121536 18.25852247585294563 0.005047658755842121536 17.98731467422345176
0.006354625877804664924 22.85581017390289560 0.006354625877804664924 22.41431044199357459
0.008000000000009777068 28.58001562863861267 0.008000000000009777068 27.87687568935334781
0.010071403294347192059 35.69252413102921651 0.010071403294347192059 34.59121542273461358
0.012679145539692626699 44.50820094684473816 0.012679145539692626699 42.80608487556219899
0.015962098519750611558 55.40287250290104737 0.015962098519750611558 52.80136550484562719
0.020095091452091651263 68.82012016119139730 0.020095091452091651263 64.88274615462799488
0.025298221281346400247 85.27628379872498954 0.025298221281346400247 79.37046779073624236
0.031848573644282396344 105.36203260963057460 0.031848573644282396344 96.57965323547556125
0.040094978690191851456 129.73825572946958573 0.040094978690191851456 116.78925849301187156
0.050476587558421215363 159.12326265761123523 0.050476587558421215363 140.19912084006813302
0.063546258777947173257 194.26880282448374260 0.063546258777947173257 166.86920042229928640
0.079999999999998294697 235.91917975322655820 0.079999999999998294697 196.64600748528059171
0.100714032943542974863 284.75327733279300446 0.100714032943542974863 229.08583471913703988
0.126791455396897845276 341.30822405961436061 0.126791455396897845276 263.37167745330276603
0.159620985197506115583 405.88312053284755621 0.159620985197506115583 298.27725045854469954
0.200950914520774404082 478.44618173840819964 0.200950914520774404082 332.17635585740276838
0.252982212813464002465 558.54298949196402191 0.252982212813464002465 363.16207298927292868
0.318485736442795541734 645.25886940742611841 0.318485736442795541734 389.27183187842609868
0.400949786901819038576 737.23126638515611830 0.400949786901819038576 408.80884907391089200
0.504765875584169521062 832.76052878623784181 0.504765875584169521062 420.70663850209626844
0.635462587779443310865 929.99020326169818418 0.635462587779443310865 424.78946797303058247
0.799999999999997157829 1027.13722586401013359 0.799999999999997157829 421.85358926697227844
1.007140329435330272645 1122.70836303058240446 1.007140329435330272645 413.51299769498865544
1.267914553968893187630 1215.65745342689979225 1.267914553968893187630 401.84146814690745941
1.596209851975103788391 1305.43489839177277645 1.596209851975103788391 388.92380862179476253
2.009509145207687197399 1391.93647509524294037 2.009509145207687197399 376.50984689668553074
2.529822128134711078928 1475.39208648490284759 2.529822128134711078928 365.79932074264837638
3.184857364427983839050 1556.21500771284217990 3.184857364427983839050 357.39889750707629901
4.009497869018190385759 1634.87076821420373562 4.009497869018190385759 351.41567505376877989
5.009497869018190385759 1709.26469833214582650 5.009497869018190385759 347.67499001495770017
6.009497869018190385759 1769.04897021156625669 6.009497869018190385759 345.87892675644917517
7.009497869018204596614 1818.96329066711427913 7.009497869018204596614 345.05689737483601220
8.009497869018190385759 1861.74085411192231732 8.009497869018190385759 344.84993763609497819
9.009497869018204596614 1899.13836893837083153 9.009497869018204596614 344.91356253347208849
10.009497869018190385759 1932.27638659835497492 10.009497869018190385759 345.00006971078909146
11.009497869018190385759 1962.02492724058674867 11.009497869018190385759 345.02564643996316818
12.009497869018190385759 1988.93091859909736741 12.009497869018190385759 345.29144811853063857
13.009497869018190385759 2013.46362625105575717 13.009497869018190385759 345.41034382924351576
14.009497869018204596614 2036.02425615690799532 14.009497869018204596614 345.46843456268953787
15.009497869018190385759 2056.83443649280025056 15.009497869018190385759 345.68667255735363142
16.009497869018190385759 2076.12363093208705322 16.009497869018190385759 345.68799899878217730
17.009497869018190385759 2094.11561219276563861 17.009497869018190385759 345.43335818393359204
18.009497869018190385759 2110.92313004290053868 18.009497869018190385759 345.52421858677945465
19.009497869018204596614 2126.65089157769625672 19.009497869018204596614 345.51127878282176198
20.009497869018190385759 2141.43794129748357591 20.009497869018190385759 345.51686114159440422
21.009497869018204596614 2155.43421658687657327 21.009497869018204596614 345.32326555955552294
22.009497869018190385759 2168.67550607266412044 22.009497869018190385759 345.23416776861716926
23.009497869018190385759 2181.21411346075001347 23.009497869018190385759 345.72154498460980676
24.009497869018190385759 2193.08791764681654968 24.009497869018190385759 345.78169706648225201
25.009497869018190385759 2204.38203586085182906 25.009497869018190385759 345.77246966910934134
26.009497869018204596614 2215.19727758867884404 26.009497869018204596614 345.94428838370015455
27.009497869018190385759 2225.54507028383659417 27.009497869018190385759 345.83891959175241482
28.009497869018190385759 2235.43336718922637374 28.009497869018190385759 345.96187453035634007
29.009497869018190385759 2244.89204213769744456 29.009497869018190385759 346.36069477041087339
30.009497869018190385759 2253.93446744365564882 30.009497869018190385759 346.38256752148873829
31.009497869018190385759 2262.60685474426009023 31.009497869018190385759 346.25587632770367463
32.009497869018190385759 2270.95791609616890128 32.009497869018190385759 346.09832760706842691
33.009497869018190385759 2279.01086540875667197 33.009497869018190385759 345.95887360832898594
34.009497869018190385759 2286.76632181410741396 34.009497869018190385759 345.68629803618654250
35.009497869018190385759 2294.23039629996856092 35.009497869018190385759 345.62096361753458496
36.009497869018190385759 2301.42257087272855642 36.009497869018190385759 345.61139946936322076
37.009497869018190385759 2308.35391706524887923 37.009497869018190385759 345.48219634686586232
38.009497869018190385759 2315.03246898100451290 38.009497869018190385759 345.17619207666552938
39.009497869018190385759 2321.48559875260025365 39.009497869018190385759 344.69450427049980590
40.009497869018190385759 2327.73527744055354560 40.009497869018190385759 344.02414797562352078
41.009497869018190385759 2333.79929479711927343 41.009497869018190385759 343.63891452198993193
42.009497869018190385759 2339.67246673287490921 42.009497869018190385759 342.91314879512475500
43.009497869018190385759 2345.35892478989899246 43.009497869018190385759 342.42834330828657130
44.009497869018218807469 2350.85996254786414283 44.009497869018218807469 341.99676620895610313
46.009497869018190385759 2361.35273095517595721 46.009497869018190385759 340.82504406965773569
48.009497869018190385759 2371.16777486038427014 48.009497869018190385759 339.62756588784753831
50.009497869018190385759 2380.41605331479058805 50.009497869018190385759 338.57147261045548703
52.009497869018190385759 2389.18960046555139343 52.009497869018190385759 337.82650841280633358
54.009497869018190385759 2397.50317964378700708 54.009497869018190385759 337.12022553742787068
56.009497869018190385759 2405.37493503931636951 56.009497869018190385759 336.81164337488786487
58.009497869018218807469 2412.85987965000595068 58.009497869018218807469 336.53190050382937670
60.009497869018190385759 2420.04578004070617681 60.009497869018190385759 336.13661815687078160
62.009497869018190385759 2426.90928601848190738 62.009497869018190385759 335.68485525675373538
64.009497869018190385759 2433.47319750724545884 64.009497869018190385759 335.31702001470682717
66.009497869018190385759 2439.75278608662665647 66.009497869018190385759 334.91154590036342142
68.009497869018190385759 2445.75685882011202921 68.009497869018190385759 334.07624547451098351
70.009497869018190385759 2451.48527560707861994 70.009497869018190385759 333.42652313503077721
72.009497869018218807469 2456.97189946132903060 72.009497869018218807469 331.69023570445727955
74.009497869018190385759 2462.24313883409831760 74.009497869018190385759 330.16180454383481901
76.009497869018190385759 2467.31857950792664269 76.009497869018190385759 328.88653833928276526
78.009497869018190385759 2472.19004918258860926 78.009497869018190385759 327.21305080792416220
80.009497869018190385759 2476.85751499670186604 80.009497869018190385759 326.11042801445483974
82.009497869018218807469 2481.32555050407609087 82.009497869018218807469 325.09443804481543339
84.009497869018190385759 2485.60930191400620970 84.009497869018190385759 323.66837988071324617
86.009497869018190385759 2489.67371801287981725 86.009497869018190385759 322.10428851521771776
88.009497869018190385759 2493.56158565906753211 88.009497869018190385759 321.09889907356148342
91.009497869018218807469 2499.13470441959270829 91.009497869018218807469 320.21822779070862452
94.009497869018190385759 2504.47378364277165019 94.009497869018190385759 319.64791007361969832
97.009497869018190385759 2509.59702043307197528 97.009497869018190385759 319.62612099776498553
99.504748934509109403734 2513.69150573359775080 99.504748934509109403734 312.08626542486501876
nan nan nan nan

