Time Pressure difference Time.1 Pressure.1 difference.1
(hr) (psi) (hr) (psi)
0.000200000000006639311 0.50420979406048538 0.000200000000006639311 0.40265821041061556
0.000399999999999067768 1.00664109460101403 0.000399999999999067768 1.04705626399733109
0.000600000000005707079 1.50760302047067096 0.000600000000005707079 1.52873972329524377
0.000799999999998135536 2.00723850689990657 0.000799999999998135536 2.01723799978860985
0.001007140329434719206 2.52340854499269618 0.001007140329434719206 2.52808983827949696
0.001267914553963578328 3.17145476561065776 0.001267914553963578328 3.17307514465279583
0.001596209851982166583 3.98464447478031936 0.001596209851982166583 3.98031309924538768
0.002009509145210586212 5.00442640720227061 0.002009509145210586212 4.98948854561035837
0.002529822128138903281 6.28234108292693616 0.002529822128138903281 6.24942959192822389
0.003184857364445292660 7.88231975582913336 0.003184857364445292660 7.81993855071727584
0.004009497869020606231 9.88343720922011748 0.004009497869020606231 9.77384351789707573
0.005047658755842121536 12.38315434954495942 0.005047658755842121536 12.19921788519959271
0.006354625877804664924 15.50109136933972920 0.006354625877804664924 15.20166082490513837
0.008000000000009777068 19.38331786210462226 0.008000000000009777068 18.90643971333796713
0.010071403294347192059 24.20710854473155038 0.010071403294347192059 23.46018744312839743
0.012679145539692626699 30.18600891031816147 0.012679145539692626699 29.03161287091201714
0.015962098519750611558 37.57490906062673730 0.015962098519750611558 35.81053504071653037
0.020095091452091651263 46.67465132719907928 0.020095091452091651263 44.00427588364155440
0.025298221281346400247 57.83542376069951985 0.025298221281346400247 53.83002675863340158
0.031848573644282396344 71.45782546820754533 0.031848573644282396344 65.50150783679740130
0.040094978690191851456 87.99007958412070707 0.040094978690191851456 79.20791050866837679
0.050476587558421215363 107.91935243929611943 0.050476587558421215363 95.08476687142049855
0.063546258777947173257 131.75548973682862197 0.063546258777947173257 113.17274263277727187
0.079999999999998294697 160.00328727397601369 0.079999999999998294697 133.36773915482157804
0.100714032943542974863 193.12317244805069549 0.100714032943542974863 155.36882868661027146
0.126791455396897845276 231.47943240691165556 0.126791455396897845276 178.62190861916735685
0.159620985197506115583 275.27492085300389135 0.159620985197506115583 202.29529723836495236
0.200950914520774404082 324.48808079912157609 0.200950914520774404082 225.28608715692013220
0.252982212813464002465 378.81072024762244155 0.252982212813464002465 246.30098134579742464
0.318485736442795541734 437.62249578805324290 0.318485736442795541734 264.00894072648566180
0.400949786901819038576 499.99930580535169611 0.400949786901819038576 277.25918590822783472
0.504765875584169521062 564.78842566843172790 0.504765875584169521062 285.32841292823741242
0.635462587779443310865 630.73078589927467874 0.635462587779443310865 288.09743805545201667
0.799999999999997157829 696.61709061391525211 0.799999999999997157829 286.10628903357786612
1.007140329435330272645 761.43461045761296191 1.007140329435330272645 280.44959731939451331
1.267914553968893187630 824.47382595545059303 1.267914553968893187630 272.53382253091939447
1.596209851975103788391 885.36199254056555219 1.596209851975103788391 263.77290707645744305
2.009509145207687197399 944.02842500872895926 2.009509145207687197399 255.35360566065710941
2.529822128134711078928 1000.62904636462121744 2.529822128134711078928 248.08959518523749921
3.184857364427983839050 1055.44414489574887739 3.184857364427983839050 242.39232490144729582
4.009497869018190385759 1108.78944838661641370 4.009497869018190385759 238.33442989680182222
5.009497869018190385759 1159.24432613141061665 5.009497869018190385759 235.79745132858025158
6.009497869018190385759 1199.79075409879419567 6.009497869018190385759 234.57933915213925502
7.009497869018204596614 1233.64325970384174980 7.009497869018204596614 234.02182872237477795
8.009497869018190385759 1262.65552898987357366 8.009497869018190385759 233.88146608392139569
9.009497869018204596614 1288.01898317943141592 9.009497869018204596614 233.92461727130452687
10.009497869018190385759 1310.49359403933112844 10.009497869018190385759 233.98328750217760330
11.009497869018190385759 1330.66941992741476497 11.009497869018190385759 234.00063395425436852
12.009497869018190385759 1348.91739395491845244 12.009497869018190385759 234.18090391949510831
13.009497869018190385759 1365.55577780378894204 13.009497869018190385759 234.26154045178861907
14.009497869018204596614 1380.85667428742249285 14.009497869018204596614 234.30093830117601783
15.009497869018190385759 1394.97039435880424207 15.009497869018190385759 234.44894999141189373
16.009497869018190385759 1408.05256310142635812 16.009497869018190385759 234.44984960029137255
17.009497869018190385759 1420.25494592291465779 17.009497869018190385759 234.27714906999739242
18.009497869018190385759 1431.65401110172138033 18.009497869018190385759 234.33877171192753508
19.009497869018204596614 1442.32077227671675246 19.009497869018204596614 234.32999577784670464
20.009497869018190385759 1452.34953113695246429 20.009497869018190385759 234.33378180217633258
21.009497869018204596614 1461.84197705947940449 21.009497869018204596614 234.20248289905049432
22.009497869018190385759 1470.82238233084626700 22.009497869018190385759 234.14205568217943210
23.009497869018190385759 1479.32621996723514712 23.009497869018190385759 234.47260090017667267
24.009497869018190385759 1487.37917990124878997 24.009497869018190385759 234.51339678140192291
25.009497869018190385759 1495.03898968439898454 25.009497869018190385759 234.50713864709427980
26.009497869018204596614 1502.37401954896972711 26.009497869018204596614 234.62366821106817838
27.009497869018190385759 1509.39201973440094662 27.009497869018190385759 234.55220580133374142
28.009497869018190385759 1516.09838422777693268 28.009497869018190385759 234.63559535187297911
29.009497869018190385759 1522.51337382970086765 29.009497869018190385759 234.90608014037923112
30.009497869018190385759 1528.64605780815531944 30.009497869018190385759 234.92091450898732319
31.009497869018190385759 1534.52777746342553655 31.009497869018190385759 234.83499098426383966
32.009497869018190385759 1540.19156991103295695 32.009497869018190385759 234.72813950557599583
33.009497869018190385759 1545.65317910962608039 33.009497869018190385759 234.63356008967119237
34.009497869018190385759 1550.91302496219373097 34.009497869018190385759 234.44869598655333220
35.009497869018190385759 1555.97525201573307641 35.009497869018190385759 234.40438538083071762
36.009497869018190385759 1560.85307320642050399 36.009497869018190385759 234.39789885799268632
37.009497869018190385759 1565.55399738391747633 37.009497869018190385759 234.31027171234364914
38.009497869018190385759 1570.08347337594386772 38.009497869018190385759 234.10273585534747554
39.009497869018190385759 1574.46006529924966344 39.009497869018190385759 233.77604926502053218
40.009497869018190385759 1578.69867419711295042 40.009497869018190385759 233.32140538681954922
41.009497869018190385759 1582.81136529815807990 41.009497869018190385759 233.06013532385239273
42.009497869018190385759 1586.79462268922361545 42.009497869018190385759 232.56791208786671632
43.009497869018190385759 1590.65124843292619516 43.009497869018190385759 232.23911104818992612
44.009497869018218807469 1594.38211985089787959 44.009497869018218807469 231.94641015512442550
46.009497869018190385759 1601.49844434613578414 46.009497869018190385759 231.15173379919801278
48.009497869018190385759 1608.15512775447291460 48.009497869018190385759 230.33958937868541739
50.009497869018190385759 1614.42742386824352252 50.009497869018190385759 229.62333393804073012
52.009497869018190385759 1620.37775137719540908 52.009497869018190385759 229.11809006321053062
54.009497869018190385759 1626.01612295394261309 54.009497869018190385759 228.63908033655724239
56.009497869018190385759 1631.35484421102250963 56.009497869018190385759 228.42979612129269640
58.009497869018218807469 1636.43122563972474381 58.009497869018218807469 228.24007106796028665
60.009497869018190385759 1641.30479160302661512 60.009497869018190385759 227.97198572203416234
62.009497869018190385759 1645.95970571309317165 62.009497869018190385759 227.66559457078156470
64.009497869018190385759 1650.41143115854538337 64.009497869018190385759 227.41612418874530022
66.009497869018190385759 1654.67032531238260162 66.009497869018190385759 227.14112666091688197
68.009497869018190385759 1658.74236123330501869 68.009497869018190385759 226.57461564584150437
70.009497869018190385759 1662.62744390334819400 70.009497869018190385759 226.13396596979183073
72.009497869018218807469 1666.34853963466662208 72.009497869018218807469 224.95639449453133807
74.009497869018190385759 1669.92355896346089139 74.009497869018190385759 223.91979369620977991
76.009497869018190385759 1673.36578520816897253 76.009497869018190385759 223.05489248261972079
78.009497869018190385759 1676.66967581433664236 78.009497869018190385759 221.91991267084912920
80.009497869018190385759 1679.83520849496994742 80.009497869018190385759 221.17210034052973811
82.009497869018218807469 1682.86548509047406696 82.009497869018218807469 220.48304345609273014
84.009497869018190385759 1685.77077794614706363 84.009497869018190385759 219.51587328222674955
86.009497869018190385759 1688.52731489812049404 86.009497869018190385759 218.45508729467837838
88.009497869018190385759 1691.16411451961334933 88.009497869018190385759 217.77321981860541200
91.009497869018218807469 1694.94387215943334013 91.009497869018218807469 217.17593773068173846
94.009497869018190385759 1698.56490130856127507 94.009497869018190385759 216.78914124546051312
97.009497869018190385759 1702.03954346689874910 97.009497869018190385759 216.77436362641716983
99.504748934509109403734 1704.81647372099860149 99.504748934509109403734 211.66074090826043630
nan nan nan nan

