Time Pressure difference Time.1 Pressure.1 difference.1
(hr) (psi) (hr) (psi)
0.000200000000006639311 0.67615613239742201 0.000200000000006639311 0.53997328381258836
0.000399999999999067768 1.34992726689493470 0.000399999999999067768 1.40412487461915569
0.000600000000005707079 2.02172793848949972 0.000600000000005707079 2.05007270965787258
0.000799999999998135536 2.69174982638636617 0.000799999999998135536 2.70515936050729611
0.001007140329434719206 3.38394490218130883 0.001007140329434719206 3.39022261673724978
0.001267914553963578328 4.25298876310885543 0.001267914553963578328 4.25516172610770305
0.001596209851982166583 5.34349357902995159 0.001596209851982166583 5.33768511167338655
0.002009509145210586212 6.71104299087750888 0.002009509145210586212 6.69101099856150139
0.002529822128138903281 8.42475393987236743 0.002529822128138903281 8.38061892558414279
0.003184857364445292660 10.57035960666378038 0.003184857364445292660 10.48670507460274059
0.004009497869020606231 13.25390096920127725 0.004009497869020606231 13.10693348199047747
0.005047658755842121536 16.60607519032882706 0.005047658755842121536 16.35941245231049379
0.006354625877804664924 20.78729551011950250 0.006354625877804664924 20.38575273718745251
0.008000000000009777068 25.99344438180092709 0.008000000000009777068 25.35394057109902022
0.010071403294347192059 32.46225099738299491 0.010071403294347192059 31.46061380347036973
0.012679145539692626699 40.48008443657163724 0.012679145539692626699 38.93201462425434300
0.015962098519750611558 50.38875778476139544 0.015962098519750611558 48.02269443680931715
0.020095091452091651263 62.59170705163106163 0.020095091452091651263 59.01067639091305495
0.025298221281346400247 77.55854191303032508 0.025298221281346400247 72.18721875045731906
0.031848573644282396344 95.82647435110536094 0.031848573644282396344 87.83892484209732743
0.040094978690191851456 117.99658118859021272 0.040094978690191851456 106.21950437241525833
0.050476587558421215363 144.72216290871011779 0.050476587558421215363 127.51070878638597605
0.063546258777947173257 176.68693351858073015 0.063546258777947173257 151.76707166899620916
0.079999999999998294697 214.56783499343737276 0.079999999999998294697 178.84899451733897990
0.100714032943542974863 258.98231033395921941 0.100714032943542974863 208.35292677248887117
0.126791455396897845276 310.41887640729174791 0.126791455396897845276 239.53580496870219463
0.159620985197506115583 369.14956437289151836 0.159620985197506115583 271.28232611536913055
0.200950914520774404082 435.14546584923385808 0.200950914520774404082 302.11346778539206070
0.252982212813464002465 507.99328876699297552 0.252982212813464002465 330.29489096454545916
0.318485736442795541734 586.86113932697742257 0.318485736442795541734 354.04164374194289167
0.400949786901819038576 670.50977747208617075 0.400949786901819038576 371.81050630856253747
0.504765875584169521062 757.39337478435493267 0.504765875584169521062 382.63151255944848117
0.635462587779443310865 845.82349212851659104 0.635462587779443310865 386.34483455871162505
0.799999999999997157829 934.17843782492104765 0.799999999999997157829 383.67466107633009642
1.007140329435330272645 1021.10012011943490506 1.007140329435330272645 376.08891633935280652
1.267914553968893187630 1105.63705820055474760 1.267914553968893187630 365.47369281741083569
1.596209851975103788391 1187.28939362112078015 1.596209851975103788391 353.72511756216863432
2.009509145207687197399 1265.96233600841082989 2.009509145207687197399 342.43465404905253990
2.529822128134711078928 1341.86498145107384516 2.529822128134711078928 332.69346042962655474
3.184857364427983839050 1415.37320254553469567 3.184857364427983839050 325.05329896174316673
4.009497869018190385759 1486.91039701269482975 4.009497869018190385759 319.61157485337179196
5.009497869018190385759 1554.57146865068921215 5.009497869018190385759 316.20943225941402943
6.009497869018190385759 1608.94509692984911453 6.009497869018190385759 314.57591774273697638
7.009497869018204596614 1654.34203195869395131 7.009497869018204596614 313.82828431633129185
8.009497869018190385759 1693.24810642134616501 8.009497869018190385759 313.64005501204616166
9.009497869018204596614 1727.26104169366931274 9.009497869018204596614 313.69792167848743247
10.009497869018190385759 1757.39997619112955363 10.009497869018190385759 313.77659971461707755
11.009497869018190385759 1784.45619080875735563 11.009497869018190385759 313.79986167835755850
12.009497869018190385759 1808.92711479292211152 12.009497869018190385759 314.04160756255186016
13.009497869018190385759 1831.23954387526214305 13.009497869018190385759 314.14974287933432606
14.009497869018204596614 1851.75837375611513380 14.009497869018204596614 314.20257623913880707
15.009497869018190385759 1870.68517464261390160 15.009497869018190385759 314.40106308568249460
16.009497869018190385759 1888.22864310471368299 16.009497869018190385759 314.40226948045665267
17.009497869018190385759 1904.59229980436975893 17.009497869018190385759 314.17067437063900570
18.009497869018190385759 1919.87869034069376539 18.009497869018190385759 314.25331165322734250
19.009497869018204596614 1934.18304552429549403 19.009497869018204596614 314.24154293767253421
20.009497869018190385759 1947.63182593983401603 20.009497869018190385759 314.24662007738311331
21.009497869018204596614 1960.36139921979611245 21.009497869018204596614 314.07054543628845522
22.009497869018190385759 1972.40431502027809074 22.009497869018190385759 313.98951124430652726
23.009497869018190385759 1983.80814341569907810 23.009497869018190385759 314.43277946086300290
24.009497869018190385759 1994.60733515587548936 24.009497869018190385759 314.48748761130337925
25.009497869018190385759 2004.87930412372429601 25.009497869018190385759 314.47909531916764081
26.009497869018204596614 2014.71573626501049148 26.009497869018204596614 314.63536396014745833
27.009497869018190385759 2024.12702481680798883 27.009497869018190385759 314.53953133819715049
28.009497869018190385759 2033.12040323131873265 28.009497869018190385759 314.65135851140792056
29.009497869018190385759 2041.72304167607330783 29.009497869018190385759 315.01408440571447045
30.009497869018190385759 2049.94710223367155777 30.009497869018190385759 315.03397761172271885
31.009497869018190385759 2057.83461425902578412 31.009497869018190385759 314.91875232486120240
32.009497869018190385759 2065.42988123159921088 32.009497869018190385759 314.77546220352365935
33.009497869018190385759 2072.75401613712620019 33.009497869018190385759 314.64862918120650193
34.009497869018190385759 2079.80758207450662667 34.009497869018190385759 314.40072245972726250
35.009497869018190385759 2086.59613697002760091 35.009497869018190385759 314.34130098846162582
36.009497869018190385759 2093.13739965407967247 36.009497869018190385759 314.33260242241522064
37.009497869018190385759 2099.44143965487455716 37.009497869018190385759 314.21509254340651296
38.009497869018190385759 2105.51556396708110697 38.009497869018190385759 313.93678251441986049
39.009497869018190385759 2111.38466746884523673 39.009497869018190385759 313.49868880020875395
40.009497869018190385759 2117.06873277833619795 40.009497869018190385759 312.88900162252235759
41.009497869018190385759 2122.58393962553645906 41.009497869018190385759 312.53863287251380143
42.009497869018190385759 2127.92557309559833811 42.009497869018190385759 311.87855097120842629
43.009497869018190385759 2133.09739081450061349 43.009497869018190385759 311.43762173513442804
44.009497869018218807469 2138.10056928934227471 44.009497869018218807469 311.04510356881598909
46.009497869018190385759 2147.64371284638355064 46.009497869018190385759 309.97942555609091642
48.009497869018190385759 2156.57046786184673692 48.009497869018190385759 308.89032249464565894
50.009497869018190385759 2164.98175128294951719 50.009497869018190385759 307.92980860883886862
52.009497869018190385759 2172.96126790945163521 52.009497869018190385759 307.25226575198252021
54.009497869018190385759 2180.52244494976821443 54.009497869018190385759 306.60990344968303134
56.009497869018190385759 2187.68178449385868589 56.009497869018190385759 306.32924883481427969
58.009497869018218807469 2194.48932070961473073 58.009497869018218807469 306.07482347499120579
60.009497869018190385759 2201.02487704260875034 60.009497869018190385759 305.71531528457296645
62.009497869018190385759 2207.26721655759092755 62.009497869018190385759 305.30443818882406504
64.009497869018190385759 2213.23707572167404578 64.009497869018190385759 304.96989306365514949
66.009497869018190385759 2218.94834399387036683 66.009497869018190385759 304.60111548926909109
68.009497869018190385759 2224.40903137382247223 68.009497869018190385759 303.84141208519764632
70.009497869018190385759 2229.61901044040450870 70.009497869018190385759 303.25049143230734217
72.009497869018218807469 2234.60907951007993688 72.009497869018218807469 301.67134286416558098
74.009497869018190385759 2239.40325699548156990 74.009497869018190385759 300.28123899294024568
76.009497869018190385759 2244.01935611111957769 76.009497869018190385759 299.12138794209630532
78.009497869018190385759 2248.44994417276757304 78.009497869018190385759 297.59935570687179052
80.009497869018190385759 2252.69499129308996999 80.009497869018190385759 296.59652335616340224
82.009497869018218807469 2256.75865710650077745 82.009497869018218807469 295.67248331673721395
84.009497869018190385759 2260.65471704804531328 84.009497869018190385759 294.37548739988886837
86.009497869018190385759 2264.35129213685331706 86.009497869018190385759 292.95295067194103922
88.009497869018190385759 2267.88729690109630610 88.009497869018190385759 292.03855178310510610
91.009497869018218807469 2272.95603284642311337 91.009497869018218807469 291.23758371132606726
94.009497869018190385759 2277.81191048627488271 94.009497869018190385759 290.71888134069996568
97.009497869018190385759 2282.47148003633537883 97.009497869018190385759 290.69906423707340082
99.504748934509109403734 2286.19540298005404111 99.504748934509109403734 283.84158665456993731
nan nan nan nan

