Time Pressure difference Time.1 Pressure.1 difference.1
(hr) (psi) (hr) (psi)
0.000200000000006639311 0.65705098369331782 0.000200000000006639311 0.52471605343459127
0.000399999999999067768 1.31178435886227684 0.000399999999999067768 1.36445058455006429
0.000600000000005707079 1.96460294759851828 0.000600000000005707079 1.99214682228424667
0.000799999999998135536 2.61569301311009283 0.000799999999998135536 2.62872365376077521
0.001007140329434719206 3.28832975138257400 0.001007140329434719206 3.29443008579749952
0.001267914553963578328 4.13281831894238927 0.001267914553963578328 4.13492988372382442
0.001596209851982166583 5.19251034522443611 0.001596209851982166583 5.18686599918138747
0.002009509145210586212 6.52141892602470374 0.002009509145210586212 6.50195294823359671
0.002529822128138903281 8.18670806687842934 0.002529822128138903281 8.14382011073348444
0.003184857364445292660 10.27168851212659817 0.003184857364445292660 10.19039768305991167
0.004009497869020606231 12.87940499587003629 0.004009497869020606231 12.73659015264676597
0.005047658755842121536 16.13686176357506241 0.005047658755842121536 15.89716861152039051
0.006354625877804664924 20.19993949447730586 0.006354625877804664924 19.80974252471163766
0.008000000000009777068 25.25898587961244601 0.008000000000009777068 24.63755158690334923
0.010071403294347192059 31.54501294708839509 0.010071403294347192059 30.57167754121015335
0.012679145539692626699 39.33629826698791732 0.012679145539692626699 37.83196998499408181
0.015962098519750611558 48.96499681541309457 0.015962098519750611558 46.66578783724345669
0.020095091452091651263 60.82314530447194301 0.020095091452091651263 57.34329855677177790
0.025298221281346400247 75.36708434054912686 0.025298221281346400247 70.14753075136577820
0.031848573644282396344 93.11884669745003862 0.031848573644282396344 85.35698961928622452
0.040094978690191851456 114.66252545476025659 0.040094978690191851456 103.21821616533227939
0.050476587558421215363 140.63296174544188943 0.050476587558421215363 123.90782635138982926
0.063546258777947173257 171.69455087616384503 0.063546258777947173257 147.47881288719409554
0.079999999999998294697 208.50510746905277415 0.079999999999998294697 173.79552169928152239
0.100714032943542974863 251.66462834663607850 0.100714032943542974863 202.46580476294681716
0.126791455396897845276 301.64782707391617578 0.126791455396897845276 232.76759426319833324
0.159620985197506115583 358.71904842623735021 0.159620985197506115583 263.61710068459092327
0.200950914520774404082 422.85020084366584570 0.200950914520774404082 293.57709216000631613
0.252982212813464002465 493.63967004261849070 0.252982212813464002465 320.96223434024011567
0.318485736442795541734 570.27906782265256425 0.318485736442795541734 344.03801007355878028
0.400949786901819038576 651.56416950911557251 0.400949786901819038576 361.30480404185868792
0.504765875584169521062 735.99282488258563717 0.504765875584169521062 371.82005704486948616
0.635462587779443310865 821.92430254748967400 0.635462587779443310865 375.42845716946055745
0.799999999999997157829 907.78273257925366124 0.799999999999997157829 372.83373084935766428
1.007140329435330272645 992.24839682367678506 1.007140329435330272645 365.46232533713521207
1.267914553968893187630 1074.39669906220979101 1.267914553968893187630 355.14704056335625637
1.596209851975103788391 1153.74190461217017400 1.596209851975103788391 343.73042750820070523
2.009509145207687197399 1230.19190145289076099 2.009509145207687197399 332.75898200589750786
2.529822128134711078928 1303.94987755257898243 2.529822128134711078928 323.29303095802771395
3.184857364427983839050 1375.38108502889190277 3.184857364427983839050 315.86874628837693990
4.009497869018190385759 1444.89695827646391990 4.009497869018190385759 310.58078096930847778
5.009497869018190385759 1510.64623059299151464 5.009497869018190385759 307.27476771154363178
6.009497869018190385759 1563.48350328195419934 6.009497869018190385759 305.68740901044833436
7.009497869018204596614 1607.59772393037724214 7.009497869018204596614 304.96090036144727264
8.009497869018190385759 1645.40448670673799825 8.009497869018190385759 304.77798957558786697
9.009497869018204596614 1678.45636852542043016 9.009497869018204596614 304.83422118880048401
10.009497869018190385759 1707.74371150759634475 10.009497869018190385759 304.91067613545715176
11.009497869018190385759 1734.03543848860817889 11.009497869018190385759 304.93328082012391178
12.009497869018190385759 1757.81492358869945747 12.009497869018190385759 305.16819604665670340
13.009497869018190385759 1779.49690320065406013 13.009497869018190385759 305.27327594294035862
14.009497869018204596614 1799.43596270403827475 14.009497869018204596614 305.32461646825407797
15.009497869018190385759 1817.82797683330181826 15.009497869018190385759 305.51749496409684070
16.009497869018190385759 1834.87574532657049531 16.009497869018190385759 305.51866727154941827
17.009497869018190385759 1850.77703826198580828 17.009497869018190385759 305.29361600390103604
18.009497869018190385759 1865.63150375858572261 18.009497869018190385759 305.37391832641623068
19.009497869018204596614 1879.53168183012007830 19.009497869018204596614 305.36248214213628671
20.009497869018190385759 1892.60045985062492946 20.009497869018190385759 305.36741582458233779
21.009497869018204596614 1904.97035231309428127 21.009497869018204596614 305.19631626548425629
22.009497869018190385759 1916.67298916589652436 22.009497869018190385759 305.11757173740352300
23.009497869018190385759 1927.75459636586970191 23.009497869018190385759 305.54831517634227112
24.009497869018190385759 1938.24865123869471972 24.009497869018190385759 305.60147751909210001
25.009497869018190385759 1948.23038029713279684 25.009497869018190385759 305.59332235560390245
26.009497869018204596614 1957.78887885211702269 26.009497869018204596614 305.74517554358305915
27.009497869018190385759 1966.93424647431811536 27.009497869018190385759 305.65205072299011135
28.009497869018190385759 1975.67351223092509827 28.009497869018190385759 305.76071816034846051
29.009497869018190385759 1984.03307858203220349 29.009497869018190385759 306.11319504289946281
30.009497869018190385759 1992.02476396416955140 30.009497869018190385759 306.13252615586321781
31.009497869018190385759 1999.68941017062547871 31.009497869018190385759 306.02055662035041905
32.009497869018190385759 2007.07006886264753120 32.009497869018190385759 305.88131523708506165
33.009497869018190385759 2014.18725646740404045 33.009497869018190385759 305.75806594881368028
34.009497869018190385759 2021.04152017313890610 34.009497869018190385759 305.51716396270791165
35.009497869018190385759 2027.63826086399467385 35.009497869018190385759 305.45942147650265497
36.009497869018190385759 2033.99469671545080018 36.009497869018190385759 305.45096869303495168
37.009497869018190385759 2040.12061273587937649 37.009497869018190385759 305.33677911773287406
38.009497869018190385759 2046.02310945695489863 38.009497869018190385759 305.06633288563403994
39.009497869018190385759 2051.72637833889029935 39.009497869018190385759 304.64061774074338018
40.009497869018190385759 2057.24983738042237746 40.009497869018190385759 304.04815759633322614
41.009497869018190385759 2062.60920914471671495 41.009497869018190385759 303.70768870044031473
42.009497869018190385759 2067.79991193933437899 42.009497869018190385759 303.06625776194823629
43.009497869018190385759 2072.82559721654752138 43.009497869018190385759 302.63778721436278829
44.009497869018218807469 2077.68740824062615502 44.009497869018218807469 302.25635985618350787
46.009497869018190385759 2086.96090523524480886 46.009497869018190385759 301.22079313865839367
48.009497869018190385759 2095.63543007213866076 48.009497869018190385759 300.16246325953898122
50.009497869018190385759 2103.80904823687114913 50.009497869018190385759 299.22908920097233931
52.009497869018190385759 2111.56309940586743323 52.009497869018190385759 298.57069067545228336
54.009497869018190385759 2118.91063139467632936 54.009497869018190385759 297.94647865933569619
56.009497869018190385759 2125.86768001798827754 56.009497869018190385759 297.67375408886738342
58.009497869018218807469 2132.48286570184927768 58.009497869018218807469 297.42651765198775138
60.009497869018190385759 2138.83375643821091217 60.009497869018190385759 297.07716755540201348
62.009497869018190385759 2144.89971535264703562 62.009497869018190385759 296.67790000904159342
64.009497869018190385759 2150.70089299243727510 64.009497869018190385759 296.35280763310959173
66.009497869018190385759 2156.25078636259422638 66.009497869018190385759 295.99445006389663604
68.009497869018190385759 2161.55717913598709856 68.009497869018190385759 295.25621248082478587
70.009497869018190385759 2166.61994749184259490 70.009497869018190385759 294.68198860313890464
72.009497869018218807469 2171.46901952392317980 72.009497869018218807469 293.14745971198397001
74.009497869018190385759 2176.12773499192371673 74.009497869018190385759 291.79663395997022235
76.009497869018190385759 2180.61340378856948519 76.009497869018190385759 290.66955511326557371
78.009497869018190385759 2184.91880324405292413 78.009497869018190385759 289.19052870286930101
80.009497869018190385759 2189.04390431552064911 80.009497869018190385759 288.21603190998189348
82.009497869018218807469 2192.99274910472013289 82.009497869018218807469 287.31810110999890640
84.009497869018190385759 2196.77872381450151806 84.009497869018190385759 286.05775249792645809
86.009497869018190385759 2200.37085022143901369 86.009497869018190385759 284.67541029668961983
88.009497869018190385759 2203.80694330315327534 88.009497869018190385759 283.78684823149404792
91.009497869018218807469 2208.73245943675738090 91.009497869018218807469 283.00851193569894804
94.009497869018190385759 2213.45113168875104748 94.009497869018190385759 282.50446577456222030
97.009497869018190385759 2217.97904263973168781 97.009497869018190385759 282.48520861366722556
99.504748934509109403734 2221.59774417349217401 99.504748934509109403734 275.82149268275782106
nan nan nan nan

