Time Pressure difference Time.1 Pressure.1 difference.1
(hr) (psi) (hr) (psi)
0.000200000000006639311 0.53577482235422247 0.000200000000006639311 0.42786580842643668
0.000399999999999067768 1.06965981222018769 0.000399999999999067768 1.11260509106800431
0.000600000000005707079 1.60198344020359595 0.000600000000005707079 1.62444336330384220
0.000799999999998135536 2.13289758970418442 0.000799999999998135536 2.14352308050025275
0.001007140329434719206 2.68138140283408344 0.001007140329434719206 2.68635575896256285
0.001267914553963578328 3.36999723858134148 0.001267914553963578328 3.37171905815659523
0.001596209851982166583 4.23409503498073558 0.001596209851982166583 4.22949250249303965
0.002009509145210586212 5.31771834043733804 0.002009509145210586212 5.30184532441298373
0.002529822128138903281 6.67563426439517915 0.002529822128138903281 6.64066241646409239
0.003184857364445292660 8.37577634680360994 0.003184857364445292660 8.30948989326629750
0.004009497869020606231 10.50216968689781893 0.004009497869020606231 10.38571510550842447
0.005047658755842121536 13.15837653287726461 0.005047658755842121536 12.96292510041801727
0.006354625877804664924 16.47150565605292272 0.006354625877804664924 16.15332987160430633
0.008000000000009777068 20.59677103963340983 0.008000000000009777068 20.09003890461777786
0.010071403294347192059 25.72254532347916012 0.010071403294347192059 24.92886474599310276
0.012679145539692626699 32.07574258180430604 0.012679145539692626699 30.84907792708113661
0.015962098519750611558 39.92720979259348724 0.015962098519750611558 38.05238072695578211
0.020095091452091651263 49.59662290946195640 0.020095091452091651263 46.75907404439670501
0.025298221281346400247 61.45609279349454113 0.025298221281346400247 57.19994606148031124
0.031848573644282396344 75.93129724381196866 0.031848573644282396344 69.60209646578965703
0.040094978690191851456 93.49851949218756886 0.040094978690191851456 84.16656058993592637
0.050476587558421215363 114.67542392643491667 0.050476587558421215363 101.03735524228373777
0.063546258777947173257 140.00377410256089661 0.063546258777947173257 120.25769192445031308
0.079999999999998294697 170.01996753165491327 0.079999999999998294697 141.71695511509048515
0.100714032943542974863 205.21325573145415433 0.100714032943542974863 165.09537809367978412
0.126791455396897845276 245.97073130553212650 0.126791455396897845276 189.80416978478245937
0.159620985197506115583 292.50794719964994783 0.159620985197506115583 214.95958273269422989
0.200950914520774404082 344.80199689527745477 0.200950914520774404082 239.38966427712270502
0.252982212813464002465 402.52539466180644467 0.252982212813464002465 261.72015315986709538
0.318485736442795541734 465.01896175172049652 0.318485736442795541734 280.53668330903337846
0.400949786901819038576 531.30074504852029804 0.400949786901819038576 294.61643313147772005
0.504765875584169521062 600.14585594092000065 0.504765875584169521062 303.19081769145486760
0.635462587779443310865 670.21640346792776199 0.635462587779443310865 306.13319200291033439
0.799999999999997157829 740.22738623719180850 0.799999999999997157829 304.01739114770629158
1.007140329435330272645 809.10267503321313143 1.007140329435330272645 298.00657375784095393
1.267914553968893187630 876.08833235793349559 1.267914553968893187630 289.59524799414003837
1.596209851975103788391 940.78827872926649434 1.596209851975103788391 280.28587325257831253
2.009509145207687197399 1003.12740383958850998 2.009509145207687197399 271.33949860152193878
2.529822128134711078928 1063.27139193604739376 2.529822128134711078928 263.62073952961810619
3.184857364427983839050 1121.51807818411521112 3.184857364427983839050 257.56680323135668687
4.009497869018190385759 1178.20295586386737341 4.009497869018190385759 253.25487196612385787
5.009497869018190385759 1231.81645857456328486 5.009497869018190385759 250.55907101636617540
6.009497869018190385759 1274.90121316922932238 6.009497869018190385759 249.26470140548568111
7.009497869018204596614 1310.87298601149586830 7.009497869018204596614 248.67228916957458296
8.009497869018190385759 1341.70150938792153283 8.009497869018190385759 248.52313941372207751
9.009497869018204596614 1368.65279102262479682 9.009497869018204596614 248.56899199339608231
10.009497869018190385759 1392.53437916864686485 10.009497869018190385759 248.63133515470269685
11.009497869018190385759 1413.97327158679172499 11.009497869018190385759 248.64976754611873844
12.009497869018190385759 1433.36362290102533734 12.009497869018190385759 248.84132294575672972
13.009497869018190385759 1451.04361891835878851 13.009497869018190385759 248.92700756409172413
14.009497869018204596614 1467.30239689520180946 14.009497869018204596614 248.96887183568125579
15.009497869018190385759 1482.29967769592872173 15.009497869018190385759 249.12614949664032338
16.009497869018190385759 1496.20082899574958901 16.009497869018190385759 249.12710542370336952
17.009497869018190385759 1509.16711716685313149 17.009497869018190385759 248.94359332808616614
18.009497869018190385759 1521.27979762868221769 18.009497869018190385759 249.00907373013717461
19.009497869018204596614 1532.61432968448480096 19.009497869018204596614 248.99974839655865821
20.009497869018190385759 1543.27091858868902818 20.009497869018190385759 249.00377143723846984
21.009497869018204596614 1553.35761977490005847 21.009497869018204596614 248.86425283342265402
22.009497869018190385759 1562.90022504678040605 22.009497869018190385759 248.80004269358443025
23.009497869018190385759 1571.93642813651831602 23.009497869018190385759 249.15128102242829300
24.009497869018190385759 1580.49352724267782833 24.009497869018190385759 249.19463084679446752
25.009497869018190385759 1588.63286383268086865 25.009497869018190385759 249.18798093472125288
26.009497869018204596614 1596.42708831809795811 26.009497869018204596614 249.31180559495712146
27.009497869018190385759 1603.88443612634046076 27.009497869018190385759 249.23586942645843578
28.009497869018190385759 1611.01063892407933054 28.009497869018190385759 249.32447941014510207
29.009497869018190385759 1617.82722589811714897 29.009497869018190385759 249.61189734850842115
30.009497869018190385759 1624.34383407950599576 30.009497869018190385759 249.62766039258124806
31.009497869018190385759 1630.59376682686911408 31.009497869018190385759 249.53635780041210523
32.009497869018190385759 1636.61212947712715504 32.009497869018190385759 249.42281710230065528
33.009497869018190385759 1642.41565160742788976 33.009497869018190385759 249.32231673449408049
34.009497869018190385759 1648.00477940793234666 34.009497869018190385759 249.12587959032438789
35.009497869018190385759 1653.38391688656975020 35.009497869018190385759 249.07879500928473249
36.009497869018190385759 1658.56710414850272173 36.009497869018190385759 249.07190241088187577
37.009497869018190385759 1663.56232011964880257 37.009497869018190385759 248.97878954606534307
38.009497869018190385759 1668.37535474050059747 38.009497869018190385759 248.75826132899362619
39.009497869018190385759 1673.02593429656667467 39.009497869018190385759 248.41112318935458347
40.009497869018190385759 1677.52989268062265182 40.009497869018190385759 247.92801725617562170
41.009497869018190385759 1681.90005044038207416 41.009497869018190385759 247.65039091249556691
42.009497869018190385759 1686.13267155609446490 42.009497869018190385759 247.12735304229659050
43.009497869018190385759 1690.23073350780441615 43.009497869018190385759 246.77796808250820959
44.009497869018218807469 1694.19516854008065820 44.009497869018218807469 246.46694324556054312
46.009497869018190385759 1701.75699605149520721 46.009497869018190385759 245.62251779321701406
48.009497869018190385759 1708.83040758094716693 48.009497869018190385759 244.75953072364430341
50.009497869018190385759 1715.49536803132968998 50.009497869018190385759 243.99843556842878911
52.009497869018190385759 1721.81820368746457461 52.009497869018190385759 243.46156192878217439
54.009497869018190385759 1727.80955404496376104 54.009497869018190385759 242.95256477278323359
56.009497869018190385759 1733.48249508420008169 56.009497869018190385759 242.73017874503091207
58.009497869018218807469 1738.87667304385900024 58.009497869018218807469 242.52857634074854332
60.009497869018190385759 1744.05533868855377477 60.009497869018190385759 242.24370805718621114
62.009497869018190385759 1749.00166422560960200 62.009497869018190385759 241.91813591129178462
64.009497869018190385759 1753.73208088511000824 64.009497869018190385759 241.65304794355969875
66.009497869018190385759 1758.25759444231744055 66.009497869018190385759 241.36083475501050088
68.009497869018190385759 1762.58455188711968731 68.009497869018190385759 240.75885847045759647
70.009497869018190385759 1766.71285225314613854 70.009497869018190385759 240.29062281798309186
72.009497869018218807469 1770.66689961179577040 72.009497869018218807469 239.03933187639657376
74.009497869018190385759 1774.46572575194772980 74.009497869018190385759 237.93783679416029031
76.009497869018190385759 1778.12344556716493571 76.009497869018190385759 237.01879019981831220
78.009497869018190385759 1781.63416952264765314 78.009497869018190385759 235.81275728615764820
80.009497869018190385759 1784.99787393617066300 80.009497869018190385759 235.01812968639487167
82.009497869018218807469 1788.21785483254643623 82.009497869018218807469 234.28593579766030075
84.009497869018190385759 1791.30502763635058727 84.009497869018190385759 233.25821790286039459
86.009497869018190385759 1794.23413197576246603 86.009497869018190385759 232.13102356683288008
88.009497869018190385759 1797.03600307273563885 88.009497869018190385759 231.40646916474543104
91.009497869018218807469 1801.05238474931547898 91.009497869018218807469 230.77179544693530033
94.009497869018190385759 1804.90010106099180121 94.009497869018190385759 230.36078435473152126
97.009497869018190385759 1808.59226612215775276 97.009497869018190385759 230.34508161291446982
99.504748934509109403734 1811.54304044488299041 99.504748934509109403734 224.91133094864574105
nan nan nan nan

