Time Pressure difference Time.1 Pressure.1 difference.1
(hr) (psi) (hr) (psi)
0.000200000000006639311 0.58395302343413713 0.000200000000006639311 0.46634056329268991
0.000399999999999067768 1.16584627595471635 0.000399999999999067768 1.21265330080745271
0.000600000000005707079 1.74603776505911323 0.000600000000005707079 1.77051734015907170
0.000799999999998135536 2.32469303187913434 0.000799999999998135536 2.33627399316539197
0.001007140329434719206 2.92249787006567585 0.001007140329434719206 2.92791953263671534
0.001267914553963578328 3.67303574995764803 0.001267914553963578328 3.67491239982028883
0.001596209851982166583 4.61483536370768554 0.001596209851982166583 4.60981896008156156
0.002009509145210586212 5.79590076484875727 0.002009509145210586212 5.77860040784856999
0.002529822128138903281 7.27592385716249890 0.002529822128138903281 7.23780725391357649
0.003184857364445292660 9.12894693302781057 0.003184857364445292660 9.05669983715691096
0.004009497869020606231 11.44655083703746712 0.004009497869020606231 11.31962437080995798
0.005047658755842121536 14.34161039164762386 0.005047658755842121536 14.12858348154087906
0.006354625877804664924 17.95266430419411563 0.006354625877804664924 17.60587736393461711
0.008000000000009777068 22.44888378428261788 0.008000000000009777068 21.89658503867642736
0.010071403294347192059 28.03558040683077479 0.010071403294347192059 27.17053010299713378
0.012679145539692626699 34.96007292249368703 0.012679145539692626699 33.62310353912874916
0.015962098519750611558 43.51756354138483829 0.015962098519750611558 41.47414519542623168
0.020095091452091651263 54.05647427186318765 0.020095091452091651263 50.96376597397036079
0.025298221281346400247 66.98237710670801448 0.025298221281346400247 62.34350710266767948
0.031848573644282396344 82.75922784868188842 0.031848573644282396344 75.86088963635678795
0.040094978690191851456 101.90613829923699996 0.040094978690191851456 91.73502650344954645
0.050476587558421215363 124.98732251206781996 0.050476587558421215363 110.12288486096971951
0.063546258777947173257 152.59326076604699551 0.063546258777947173257 131.07156189595127671
0.079999999999998294697 185.30858476705952853 0.079999999999998294697 154.46049526497458260
0.100714032943542974863 223.66654074296479848 0.100714032943542974863 179.94116403078584199
0.126791455396897845276 268.08902962447922391 0.126791455396897845276 206.87183156387916938
0.159620985197506115583 318.81098741295176069 0.159620985197506115583 234.28928164509150633
0.200950914520774404082 375.80744777888372710 0.200950914520774404082 260.91617672374769654
0.252982212813464002465 438.72147666240300623 0.252982212813464002465 285.25467856028927827
0.318485736442795541734 506.83462032784416351 0.318485736442795541734 305.76323777713247409
0.400949786901819038576 579.07662599861976105 0.400949786901819038576 321.10907363012222504
0.504765875584169521062 654.11246004103372798 0.504765875584169521062 330.45448811952365986
0.635462587779443310865 730.48392502008243810 0.635462587779443310865 333.66144802797822422
0.799999999999997157829 806.79046903061362173 0.799999999999997157829 331.35538911137598461
1.007140329435330272645 881.85919464860285188 1.007140329435330272645 324.80406411125920840
1.267914553968893187630 954.86836844593369733 1.267914553968893187630 315.63637106958202594
1.596209851975103788391 1025.38629449096788449 1.596209851975103788391 305.48987425823656849
2.009509145207687197399 1093.33110837090043788 2.009509145207687197399 295.73901940599989757
2.529822128134711078928 1158.88339307138198819 2.529822128134711078928 287.32617037104114388
3.184857364427983839050 1222.36776583478012981 3.184857364427983839050 280.72784910332364916
4.009497869018190385759 1284.14988832914536943 4.009497869018190385759 276.02817828245747478
5.009497869018190385759 1342.58445019832242906 5.009497869018190385759 273.08996422403942006
6.009497869018190385759 1389.54349280305154934 6.009497869018190385759 271.67920168690920946
7.009497869018204596614 1428.74993669159948695 7.009497869018204596614 271.03351827319522727
8.009497869018190385759 1462.35063736388974576 8.009497869018190385759 270.87095660131257091
9.009497869018204596614 1491.72544509907788779 9.009497869018204596614 270.92093235869367618
10.009497869018190385759 1517.75452489233907727 10.009497869018190385759 270.98888157171472812
11.009497869018190385759 1541.12125569847216866 11.009497869018190385759 271.00897144949061612
12.009497869018190385759 1562.25523550297816655 12.009497869018190385759 271.21775198584032296
13.009497869018190385759 1581.52506061954454708 13.009497869018190385759 271.31114157760691796
14.009497869018204596614 1599.24586824391781192 14.009497869018204596614 271.35677038834717223
15.009497869018190385759 1615.59174173680275999 15.009497869018190385759 271.52819084672580630
16.009497869018190385759 1630.74291904497999894 16.009497869018190385759 271.52923273312160291
17.009497869018190385759 1644.87516801286460577 17.009497869018190385759 271.32921877464275440
18.009497869018190385759 1658.07705074878094820 18.009497869018190385759 271.40058733687817494
19.009497869018204596614 1670.43081204370969317 19.009497869018204596614 271.39042344617172375
20.009497869018190385759 1682.04566785712927413 20.009497869018190385759 271.39480824864904207
21.009497869018204596614 1693.03939023527846075 21.009497869018204596614 271.24274378588546597
22.009497869018190385759 1703.44009024478555148 22.009497869018190385759 271.17275971099201115
23.009497869018190385759 1713.28885113174010257 23.009497869018190385759 271.55558226165436508
24.009497869018190385759 1722.61542581643789163 24.009497869018190385759 271.60283020976203261
25.009497869018190385759 1731.48667174321644779 25.009497869018190385759 271.59558232109930032
26.009497869018204596614 1739.98177222887284188 26.009497869018204596614 271.73054160194550377
27.009497869018190385759 1748.10970325087987476 27.009497869018190385759 271.64777706480663255
28.009497869018190385759 1755.87671188159333724 28.009497869018190385759 271.74435507803411838
29.009497869018190385759 1763.30626326569972662 29.009497869018190385759 272.05761835038981644
30.009497869018190385759 1770.40886101998876256 30.009497869018190385759 272.07479884648785173
31.009497869018190385759 1777.22080322370379690 31.009497869018190385759 271.97528609874376571
32.009497869018190385759 1783.78035197274493839 32.009497869018190385759 271.85153553940682514
33.009497869018190385759 1790.10574120933597442 33.009497869018190385759 271.74199792922382812
34.009497869018190385759 1796.19745724616518601 34.009497869018190385759 271.52789666976445915
35.009497869018190385759 1802.06030011047846529 35.009497869018190385759 271.47657812639869235
36.009497869018190385759 1807.70957242852341551 36.009497869018190385759 271.46906572844949324
37.009497869018190385759 1813.15397061102817133 37.009497869018190385759 271.36757992385105354
38.009497869018190385759 1818.39980524429734032 38.009497869018190385759 271.12722126245353138
39.009497869018190385759 1823.46857645036652684 39.009497869018190385759 270.74886760018029008
40.009497869018190385759 1828.37754194492663373 40.009497869018190385759 270.22231958308753974
41.009497869018190385759 1833.14067513114537178 41.009497869018190385759 269.91972838989823913
42.009497869018190385759 1837.75390403710753162 42.009497869018190385759 269.34965765695272921
43.009497869018190385759 1842.22047388525038514 43.009497869018190385759 268.96885513488876995
44.009497869018218807469 1846.54140074988640663 44.009497869018218807469 268.62986217306831804
46.009497869018190385759 1854.78320654914909937 46.009497869018190385759 267.70950388935125375
48.009497869018190385759 1862.49267678977662399 48.009497869018190385759 266.76891488173947664
50.009497869018190385759 1869.75696701709262015 50.009497869018190385759 265.93938016217896347
52.009497869018190385759 1876.64836773998081298 52.009497869018190385759 265.35422951307577932
54.009497869018190385759 1883.17847518389066863 54.009497869018190385759 264.79946207018082305
56.009497869018190385759 1889.36154115378712959 56.009497869018190385759 264.55707853915777150
58.009497869018218807469 1895.24077697648522189 58.009497869018218807469 264.33734754658331667
60.009497869018190385759 1900.88512108225313568 60.009497869018190385759 264.02686320031301648
62.009497869018190385759 1906.27623248155600777 62.009497869018190385759 263.67201479943895492
64.009497869018190385759 1911.43201994144533273 64.009497869018190385759 263.38308946406584710
66.009497869018190385759 1916.36447890379713499 66.009497869018190385759 263.06459974073237618
68.009497869018190385759 1921.08052709557387061 68.009497869018190385759 262.40849225539801637
70.009497869018190385759 1925.58005447125856335 70.009497869018190385759 261.89815169153814622
72.009497869018218807469 1929.88965957688742492 72.009497869018218807469 260.53434156450663295
74.009497869018190385759 1934.03008558700662434 74.009497869018190385759 259.33379731208481189
76.009497869018190385759 1938.01671664142168083 76.009497869018190385759 258.33210776817406895
78.009497869018190385759 1941.84313360375381308 78.009497869018190385759 257.01762538320747353
80.009497869018190385759 1945.50931066221392030 80.009497869018190385759 256.15154289850477198
82.009497869018218807469 1949.01884022834155985 82.009497869018218807469 255.35350831900032631
84.009497869018190385759 1952.38361926876677899 84.009497869018190385759 254.23337548172222000
86.009497869018190385759 1955.57611593637329861 86.009497869018190385759 253.00482103485813923
88.009497869018190385759 1958.62993823276451621 88.009497869018190385759 252.21511290359075019
91.009497869018218807469 1963.00748291282002356 91.009497869018218807469 251.52336775069070995
94.009497869018190385759 1967.20119541996473345 94.009497869018190385759 251.07539752151356538
97.009497869018190385759 1971.22536912228974870 97.009497869018190385759 251.05828275019976559
99.504748934509109403734 1974.44148439186483301 99.504748934509109403734 245.13591574712864940
nan nan nan nan

