Time Pressure difference Time.1 Pressure.1 difference.1
(hr) (psi) (hr) (psi)
0.000200000000006639311 0.22593914989201322 0.000200000000006639311 0.18043333316587717
0.000399999999999067768 0.45108134716882337 0.000399999999999067768 0.46919160429534440
0.000600000000005707079 0.67556510966725292 0.000600000000005707079 0.68503658111417853
0.000799999999998135536 0.89945448744114442 0.000799999999998135536 0.90393531456754861
0.001007140329434719206 1.13075308770677641 0.001007140329434719206 1.13285080067878607
0.001267914553963578328 1.42114612231647253 0.001267914553963578328 1.42187222297456417
0.001596209851982166583 1.78554085196086820 0.001596209851982166583 1.78359993903582437
0.002009509145210586212 2.24251067999838138 0.002009509145210586212 2.23581694300826594
0.002529822128138903281 2.81515119366742450 0.002529822128138903281 2.80040337562516761
0.003184857364445292660 3.53211033539625108 0.003184857364445292660 3.50415697824563299
0.004009497869020606231 4.42882194548249064 0.004009497869020606231 4.37971241658649824
0.005047658755842121536 5.54895878595754422 0.005047658755842121536 5.46653585630031191
0.006354625877804664924 6.94612331542076777 0.006354625877804664924 6.81194686058352161
0.008000000000009777068 8.68577011283765721 0.008000000000009777068 8.47207842179230219
0.010071403294347192059 10.84733694261446679 0.010071403294347192059 10.51263753629476660
0.012679145539692626699 13.52651470116398613 0.012679145539692626699 13.00922355994739554
0.015962098519750611558 16.83752102881462065 0.015962098519750611558 16.04689543834414422
0.020095091452091651263 20.91516500988163330 0.020095091452091651263 19.71855525593163705
0.025298221281346400247 25.91636781369072295 0.025298221281346400247 24.12152764143045403
0.031848573644282396344 32.02064007801063639 0.031848573644282396344 29.35158176541827402
0.040094978690191851456 39.42883302616282037 0.040094978690191851456 35.49349531854662843
0.050476587558421215363 48.35924853951984659 0.050476587558421215363 42.60800097038941914
0.063546258777947173257 59.04035124945203705 0.063546258777947173257 50.71332124565967092
0.079999999999998294697 71.69834289706997765 0.079999999999998294697 59.76280897876683440
0.100714032943542974863 86.53954350225663461 0.100714032943542974863 69.62161680849752088
0.126791455396897845276 103.72719211644145787 0.126791455396897845276 80.04144834335012604
0.159620985197506115583 123.35218858651903417 0.159620985197506115583 90.64962248572531678
0.200950914520774404082 145.40487310932630294 0.200950914520774404082 100.95192043934477510
0.252982212813464002465 169.74714317521139151 0.252982212813464002465 110.36880877439357107
0.318485736442795541734 196.10101952940772208 0.318485736442795541734 118.30384164349933940
0.400949786901819038576 224.05240721425974471 0.400949786901819038576 124.24134854536734451
0.504765875584169521062 253.08476405570581846 0.504765875584169521062 127.85721304197787163
0.635462587779443310865 282.63389417562223116 0.635462587779443310865 129.09802825549087402
0.799999999999997157829 312.15790551397850550 0.799999999999997157829 128.20578355376142099
1.007140329435330272645 341.20298854113792686 1.007140329435330272645 125.67098924361664558
1.267914553968893187630 369.45120372303546219 1.267914553968893187630 122.12388752621099286
1.596209851975103788391 396.73552219280691133 1.596209851975103788391 118.19807368170745576
2.009509145207687197399 423.02426952615206801 2.009509145207687197399 114.42533894513795190
2.529822128134711078928 448.38731566915481608 2.529822128134711078928 111.17029635977692692
3.184857364427983839050 472.95025932725485518 3.184857364427983839050 108.61731857198296325
4.009497869018190385759 496.85457983716582930 4.009497869018190385759 106.79895375935765856
5.009497869018190385759 519.46368485624998357 5.009497869018190385759 105.66211987046759191
6.009497869018190385759 537.63275966206265366 6.009497869018190385759 105.11627718184823266
7.009497869018204596614 552.80225146531302016 7.009497869018204596614 104.86645372732445480
8.009497869018190385759 565.80280705971267707 8.009497869018190385759 104.80355646594171048
9.009497869018204596614 577.16830877233167030 9.009497869018204596614 104.82289274760267972
10.009497869018190385759 587.23930408352237009 10.009497869018190385759 104.84918319702191525
11.009497869018190385759 596.28020135132931046 11.009497869018190385759 104.85695623650278208
12.009497869018190385759 604.45721771950229595 12.009497869018190385759 104.93773618797801817
13.009497869018190385759 611.91296797797451745 13.009497869018190385759 104.97386985648518021
14.009497869018204596614 618.76938287673624473 14.009497869018204596614 104.99152424698498010
15.009497869018190385759 625.09381757099629340 15.009497869018190385759 105.05784909005606664
16.009497869018190385759 630.95600850673474724 16.009497869018190385759 105.05825220968576161
17.009497869018190385759 636.42396258819235300 17.009497869018190385759 104.98086416316192526
18.009497869018190385759 641.53194566666923038 18.009497869018190385759 105.00847760402683662
19.009497869018204596614 646.31177933981371098 19.009497869018204596614 105.00454506025420187
20.009497869018190385759 650.80572070716812050 20.009497869018190385759 105.00624159833931515
21.009497869018204596614 655.05933733143058362 21.009497869018204596614 104.94740584603250966
22.009497869018190385759 659.08350575616168499 22.009497869018190385759 104.92032808163560276
23.009497869018190385759 662.89412163276426782 23.009497869018190385759 105.06844719085347606
24.009497869018190385759 666.50269675970275784 24.009497869018190385759 105.08672804702030135
25.009497869018190385759 669.93509916664993398 25.009497869018190385759 105.08392374301423899
26.009497869018204596614 673.22196592639170376 26.009497869018204596614 105.13614127415246458
27.009497869018190385759 676.36676996335597778 27.009497869018190385759 105.10411857983983452
28.009497869018190385759 679.37192835247992662 28.009497869018190385759 105.14148589078986618
29.009497869018190385759 682.24652006866335796 29.009497869018190385759 105.26269159502990647
30.009497869018190385759 684.99460910019479343 30.009497869018190385759 105.26933895625133175
31.009497869018190385759 687.63023965412151028 31.009497869018190385759 105.23083615769317589
32.009497869018190385759 690.16821584151728075 32.009497869018190385759 105.18295542918725971
33.009497869018190385759 692.61559261584557134 33.009497869018190385759 105.14057387873239691
34.009497869018190385759 694.97255813791878154 34.009497869018190385759 105.05773526909804616
35.009497869018190385759 697.24096960177826077 35.009497869018190385759 105.03787944577588576
36.009497869018190385759 699.42674779595779455 36.009497869018190385759 105.03497279962769539
37.009497869018190385759 701.53325747681321900 37.009497869018190385759 104.99570659927097438
38.009497869018190385759 703.56294029366836185 38.009497869018190385759 104.90270865346707296
39.009497869018190385759 705.52411492816452210 39.009497869018190385759 104.75631861628596653
40.009497869018190385759 707.42345861880517077 40.009497869018190385759 104.55259022275933489
41.009497869018190385759 709.26637786013020559 41.009497869018190385759 104.43551368712991234
42.009497869018190385759 711.05129715233749721 42.009497869018190385759 104.21494577907701284
43.009497869018190385759 712.77947211491903090 43.009497869018190385759 104.06760824564688050
44.009497869018218807469 714.45129588046813751 44.009497869018218807469 103.93644738417437168
46.009497869018190385759 717.64015957520416578 46.009497869018190385759 103.58034858876749240
48.009497869018190385759 720.62305560002732818 48.009497869018190385759 103.21642225865311104
50.009497869018190385759 723.43370558840570084 50.009497869018190385759 102.89546430172501346
52.009497869018190385759 726.10007969455864441 52.009497869018190385759 102.66906177461822836
54.009497869018190385759 728.62666465151960438 54.009497869018190385759 102.45441491193339800
56.009497869018190385759 731.01897467116657481 56.009497869018190385759 102.36063351728435578
58.009497869018218807469 733.29372878748790754 58.009497869018218807469 102.27561668943195627
60.009497869018190385759 735.47760019114207353 60.009497869018190385759 102.15548618845681972
62.009497869018190385759 737.56349251064466443 62.009497869018190385759 102.01819064786258195
64.009497869018190385759 739.55833488488349303 64.009497869018190385759 101.90640161340810721
66.009497869018190385759 741.46676850900837508 66.009497869018190385759 101.78317372614397129
68.009497869018190385759 743.29146994309542151 68.009497869018190385759 101.52931706041002258
70.009497869018190385759 745.03239660907865982 70.009497869018190385759 101.33185954494790337
72.009497869018218807469 746.69983983629219892 72.009497869018218807469 100.80418336493002585
74.009497869018190385759 748.30182543337957668 74.009497869018190385759 100.33967691164589553
76.009497869018190385759 749.84430572754865807 76.009497869018190385759 99.95210997573732925
78.009497869018190385759 751.32479707001573388 78.009497869018190385759 99.44351935168198509
80.009497869018190385759 752.74328947385799893 80.009497869018190385759 99.10842058092930529
82.009497869018218807469 754.10117289062429791 82.009497869018218807469 98.79965044490481318
84.009497869018190385759 755.40305041408896614 84.009497869018190385759 98.36625623190391821
86.009497869018190385759 756.63826960838355262 86.009497869018190385759 97.89091226384269362
88.009497869018190385759 757.81983385392891250 88.009497869018190385759 97.58536374079187681
91.009497869018218807469 759.51356380126173917 91.009497869018218807469 97.31771839002543345
94.009497869018190385759 761.13616664897631381 94.009497869018190385759 97.14439278215034790
97.009497869018190385759 762.69317269027430939 97.009497869018190385759 97.13777085071741624
99.504748934509109403734 763.93753023412125458 99.504748934509109403734 94.84632871012657063
nan nan nan nan

