Time Pressure difference Time.1 Pressure.1 difference.1
(hr) (psi) (hr) (psi)
0.000200000000006639311 0.50753242861772097 0.000200000000006639311 0.40531164178070200
0.000399999999999067768 1.01327464382408494 0.000399999999999067768 1.05395614053108622
0.000600000000005707079 1.51753780149518924 0.000600000000005707079 1.53881379066457002
0.000799999999998135536 2.02046577877404143 0.000799999999998135536 2.03053116617930929
0.001007140329434719206 2.54003726687073650 0.001007140329434719206 2.54474940887771428
0.001267914553963578328 3.19235397329178205 0.001267914553963578328 3.19398503028477476
0.001596209851982166583 4.01090242848562628 0.001596209851982166583 4.00654251011356166
0.002009509145210586212 5.03740450543754026 0.002009509145210586212 5.02236820653695037
0.002529822128138903281 6.32374036518675187 0.002529822128138903281 6.29061199451094666
0.003184857364445292660 7.93426255487907905 0.003184857364445292660 7.87147027098559438
0.004009497869020606231 9.94856694371250683 0.004009497869020606231 9.83825105343511197
0.005047658755842121536 12.46475668463257058 0.005047658755842121536 12.27960811838048016
0.006354625877804664924 15.60324024162532730 0.006354625877804664924 15.30183651403136835
0.008000000000009777068 19.51104977552870423 0.008000000000009777068 19.03102910189373631
0.010071403294347192059 24.36662820565235066 0.010071403294347192059 23.61478505395626115
0.012679145539692626699 30.38492824415880733 0.012679145539692626699 29.22292498208771505
0.015962098519750611558 37.82251966399165610 0.015962098519750611558 36.04651879716276852
0.020095091452091651263 46.98222728322674868 0.020095091452091651263 44.29425463740525259
0.025298221281346400247 58.21654681678320742 0.025298221281346400247 54.18475510630150183
0.031848573644282396344 71.92871723406064177 0.031848573644282396344 65.93314874511236212
0.040094978690191851456 88.56991536391721809 0.040094978690191851456 79.72987367511760226
0.050476587558421215363 108.63051785899493495 0.050476587558421215363 95.71135512098504705
0.063546258777947173257 132.62373019637939819 0.063546258777947173257 113.91852676874285066
0.079999999999998294697 161.05767466952116251 0.079999999999998294697 134.24660399274461042
0.100714032943542974863 194.39581279367209277 0.100714032943542974863 156.39267599261759756
0.126791455396897845276 233.00483229097696380 0.126791455396897845276 179.79898874186369540
0.159620985197506115583 277.08892362633503126 0.159620985197506115583 203.62837992197853509
0.200950914520774404082 326.62638775661162072 0.200950914520774404082 226.77067422220460458
0.252982212813464002465 381.30700176490501008 0.252982212813464002465 247.92405206306790433
0.318485736442795541734 440.50633431054455968 0.318485736442795541734 265.74870310359597170
0.400949786901819038576 503.29419414673787969 0.400949786901819038576 279.08626456330682686
0.504765875584169521062 568.51026043395677334 0.504765875584169521062 287.20866606120762299
0.635462587779443310865 634.88716669597499731 0.635462587779443310865 289.99593847097395383
0.799999999999997157829 701.20764804794441716 0.799999999999997157829 287.99166820348614237
1.007140329435330272645 766.45230146557082662 1.007140329435330272645 282.29770010238888744
1.267914553968893187630 829.90693189255398465 1.267914553968893187630 274.32976205336365183
1.596209851975103788391 891.19633845516557358 1.596209851975103788391 265.51111404236490898
2.009509145207687197399 950.24937014881948016 2.009509145207687197399 257.03633123337976940
2.529822128134711078928 1007.22297747740287832 2.529822128134711078928 249.72445248464597967
3.184857364427983839050 1062.39929576820850343 3.184857364427983839050 243.98963840985879870
4.009497869018190385759 1116.09613338422173001 4.009497869018190385759 239.90500274620416121
5.009497869018190385759 1166.88349796753209375 5.009497869018190385759 237.35130603255771575
6.009497869018190385759 1207.69711821147166120 6.009497869018190385759 236.12516675775466979
7.009497869018204596614 1241.77270457833174078 7.009497869018204596614 235.56398245365900834
8.009497869018190385759 1270.97615850545753347 8.009497869018190385759 235.42269485547936370
9.009497869018204596614 1296.50675242608326698 9.009497869018204596614 235.46613039994574024
10.009497869018190385759 1319.12946615820646912 10.009497869018190385759 235.52518725507496811
11.009497869018190385759 1339.43824641787568908 11.009497869018190385759 235.54264801655588712
12.009497869018190385759 1357.80647068608777772 12.009497869018190385759 235.72410592225946857
13.009497869018190385759 1374.55449792111198803 13.009497869018190385759 235.80527383203104819
14.009497869018204596614 1389.95622403560992097 14.009497869018204596614 235.84493130480814216
15.009497869018190385759 1404.16295049955419927 15.009497869018190385759 235.99391836038327597
16.009497869018190385759 1417.33132793240793035 16.009497869018190385759 235.99482389749263689
17.009497869018190385759 1429.61412184332925790 17.009497869018190385759 235.82098530769096101
18.009497869018190385759 1441.08830442034877706 18.009497869018190385759 235.88301402963381292
19.009497869018204596614 1451.82535726700803025 19.009497869018204596614 235.87418026402693272
20.009497869018190385759 1461.92020350029315523 20.009497869018190385759 235.87799123744605367
21.009497869018204596614 1471.47520260847113605 21.009497869018204596614 235.74582710266861341
22.009497869018190385759 1480.51478682726019542 22.009497869018190385759 235.68500168337996570
23.009497869018190385759 1489.07466293242259781 23.009497869018190385759 236.01772512357158007
24.009497869018190385759 1497.18069014771481307 24.009497869018190385759 236.05878984091694406
25.009497869018190385759 1504.89097643684976902 25.009497869018190385759 236.05249046684448899
26.009497869018204596614 1512.27434257729919409 26.009497869018204596614 236.16978793568804917
27.009497869018190385759 1519.33858988092106301 27.009497869018190385759 236.09785460397844759
28.009497869018190385759 1526.08914788001925444 28.009497869018190385759 236.18179367379633504
29.009497869018190385759 1532.54641088953417238 29.009497869018190385759 236.45406089912967218
30.009497869018190385759 1538.71950794198187396 30.009497869018190385759 236.46899302304984758
31.009497869018190385759 1544.63998687010393951 31.009497869018190385759 236.38250328070049022
32.009497869018190385759 1550.34110249693753758 32.009497869018190385759 236.27494767365226380
33.009497869018190385759 1555.83870253044733545 33.009497869018190385759 236.17974499965254154
34.009497869018190385759 1561.13320964069271213 34.009497869018190385759 235.99366268168714100
35.009497869018190385759 1566.22879568634766656 35.009497869018190385759 235.94906007856272367
36.009497869018190385759 1571.13876067400815373 36.009497869018190385759 235.94253081092838897
37.009497869018190385759 1575.87066293504699388 37.009497869018190385759 235.85432622115646950
38.009497869018190385759 1580.42998720379205224 38.009497869018190385759 235.64542274731022076
39.009497869018190385759 1584.83541993054609520 39.009497869018190385759 235.31658336231885187
40.009497869018190385759 1589.10196035327203390 40.009497869018190385759 234.85894347833070128
41.009497869018190385759 1593.24175320786594057 41.009497869018190385759 234.59595170160429234
42.009497869018190385759 1597.25125941205214986 42.009497869018190385759 234.10048481991196923
43.009497869018190385759 1601.13329949343960834 43.009497869018190385759 233.76951705180238150
44.009497869018218807469 1604.88875655502215523 44.009497869018218807469 233.47488732253873422
46.009497869018190385759 1612.05197610459481439 46.009497869018190385759 232.67497421962107751
48.009497869018190385759 1618.75252563094386460 48.009497869018190385759 231.85747794131268051
50.009497869018190385759 1625.06615483277914791 50.009497869018190385759 231.13650253071315888
52.009497869018190385759 1631.05569372564468722 52.009497869018190385759 230.62792920695491716
54.009497869018190385759 1636.73122096352381050 54.009497869018190385759 230.14576290879153930
56.009497869018190385759 1642.10512325030435932 56.009497869018190385759 229.93509955537041378
58.009497869018218807469 1647.21495694542318233 58.009497869018218807469 229.74412425456958431
60.009497869018190385759 1652.12063866466087347 60.009497869018190385759 229.47427228362909091
62.009497869018190385759 1656.80622766177907579 62.009497869018190385759 229.16586208030895477
64.009497869018190385759 1661.28728902449938687 64.009497869018190385759 228.91474774188367292
66.009497869018190385759 1665.57424837869143630 66.009497869018190385759 228.63793803924252757
68.009497869018190385759 1669.67311814423283067 68.009497869018190385759 228.06769383790634720
70.009497869018190385759 1673.58380267701113553 70.009497869018190385759 227.62414037486459506
72.009497869018218807469 1677.32941963225925974 72.009497869018218807469 226.43880895578033119
74.009497869018190385759 1680.92799757277521167 74.009497869018190385759 225.39537718020457646
76.009497869018190385759 1684.39290735122131082 76.009497869018190385759 224.52477645285114249
78.009497869018190385759 1687.71856988889567219 78.009497869018190385759 223.38231736719740184
80.009497869018190385759 1690.90496275193822839 80.009497869018190385759 222.62957711377868009
82.009497869018218807469 1693.95520822121852689 82.009497869018218807469 221.93597949204720976
84.009497869018190385759 1696.87964633458955177 84.009497869018190385759 220.96243587387237994
86.009497869018190385759 1699.65434827471449353 86.009497869018190385759 219.89465953385254693
88.009497869018190385759 1702.30852384099466690 88.009497869018190385759 219.20829869714648908
91.009497869018218807469 1706.11318927415777580 91.009497869018218807469 218.60708064818211938
94.009497869018190385759 1709.75808022986961987 94.009497869018190385759 218.21773525696272600
97.009497869018190385759 1713.25561953587339303 97.009497869018190385759 218.20286025657478035
99.504748934509109403734 1716.05084916561804675 99.504748934509109403734 213.05553985987992860
nan nan nan nan

