Time Pressure difference Time.1 Pressure.1 difference.1
(hr) (psi) (hr) (psi)
0.000200000000006639311 0.73845553034558731 0.000200000000006639311 0.58972512200170879
0.000399999999999067768 1.47430631482751462 0.000399999999999067768 1.53349755962706324
0.000600000000005707079 2.20800508269921991 0.000600000000005707079 2.23896147283273805
0.000799999999998135536 2.93976117402638781 0.000799999999998135536 2.95440623033290661
0.001007140329434719206 3.69573343739457449 0.001007140329434719206 3.70258956545382656
0.001267914553963578328 4.64484890712994147 0.001267914553963578328 4.64722208170730688
0.001596209851982166583 5.83583021100445531 0.001596209851982166583 5.82948656545164656
0.002009509145210586212 7.32938233278882656 0.002009509145210586212 7.30750464093510477
0.002529822128138903281 9.20099048224389904 0.002529822128138903281 9.15278897401019975
0.003184857364445292660 11.54428708885024868 0.003184857364445292660 11.45292482963370517
0.004009497869020606231 14.47508349093358149 0.004009497869020606231 14.31457477332866723
0.005047658755842121536 18.13611897322153155 0.005047658755842121536 17.86672932445211970
0.006354625877804664924 22.70258686547449400 0.006354625877804664924 22.26404690830423050
0.008000000000009777068 28.38841775850248794 0.008000000000009777068 27.68999160651969405
0.010071403294347192059 35.45324463964801964 0.010071403294347192059 34.35931900649282511
0.012679145539692626699 44.20982194608376403 0.012679145539692626699 42.51911670879865568
0.015962098519750611558 55.03145659785365496 0.015962098519750611558 52.44738987017627352
0.020095091452091651263 68.35875622714989674 0.020095091452091651263 64.44777802398243693
0.025298221281346400247 84.70459921459945463 0.025298221281346400247 78.83837526923409200
0.031848573644282396344 104.65569496085093704 0.031848573644282396344 95.93219187300310580
0.040094978690191851456 128.86850205977481210 0.040094978690191851456 116.00631374333805468
0.050476587558421215363 158.05651452806301904 0.050476587558421215363 139.25923846572129605
0.063546258777947173257 192.96644213515759247 0.063546258777947173257 165.75052421835087557
0.079999999999998294697 234.33759865990884919 0.079999999999998294697 195.32771022839602892
0.100714032943542974863 282.84431681436086592 0.100714032943542974863 227.55006376012607916
0.126791455396897845276 339.02012423351641246 0.126791455396897845276 261.60605726925825820
0.159620985197506115583 403.16211637285078950 0.159620985197506115583 296.27762643312428281
0.200950914520774404082 475.23872130217307586 0.200950914520774404082 329.94947525947605982
0.252982212813464002465 554.79856721604016911 0.252982212813464002465 360.72746691336720914
0.318485736442795541734 640.93311162368922851 0.318485736442795541734 386.66218831276069068
0.400949786901819038576 732.28893387307687135 0.400949786901819038576 406.06823109129254590
0.504765875584169521062 827.17777663795015997 0.504765875584169521062 417.88625880264089574
0.635462587779443310865 923.75563206664764948 0.635462587779443310865 421.94171734974776200
0.799999999999997157829 1020.25138971296667023 0.799999999999997157829 419.02552051210989248
1.007140329435330272645 1115.18182651864572108 1.007140329435330272645 410.74084352049709423
1.267914553968893187630 1207.50779452124470481 1.267914553968893187630 399.14755886324104495
1.596209851975103788391 1296.68337951987268752 1.596209851975103788391 386.31649817293356364
2.009509145207687197399 1382.60505738510732954 2.009509145207687197399 373.98575853760161181
2.529822128134711078928 1465.50118981573041310 2.529822128134711078928 363.34703479353566991
3.184857364427983839050 1545.78228140415285452 3.184857364427983839050 355.00292724445904469
4.009497869018190385759 1623.91074071779553378 4.009497869018190385759 349.05981577966531404
5.009497869018190385759 1697.80594057796383822 5.009497869018190385759 345.34420795899148970
6.009497869018190385759 1757.18942404255039946 6.009497869018190385759 343.56018534802603881
7.009497869018204596614 1806.76912335537940635 7.009497869018204596614 342.74366677790970925
8.009497869018190385759 1849.25990983854626393 8.009497869018190385759 342.53809447875801197
9.009497869018204596614 1886.40671506839294125 9.009497869018204596614 342.60129284051021159
10.009497869018190385759 1919.32257842004173654 10.009497869018190385759 342.68722008144300162
11.009497869018190385759 1948.87168750489581726 11.009497869018190385759 342.71262534651089027
12.009497869018190385759 1975.59730350234349316 12.009497869018190385759 342.97664511438409818
13.009497869018190385759 1999.96554607507141554 13.009497869018190385759 343.09474375887987208
14.009497869018204596614 2022.37493153462719420 14.009497869018204596614 343.15244505724126611
15.009497869018190385759 2043.04560228167542846 15.009497869018190385759 343.36922000389648701
16.009497869018190385759 2062.20548368561503594 16.009497869018190385759 343.37053755298029500
17.009497869018190385759 2080.07684831214373844 17.009497869018190385759 343.11760382739322495
18.009497869018190385759 2096.77169006495932990 18.009497869018190385759 343.20785511022006631
19.009497869018204596614 2112.39401409225865791 19.009497869018204596614 343.19500205355143407
20.009497869018190385759 2127.08193275247231213 20.009497869018190385759 343.20054698868989362
21.009497869018204596614 2140.98437826338931700 21.009497869018204596614 343.00824925412831590
22.009497869018190385759 2154.13689932804300042 22.009497869018190385759 342.91974876681632622
23.009497869018190385759 2166.59144901296849639 23.009497869018190385759 343.40385864951741723
24.009497869018190385759 2178.38565227711706029 24.009497869018190385759 343.46360747720973450
25.009497869018190385759 2189.60405573217576602 25.009497869018190385759 343.45444193948407019
26.009497869018204596614 2200.34679304618475726 26.009497869018204596614 343.62510879677034836
27.009497869018190385759 2210.62521506405664695 27.009497869018190385759 343.52044638778534136
28.009497869018190385759 2220.44722171086277740 28.009497869018190385759 343.64257704747126354
29.009497869018190385759 2229.84248654794737377 29.009497869018190385759 344.03872363228526865
30.009497869018190385759 2238.82429224291627179 30.009497869018190385759 344.06044975039498013
31.009497869018190385759 2247.43854063424305423 31.009497869018190385759 343.93460788304867037
32.009497869018190385759 2255.73361721731180296 32.009497869018190385759 343.77811535495396811
33.009497869018190385759 2263.73258027752444832 33.009497869018190385759 343.63959624335694798
34.009497869018190385759 2271.43604479635951066 34.009497869018190385759 343.36884799348587194
35.009497869018190385759 2278.85008079404724413 35.009497869018190385759 343.30395157093659009
36.009497869018190385759 2285.99403967134730919 36.009497869018190385759 343.29445153995965256
37.009497869018190385759 2292.87891873855460290 37.009497869018190385759 343.16611458364667442
38.009497869018190385759 2299.51269823923257718 38.009497869018190385759 342.86216173872145418
39.009497869018190385759 2305.92256680565515126 39.009497869018190385759 342.38370312455231215
40.009497869018190385759 2312.13034820631537514 40.009497869018190385759 341.71784083835672163
41.009497869018190385759 2318.15371293255748242 41.009497869018190385759 341.33518995536206830
42.009497869018190385759 2323.98751164863233498 42.009497869018190385759 340.61428969705684722
43.009497869018190385759 2329.63584819912921375 43.009497869018190385759 340.13273430286790244
44.009497869018218807469 2335.10000749167738832 44.009497869018218807469 339.70405045783462583
46.009497869018190385759 2345.52243331748695709 46.009497869018190385759 338.54018343902311017
48.009497869018190385759 2355.27167804567761777 48.009497869018190385759 337.35073304390664362
50.009497869018190385759 2364.45795686798737734 50.009497869018190385759 336.30171972144677284
52.009497869018190385759 2373.17268694287758990 52.009497869018190385759 335.56174969718972534
54.009497869018190385759 2381.43053262941475623 54.009497869018190385759 334.86020167907639689
56.009497869018190385759 2389.24951648039359497 56.009497869018190385759 334.55368822377135984
58.009497869018218807469 2396.68428269145852028 58.009497869018218807469 334.27582072391544443
60.009497869018190385759 2403.82200944825490296 60.009497869018190385759 333.88318831447838875
62.009497869018190385759 2410.63950309545271011 62.009497869018190385759 333.43445399246257921
64.009497869018190385759 2417.15941070831422621 64.009497869018190385759 333.06908468499926812
66.009497869018190385759 2423.39690148716317708 66.009497869018190385759 332.66632883287496725
68.009497869018190385759 2429.36072345371985648 68.009497869018190385759 331.83662818641363401
70.009497869018190385759 2435.05073744658420765 70.009497869018190385759 331.19126152742165914
72.009497869018218807469 2440.50057946494007410 72.009497869018218807469 329.46661401258381829
74.009497869018190385759 2445.73648092012626876 74.009497869018190385759 327.94842931784268103
76.009497869018190385759 2450.77789629334802157 76.009497869018190385759 326.68171238393563272
78.009497869018190385759 2455.61670807075006451 78.009497869018190385759 325.01944376340179588
80.009497869018190385759 2460.25288361124921721 80.009497869018190385759 323.92421285458146940
82.009497869018218807469 2464.69096580795940099 82.009497869018218807469 322.91503399088372817
84.009497869018190385759 2468.94599933134259118 84.009497869018190385759 321.49853599324478637
86.009497869018190385759 2472.98316794798893170 86.009497869018190385759 319.94493015645645073
88.009497869018190385759 2476.84497167699555575 88.009497869018190385759 318.94628075574991044
91.009497869018218807469 2482.38072874750650954 91.009497869018218807469 318.07151341445813841
94.009497869018190385759 2487.68401526080879194 94.009497869018190385759 317.50501905636639322
97.009497869018190385759 2492.77290632960966832 97.009497869018190385759 317.48337605252856974
99.504748934509109403734 2496.83994256666846923 99.504748934509109403734 309.99406699743576610
nan nan nan nan

