Time Pressure difference Time.1 Pressure.1 difference.1
(hr) (psi) (hr) (psi)
0.000200000000006639311 0.66452691144709775 0.000200000000006639311 0.53068627401728574
0.000399999999999067768 1.32670984461418651 0.000399999999999067768 1.37997530675101299
0.000600000000005707079 1.98695620490368507 0.000600000000005707079 2.01481347386523080
0.000799999999998135536 2.64545437482689527 0.000799999999998135536 2.65863327813984851
0.001007140329434719206 3.32574437560816571 0.001007140329434719206 3.33191411964348827
0.001267914553963578328 4.17984153622492016 0.001267914553963578328 4.18197712639577723
0.001596209851982166583 5.25159074106137691 0.001596209851982166583 5.24588217363477849
0.002009509145210586212 6.59561964705406201 0.002009509145210586212 6.57593218531842982
0.002529822128138903281 8.27985645196301334 0.002529822128138903281 8.23648051654461000
0.003184857364445292660 10.38855980998897266 0.003184857364445292660 10.30634405366362571
0.004009497869020606231 13.02594689847791365 0.004009497869020606231 12.88150710760734796
0.005047658755842121536 16.32046701752218709 0.005047658755842121536 16.07804663617738683
0.006354625877804664924 20.42977445711990470 0.006354625877804664924 20.03513782524565201
0.008000000000009777068 25.54638268481663488 0.008000000000009777068 24.91787771115382810
0.010071403294347192059 31.90393218416020105 0.010071403294347192059 30.91952216557284316
0.012679145539692626699 39.78386676812937139 0.012679145539692626699 38.26242223513939678
0.015962098519750611558 49.52212067298417253 0.015962098519750611558 47.19675128924748719
0.020095091452091651263 61.51519120553420805 0.020095091452091651263 57.99575075274010061
0.025298221281346400247 76.22461121673741502 0.025298221281346400247 70.94566953361898243
0.031848573644282396344 94.17835317061951628 0.031848573644282396344 86.32818166299492191
0.040094978690191851456 115.96715595930241705 0.040094978690191851456 104.39263328984301893
0.050476587558421215363 142.23308393976424213 0.050476587558421215363 125.31764991291005629
0.063546258777947173257 173.64809191015305601 0.063546258777947173257 149.15682719311666915
0.079999999999998294697 210.87747910902933768 0.079999999999998294697 175.77296758460835235
0.100714032943542974863 254.52806912428425790 0.100714032943542974863 204.76946120146328667
0.126791455396897845276 305.07997681306312643 0.126791455396897845276 235.41602453926503813
0.159620985197506115583 362.80055466623241500 0.159620985197506115583 266.61653672272154836
0.200950914520774404082 427.66139149801853137 0.200950914520774404082 296.91741305689635055
0.252982212813464002465 499.25630345650415620 0.252982212813464002465 324.61414345409872340
0.318485736442795541734 576.76770449825801279 0.318485736442795541734 347.95247542205686386
0.400949786901819038576 658.97766827723444294 0.400949786901819038576 365.41573101578626392
0.504765875584169521062 744.36695310501704625 0.504765875584169521062 376.05062659405257364
0.635462587779443310865 831.27615934006541920 0.635462587779443310865 379.70008310438487342
0.799999999999997157829 918.11148680581925419 0.799999999999997157829 377.07583398165121480
1.007140329435330272645 1003.53820159158226488 1.007140329435330272645 369.62055659887255388
1.267914553968893187630 1086.62118742069264954 1.267914553968893187630 359.18790448885584965
1.596209851975103788391 1166.86918292002042108 1.596209851975103788391 347.64139318149250357
2.009509145207687197399 1244.18902801809417724 2.009509145207687197399 336.54511454452335784
2.529822128134711078928 1318.78622255633786153 2.529822128134711078928 326.97145988169683051
3.184857364427983839050 1391.03017449192589083 3.184857364427983839050 319.46270168230284980
4.009497869018190385759 1461.33699952107599529 4.009497869018190385759 314.11456988046376182
5.009497869018190385759 1527.83436722426449705 5.009497869018190385759 310.77094079549289063
6.009497869018190385759 1581.27282253547832624 6.009497869018190385759 309.16552112308306732
7.009497869018204596614 1625.88897489797932394 7.009497869018204596614 308.43074625683664181
8.009497869018190385759 1664.12590311680219202 8.009497869018190385759 308.24575431159325944
9.009497869018204596614 1697.55384933038726558 9.009497869018204596614 308.30262572824318568
10.009497869018190385759 1727.17442377506586126 10.009497869018190385759 308.37995057947625810
11.009497869018190385759 1753.76529809214480338 11.009497869018190385759 308.40281246030230022
12.009497869018190385759 1777.81534623383004146 12.009497869018190385759 308.64040055287654241
13.009497869018190385759 1799.74402346463102731 13.009497869018190385759 308.74667604848582414
14.009497869018204596614 1819.90994963745970381 14.009497869018204596614 308.79860072642640034
15.009497869018190385759 1838.51122814998916510 15.009497869018190385759 308.99367379428258573
16.009497869018190385759 1855.75296619627874861 16.009497869018190385759 308.99485944025224171
17.009497869018190385759 1871.83518408291888591 17.009497869018190385759 308.76724753871161511
18.009497869018190385759 1886.85866372549753578 18.009497869018190385759 308.84846354125539847
19.009497869018204596614 1900.91699805827579439 19.009497869018204596614 308.83689723604180699
20.009497869018190385759 1914.13447266814159775 20.009497869018190385759 308.84188705393916052
21.009497869018204596614 1926.64510979832539306 21.009497869018204596614 308.66884072362506686
22.009497869018190385759 1938.48089928282865912 22.009497869018190385759 308.58920024010473071
23.009497869018190385759 1949.68859303754197754 23.009497869018190385759 309.02484467898079856
24.009497869018190385759 1960.30204929324349905 24.009497869018190385759 309.07861190300093313
25.009497869018190385759 1970.39735049014666401 25.009497869018190385759 309.07036395004189444
26.009497869018204596614 1980.06460566585792549 26.009497869018204596614 309.22394492397785370
27.009497869018190385759 1989.31402930398826356 27.009497869018190385759 309.12976052894066470
28.009497869018190385759 1998.15273044847026540 28.009497869018190385759 309.23966438467607531
29.009497869018190385759 2006.60741196665708230 29.009497869018190385759 309.59615175008798360
30.009497869018190385759 2014.69002676527884432 30.009497869018190385759 309.61570281250391190
31.009497869018190385759 2022.44188133565171483 31.009497869018190385759 309.50245928733289702
32.009497869018190385759 2029.90651718093272393 32.009497869018190385759 309.36163361525666460
33.009497869018190385759 2037.10468416425169380 33.009497869018190385759 309.23698199627170879
34.009497869018190385759 2044.03693569976121580 34.009497869018190385759 308.99333902675891750
35.009497869018190385759 2050.70873412287710380 35.009497869018190385759 308.93493954639967569
36.009497869018190385759 2057.13749351752267103 36.009497869018190385759 308.92639058714030398
37.009497869018190385759 2063.33311022592124573 37.009497869018190385759 308.81090176256162749
38.009497869018190385759 2069.30276556961280221 38.009497869018190385759 308.53737839255023800
39.009497869018190385759 2075.07092625930772556 39.009497869018190385759 308.10681945966462081
40.009497869018190385759 2080.65723123178031528 40.009497869018190385759 307.50761830223331117
41.009497869018190385759 2086.07758194155940146 41.009497869018190385759 307.16327555038202490
42.009497869018190385759 2091.32734456569824033 42.009497869018190385759 306.51454640905006954
43.009497869018190385759 2096.41021210270309894 43.009497869018190385759 306.08120072249084842
44.009497869018218807469 2101.32734082490651417 44.009497869018218807469 305.69543348286578066
46.009497869018190385759 2110.70635169177739954 46.009497869018190385759 304.64808408461021827
48.009497869018190385759 2119.47957529419818457 48.009497869018190385759 303.57771252545029483
50.009497869018190385759 2127.74619290707551045 50.009497869018190385759 302.63371853448535376
52.009497869018190385759 2135.58846968987836590 52.009497869018190385759 301.96782874887713888
54.009497869018190385759 2143.01960191623402352 54.009497869018190385759 301.33651444686296372
56.009497869018190385759 2150.05580785637266672 56.009497869018190385759 301.06068681554222621
58.009497869018218807469 2156.74626113967042329 58.009497869018218807469 300.81063732185867821
60.009497869018190385759 2163.16941232688805030 60.009497869018190385759 300.45731231899065961
62.009497869018190385759 2169.30438973719037676 62.009497869018190385759 300.05350190547818556
64.009497869018190385759 2175.17157319083389666 64.009497869018190385759 299.72471062767090189
66.009497869018190385759 2180.78461326178921809 66.009497869018190385759 299.36227566512934573
68.009497869018190385759 2186.15138218557467553 68.009497869018190385759 298.61563841297066801
70.009497869018190385759 2191.27175473258421334 70.009497869018190385759 298.03488101455263859
72.009497869018218807469 2196.17599951850615980 72.009497869018218807469 296.48289224979419032
74.009497869018190385759 2200.88772186288088051 74.009497869018190385759 295.11669679895851459
76.009497869018190385759 2205.42442861043673474 76.009497869018190385759 293.97679404628627253
78.009497869018190385759 2209.77881491181096862 78.009497869018190385759 292.48093926965287892
80.009497869018190385759 2213.95085139370030447 80.009497869018190385759 291.49535464979209110
82.009497869018218807469 2217.94462614889471297 82.009497869018218807469 290.58720719089654949
84.009497869018190385759 2221.77367768849671847 84.009497869018190385759 289.31251832912914779
86.009497869018190385759 2225.40667531877534202 86.009497869018190385759 287.91444783483149195
88.009497869018190385759 2228.88186427626123987 88.009497869018190385759 287.01577570821143581
91.009497869018218807469 2233.86342294488758853 91.009497869018218807469 286.22858350007476247
94.009497869018190385759 2238.63578426169533486 94.009497869018190385759 285.71880230044223481
97.009497869018190385759 2243.21521379492423875 97.009497869018190385759 285.69932603152176398
99.504748934509109403734 2246.87508892388586901 99.504748934509109403734 278.95979032390170005
nan nan nan nan

