Time Pressure difference Time.1 Pressure.1 difference.1
(hr) (psi) (hr) (psi)
0.000200000000006639311 0.80573888012960604 0.000200000000006639311 0.64345710724595906
0.000399999999999067768 1.60863568659470091 0.000399999999999067768 1.67322005943560326
0.000600000000005707079 2.40918439844571797 0.000600000000005707079 2.44296133706159235
0.000799999999998135536 3.20761342947761063 0.000799999999998135536 3.22359284974456628
0.001007140329434719206 4.03246505542490130 0.001007140329434719206 4.03994587006773020
0.001267914553963578328 5.06805786267271507 0.001267914553963578328 5.07064726575487956
0.001596209851982166583 6.36755377353691987 0.001596209851982166583 6.36063213553216844
0.002009509145210586212 7.99718882205305004 0.002009509145210586212 7.97331777469859571
0.002529822128138903281 10.03932594800515510 0.002529822128138903281 9.98673262631034042
0.003184857364445292660 12.59612876961163153 0.003184857364445292660 12.49644216506714756
0.004009497869020606231 15.79396061440447063 0.004009497869020606231 15.61882736797391225
0.005047658755842121536 19.78856625874565367 0.005047658755842121536 19.49463154636508122
0.006354625877804664924 24.77110152925788356 0.006354625877804664924 24.29260461311035257
0.008000000000009777068 30.97498900534016997 0.008000000000009777068 30.21292672477401808
0.010071403294347192059 38.68351777329424124 0.010071403294347192059 37.48992062575707251
0.012679145539692626699 48.23793845635686495 0.012679145539692626699 46.39318696010651877
0.015962098519750611558 60.04557131599330688 0.015962098519750611558 57.22606093821257645
0.020095091452091651263 74.58716933671023241 0.020095091452091651263 70.31984778769736977
0.025298221281346400247 92.42234110029411909 0.025298221281346400247 86.02162430951301531
0.031848573644282396344 114.19125321937615070 0.031848573644282396344 104.67292026638135383
0.040094978690191851456 140.61017660065417090 0.040094978690191851456 126.57606786393465370
0.050476587558421215363 172.45761427696413648 0.050476587558421215363 151.94765051940345302
0.063546258777947173257 210.54831144106057650 0.063546258777947173257 180.85265297165395282
0.079999999999998294697 255.68894341969809147 0.079999999999998294697 213.12472319633761231
0.100714032943542974863 308.61528381319465097 0.100714032943542974863 248.28297170677424788
0.126791455396897845276 369.90947188583908201 0.126791455396897845276 285.44192975385885802
0.159620985197506115583 439.89567253280682735 0.159620985197506115583 323.27255077629985180
0.200950914520774404082 518.53943719134747425 0.200950914520774404082 360.01236333148682434
0.252982212813464002465 605.34826794101115865 0.252982212813464002465 393.59464893809467867
0.318485736442795541734 699.33084170413769698 0.318485736442795541734 421.89237644924395454
0.400949786901819038576 799.01042278614681891 0.400949786901819038576 443.06657385664090043
0.504765875584169521062 902.54493063983329648 0.504765875584169521062 455.96138474528873985
0.635462587779443310865 1007.92234319982924262 0.635462587779443310865 460.38635076406671942
0.799999999999997157829 1113.21017775205564249 0.799999999999997157829 457.20444870275207450
1.007140329435330272645 1216.79006942979344785 1.007140329435330272645 448.16492487613294315
1.267914553968893187630 1317.52818974758974946 1.267914553968893187630 435.51533419273772552
1.596209851975103788391 1414.82888429052491119 1.596209851975103788391 421.51518923255969185
2.009509145207687197399 1508.57919647193921264 2.009509145207687197399 408.06095138523460264
2.529822128134711078928 1599.02829484955964290 2.529822128134711078928 396.45289510655743470
3.184857364427983839050 1686.62408657146033875 3.184857364427983839050 387.34852578979223381
4.009497869018190385759 1771.87111191930443965 4.009497869018190385759 380.86391598006230197
5.009497869018190385759 1852.49917025942067994 5.009497869018190385759 376.80976571453516044
6.009497869018190385759 1917.29329732426754163 6.009497869018190385759 374.86319436173818076
7.009497869018204596614 1971.39038206379973417 7.009497869018204596614 373.97227983641442961
8.009497869018190385759 2017.75265752912241624 8.009497869018190385759 373.74797710280682850
9.009497869018204596614 2058.28404231309468742 9.009497869018204596614 373.81693369549486761
10.009497869018190385759 2094.19898882726693046 10.009497869018190385759 373.91069007761495868
11.009497869018190385759 2126.44042393672543767 11.009497869018190385759 373.93841010811649994
12.009497869018190385759 2155.60110730851920380 12.009497869018190385759 374.22648567036281975
13.009497869018190385759 2182.18962845086525704 13.009497869018190385759 374.35534470878906177
14.009497869018204596614 2206.64081393541982834 14.009497869018204596614 374.41830338079199691
15.009497869018190385759 2229.19486413186177742 15.009497869018190385759 374.65482947556762383
16.009497869018190385759 2250.10047151298795143 16.009497869018190385759 374.65626707130581963
17.009497869018190385759 2269.60016070053916337 17.009497869018190385759 374.38028764068781129
18.009497869018190385759 2287.81612976716542107 18.009497869018190385759 374.47876204377217846
19.009497869018204596614 2304.86186014565964797 19.009497869018204596614 374.46473789870066184
20.009497869018190385759 2320.88804811012141727 20.009497869018190385759 374.47078805290124137
21.009497869018204596614 2336.05719563046932308 21.009497869018204596614 374.26096937739538362
22.009497869018190385759 2350.40809038042971224 22.009497869018190385759 374.16440529112696822
23.009497869018190385759 2363.99741905801965913 23.009497869018190385759 374.69262417326422110
24.009497869018190385759 2376.86623476805789323 24.009497869018190385759 374.75781693238860726
25.009497869018190385759 2389.10678746930307170 25.009497869018190385759 374.74781628942577072
26.009497869018204596614 2400.82833436985265507 26.009497869018204596614 374.93403322032310143
27.009497869018190385759 2412.04326053108570704 27.009497869018190385759 374.81983464134054884
28.009497869018190385759 2422.76018566877064586 28.009497869018190385759 374.95309306641973990
29.009497869018190385759 2433.01148700957173787 29.009497869018190385759 375.38533399698167159
30.009497869018190385759 2442.81165745290081759 30.009497869018190385759 375.40903966016099957
31.009497869018190385759 2452.21078111947736033 31.009497869018190385759 375.27173188589114261
32.009497869018190385759 2461.26165208188103861 32.009497869018190385759 375.10098075849873567
33.009497869018190385759 2469.98942954915492010 33.009497869018190385759 374.94984067047948884
34.009497869018190385759 2478.39478453596029794 34.009497869018190385759 374.65442356994520878
35.009497869018190385759 2486.48434012398865889 35.009497869018190385759 374.58361420000960607
36.009497869018190385759 2494.27921088999664789 36.009497869018190385759 374.57324858690759584
37.009497869018190385759 2501.79139614892937971 37.009497869018190385759 374.43321838710602378
38.009497869018190385759 2509.02960325315598311 38.009497869018190385759 374.10157130096712308
39.009497869018190385759 2516.02349808941062292 39.009497869018190385759 373.57951859484330726
40.009497869018190385759 2522.79689286853363228 40.009497869018190385759 372.85298719145788482
41.009497869018190385759 2529.36906810414075153 41.009497869018190385759 372.43547160483825564
42.009497869018190385759 2535.73440528590936083 42.009497869018190385759 371.64888752097317592
43.009497869018190385759 2541.89738217452759272 43.009497869018190385759 371.12345587602015939
44.009497869018218807469 2547.85940075019925644 44.009497869018218807469 370.65571309797473987
46.009497869018190385759 2559.23145142627936366 46.009497869018190385759 369.38580195258992944
48.009497869018190385759 2569.86898504421515099 48.009497869018190385759 368.08797643710846614
50.009497869018190385759 2579.89225889982935769 50.009497869018190385759 366.94338372306344809
52.009497869018190385759 2589.40101949897780287 52.009497869018190385759 366.13599235801353871
54.009497869018190385759 2598.41126732343354888 54.009497869018190385759 365.37052376682129307
56.009497869018190385759 2606.94266702585173334 56.009497869018190385759 365.03608276384494502
58.009497869018218807469 2615.05484163185019497 58.009497869018218807469 364.73289775275367219
60.009497869018190385759 2622.84291244635232943 60.009497869018190385759 364.30449118677614706
62.009497869018190385759 2630.28157255634323519 62.009497869018190385759 363.81487106039224955
64.009497869018190385759 2637.39553249388609402 64.009497869018190385759 363.41621163605100264
66.009497869018190385759 2644.20134357991946672 66.009497869018190385759 362.97675924396929759
68.009497869018190385759 2650.70855090000941345 68.009497869018190385759 362.07146157572691436
70.009497869018190385759 2656.91700261325831889 70.009497869018190385759 361.36729323014509418
72.009497869018218807469 2662.86339941618871308 72.009497869018218807469 359.48550685287546003
74.009497869018190385759 2668.57636275874301646 74.009497869018190385759 357.82899486873719752
76.009497869018190385759 2674.07711969015463183 76.009497869018190385759 356.44686278112209266
78.009497869018190385759 2679.35681308057110073 78.009497869018190385759 354.63313886445411072
80.009497869018190385759 2684.41540731486111326 80.009497869018190385759 353.43811751287285006
82.009497869018218807469 2689.25785920553516917 82.009497869018218807469 352.33698871896200444
84.009497869018190385759 2693.90058419730257810 84.009497869018190385759 350.79142847406910732
86.009497869018190385759 2698.30559382401452240 86.009497869018190385759 349.09626799973318612
88.009497869018190385759 2702.51926043496723651 88.009497869018190385759 348.00662804620634461
91.009497869018218807469 2708.55940032067610446 91.009497869018218807469 347.05215749384069568
94.009497869018190385759 2714.34588841730555941 94.009497869018190385759 346.43404778928618271
97.009497869018190385759 2719.89844672634581002 97.009497869018190385759 346.41043281322021130
99.504748934509109403734 2724.33604532021172417 99.504748934509109403734 338.23874576773079070
nan nan nan nan

