Time Pressure difference Time.1 Pressure.1 difference.1
(hr) (psi) (hr) (psi)
0.000200000000006639311 0.73014894395249863 0.000200000000006639311 0.58309154357649273
0.000399999999999067768 1.45772244176983734 0.000399999999999067768 1.51624786829267544
0.000600000000005707079 2.18316813013792377 0.000600000000005707079 2.21377630440942230
0.000799999999998135536 2.90669299434105133 0.000799999999998135536 2.92117331435615846
0.001007140329434719206 3.65416163269947258 0.001007140329434719206 3.66094063895828326
0.001267914553963578328 4.59260088792713006 0.001267914553963578328 4.59494736762736000
0.001596209851982166583 5.77018532674118845 0.001596209851982166583 5.76391303828121160
0.002009509145210586212 7.24693708720065111 0.002009509145210586212 7.22530548861862432
0.002529822128138903281 9.09749227659436066 0.002529822128138903281 9.04983296755339062
0.003184857364445292660 11.41443009122538577 0.003184857364445292660 11.32409552896290883
0.004009497869020606231 14.31225915470260723 0.004009497869020606231 14.15355593448357396
0.005047658755842121536 17.93211313550250452 0.005047658755842121536 17.66575374149990552
0.006354625877804664924 22.44721468476049608 0.006354625877804664924 22.01360768548865821
0.008000000000009777068 28.06908797494228125 0.008000000000009777068 27.37851813513027111
0.010071403294347192059 35.05444548734601540 0.010071403294347192059 33.97282497942315871
0.012679145539692626699 43.71252361148214760 0.012679145539692626699 42.04083643085940736
0.015962098519750611558 54.41243008944135795 0.015962098519750611558 51.85743047906068171
0.020095091452091651263 67.58981633708070547 0.020095091452091651263 63.72283113957318079
0.025298221281346400247 83.75179157439023925 0.025298221281346400247 77.95155440006385561
0.031848573644282396344 103.47846554621818882 0.031848573644282396344 94.85308960221567531
0.040094978690191851456 127.41891261028352744 0.040094978690191851456 114.70140582721499811
0.050476587558421215363 156.27860097881597312 0.050476587558421215363 137.69276784180991058
0.063546258777947173257 190.79584098628066613 0.063546258777947173257 163.88606387843694279
0.079999999999998294697 231.70163017104599135 0.079999999999998294697 193.13054813358840534
0.100714032943542974863 279.66271595030730168 0.100714032943542974863 224.99044549510779234
0.126791455396897845276 335.20662452335312764 0.126791455396897845276 258.66335696251752552
0.159620985197506115583 398.62710943952288289 0.159620985197506115583 292.94491972409025493
0.200950914520774404082 469.89295390844785061 0.200950914520774404082 326.23800759626487888
0.252982212813464002465 548.55786342283386148 0.252982212813464002465 356.66979012019095308
0.318485736442795541734 633.72351531746096498 0.318485736442795541734 382.31278236998497277
0.400949786901819038576 724.05171301961138397 0.400949786901819038576 401.50053445359515081
0.504765875584169521062 817.87318972413754636 0.504765875584169521062 413.18562597021525562
0.635462587779443310865 913.36468007489679621 0.635462587779443310865 417.19546631094294753
0.799999999999997157829 1008.77499612789381445 0.799999999999997157829 414.31207258733928711
1.007140329435330272645 1102.63759899875094561 1.007140329435330272645 406.12058656301121573
1.267914553968893187630 1193.92502967848599837 1.267914553968893187630 394.65771005713037312
1.596209851975103788391 1282.09751473337246352 1.596209851975103788391 381.97098075816489882
2.009509145207687197399 1367.05269453488085674 2.009509145207687197399 369.77894460579506131
2.529822128134711078928 1449.01636203377597667 2.529822128134711078928 359.25989154501439771
3.184857364427983839050 1528.39440422300367572 3.184857364427983839050 351.00964347343023064
4.009497869018190385759 1605.64402822378224300 4.009497869018190385759 345.13338365615948078
5.009497869018190385759 1678.70801098766060022 5.009497869018190385759 341.45957119904784349
6.009497869018190385759 1737.42351376085684933 6.009497869018190385759 339.69561633398745926
7.009497869018204596614 1786.44551116915476996 7.009497869018204596614 338.88828244969926118
8.009497869018190385759 1828.45833604958625074 8.009497869018190385759 338.68502254986310618
9.009497869018204596614 1865.18729195176319990 9.009497869018204596614 338.74751001890717816
10.009497869018190385759 1897.73289812285338485 10.009497869018190385759 338.83247069919951855
11.009497869018190385759 1926.94962127874418911 11.009497869018190385759 338.85759019075709375
12.009497869018190385759 1953.37461167442074839 12.009497869018190385759 339.11864010747314069
13.009497869018190385759 1977.46874578176334580 13.009497869018190385759 339.23541030827379927
14.009497869018204596614 1999.62605716415896495 14.009497869018204596614 339.29246254816098372
15.009497869018190385759 2020.06421192980042179 15.009497869018190385759 339.50679908146793196
16.009497869018190385759 2039.00857160816099167 16.009497869018190385759 339.50810180997717680
17.009497869018190385759 2056.67890851110678341 17.009497869018190385759 339.25801323315937452
18.009497869018190385759 2073.18595676839049702 18.009497869018190385759 339.34724931595440012
19.009497869018204596614 2088.63255161653023606 19.009497869018204596614 339.33454083810090651
20.009497869018190385759 2103.15525184412035742 20.009497869018190385759 339.34002340051563351
21.009497869018204596614 2116.90131439091010179 21.009497869018204596614 339.14988874508298977
22.009497869018190385759 2129.90588808700795198 22.009497869018190385759 339.06238376381503485
23.009497869018190385759 2142.22034159999930125 23.009497869018190385759 339.54104809103017715
24.009497869018190385759 2153.88187666095154782 24.009497869018190385759 339.60012482842228110
25.009497869018190385759 2164.97408885104869114 25.009497869018190385759 339.59106239010850459
26.009497869018204596614 2175.59598547536143087 26.009497869018204596614 339.75980948522061453
27.009497869018190385759 2185.75878969775749283 27.009497869018190385759 339.65632438117353331
28.009497869018190385759 2195.47031258025663192 28.009497869018190385759 339.77708124266285949
29.009497869018190385759 2204.75989389836422561 29.009497869018190385759 340.16877173540916601
30.009497869018190385759 2213.64066690834988549 30.009497869018190385759 340.19025346523864073
31.009497869018190385759 2222.15801711754738790 31.009497869018190385759 340.06582714195701556
32.009497869018190385759 2230.35978575254966927 32.009497869018190385759 339.91109493476324133
33.009497869018190385759 2238.26877172547119699 33.009497869018190385759 339.77413396840353244
34.009497869018190385759 2245.88558310011285357 34.009497869018190385759 339.50643125565136415
35.009497869018190385759 2253.21622161751156455 35.009497869018190385759 339.44226482660661759
36.009497869018190385759 2260.27982100237795748 36.009497869018190385759 339.43287165762041013
37.009497869018190385759 2267.08725486073080901 37.009497869018190385759 339.30597831161463773
38.009497869018190385759 2273.64641366961222957 38.009497869018190385759 339.00544450881454850
39.009497869018190385759 2279.98418022741407185 39.009497869018190385759 338.53236788130647028
40.009497869018190385759 2286.12213281591812120 40.009497869018190385759 337.87399560957885569
41.009497869018190385759 2292.07774315828828549 41.009497869018190385759 337.49564901098227665
42.009497869018190385759 2297.84591984156122635 42.009497869018190385759 336.78285786694374337
43.009497869018190385759 2303.43072054784488500 43.009497869018190385759 336.30671929383680663
44.009497869018218807469 2308.83341573136613079 44.009497869018218807469 335.88285753929875455
46.009497869018190385759 2319.13860392134029098 46.009497869018190385759 334.73208238796553360
48.009497869018190385759 2328.77818335450047016 48.009497869018190385759 333.55601163733854264
50.009497869018190385759 2337.86112945664945073 50.009497869018190385759 332.51879823976571515
52.009497869018190385759 2346.47783107175428086 52.009497869018190385759 331.78715183782878739
54.009497869018190385759 2354.64278760546221747 54.009497869018190385759 331.09349524849062618
56.009497869018190385759 2362.37381888218897075 56.009497869018190385759 330.79042963857705217
58.009497869018218807469 2369.72495442721265135 58.009497869018218807469 330.51568775739224293
60.009497869018190385759 2376.78239179416868865 60.009497869018190385759 330.12747191049095363
62.009497869018190385759 2383.52319822373783609 62.009497869018190385759 329.68378521864411823
64.009497869018190385759 2389.96976604342899009 64.009497869018190385759 329.32252580215339322
66.009497869018190385759 2396.13709382139086301 66.009497869018190385759 328.92430038706083906
68.009497869018190385759 2402.03383117640032651 68.009497869018190385759 328.10393270625155537
70.009497869018190385759 2407.65984051242685382 70.009497869018190385759 327.46582551473971989
72.009497869018218807469 2413.04837947095893469 72.009497869018218807469 325.76057785946142076
74.009497869018190385759 2418.22538439684012701 74.009497869018190385759 324.25947060785568965
76.009497869018190385759 2423.21009093571728954 76.009497869018190385759 323.00700245835707847
78.009497869018190385759 2427.99447288435248993 78.009497869018190385759 321.36343202253112850
80.009497869018190385759 2432.57849796882783266 80.009497869018190385759 320.28052092145901497
82.009497869018218807469 2436.96665798109825118 82.009497869018218807469 319.28269390099757175
84.009497869018190385759 2441.17382836023625714 84.009497869018190385759 317.88212951413066776
86.009497869018190385759 2445.16558450650427403 86.009497869018190385759 316.34599955852110043
88.009497869018190385759 2448.98394837354226183 88.009497869018190385759 315.35858355939728881
91.009497869018218807469 2454.45743596069496562 91.009497869018218807469 314.49365612070721454
94.009497869018190385759 2459.70106795753781626 94.009497869018190385759 313.93353402761090365
97.009497869018190385759 2464.73271615717294480 97.009497869018190385759 313.91213447713460027
99.504748934509109403734 2468.75400395511996976 99.504748934509109403734 306.50706961838699272
nan nan nan nan

