Time Pressure difference Time.1 Pressure.1 difference.1
(hr) (psi) (hr) (psi)
0.000200000000006639311 0.25252022634989713 0.000200000000006639311 0.20166078412656860
0.000399999999999067768 0.50414974095339082 0.000399999999999067768 0.52439061656538499
0.000600000000005707079 0.75504335786340027 0.000600000000005707079 0.76562912006878769
0.000799999999998135536 1.00527266243422031 0.000799999999998135536 1.01028064569314235
0.001007140329434719206 1.26378286273110318 0.001007140329434719206 1.26612736546452576
0.001267914553963578328 1.58833978376546936 0.001267914553963578328 1.58915130803039517
0.001596209851982166583 1.99560448160332315 0.001596209851982166583 1.99343522598121581
0.002009509145210586212 2.50633546588054390 0.002009509145210586212 2.49885423042100330
0.002529822128138903281 3.14634545174594527 0.002529822128138903281 3.12986259628695196
0.003184857364445292660 3.94765272779581045 0.003184857364445292660 3.91641074039217818
0.004009497869020606231 4.94985982142160807 0.004009497869020606231 4.89497270089079262
0.005047658755842121536 6.20177746665843177 0.005047658755842121536 6.10965772174740707
0.006354625877804664924 7.76331429370556414 0.006354625877804664924 7.61335237359334727
0.008000000000009777068 9.70762542023032182 0.008000000000009777068 9.46879353023845383
0.010071403294347192059 12.12349422998087434 0.010071403294347192059 11.74941842291768168
0.012679145539692626699 15.11786937188916191 0.012679145539692626699 14.53972044935297170
0.015962098519750611558 18.81840585573398528 0.015962098519750611558 17.93476548991404584
0.020095091452091651263 23.37577265810299565 0.020095091452091651263 22.03838528604123681
0.025298221281346400247 28.96535226236021998 0.025298221281346400247 26.95935442277521332
0.031848573644282396344 35.78777420483541505 0.031848573644282396344 32.80470903193806720
0.040094978690191851456 44.06751926453491564 0.040094978690191851456 39.66920065014033980
0.050476587558421215363 54.04857189711041343 0.050476587558421215363 47.62070696690582139
0.063546258777947173257 65.98627492585816867 0.063546258777947173257 56.67959433338433684
0.079999999999998294697 80.13344206143115400 0.079999999999998294697 66.79372768215117162
0.100714032943542974863 96.72066626722801175 0.100714032943542974863 77.81239525655604439
0.126791455396897845276 115.93039118896398065 0.126791455396897845276 89.45808932492072074
0.159620985197506115583 137.86421077316830974 0.159620985197506115583 101.31428395463417758
0.200950914520774404082 162.51132876924702941 0.200950914520774404082 112.82861696162062515
0.252982212813464002465 189.71739531347157026 0.252982212813464002465 123.35337451255750807
0.318485736442795541734 219.17172770933802894 0.318485736442795541734 132.22194066038161964
0.400949786901819038576 250.41151394534912811 0.400949786901819038576 138.85797778599877006
0.504765875584169521062 282.85944217990652305 0.504765875584169521062 142.89923810573995411
0.635462587779443310865 315.88494054922483656 0.635462587779443310865 144.28603157966625758
0.799999999999997157829 348.88236498621125747 0.799999999999997157829 143.28881691302746049
1.007140329435330272645 381.34451660480124247 1.007140329435330272645 140.45581150757155342
1.267914553968893187630 412.91605121986322047 1.267914553968893187630 136.49140370576520809
1.596209851975103788391 443.41028950960776456 1.596209851975103788391 132.10372940896715477
2.009509145207687197399 472.79183064687578053 2.009509145207687197399 127.88714352691887655
2.529822128134711078928 501.13876457140833054 2.529822128134711078928 124.24915475504479900
3.184857364427983839050 528.59146630693192037 3.184857364427983839050 121.39582663927508577
4.009497869018190385759 555.30805981800881455 4.009497869018190385759 119.36353655457619993
5.009497869018190385759 580.57705954522054981 5.009497869018190385759 118.09295750228730526
6.009497869018190385759 600.88367256348169576 6.009497869018190385759 117.48289802677155080
7.009497869018204596614 617.83781046123215219 7.009497869018204596614 117.20368357759792843
8.009497869018190385759 632.36784318438481023 8.009497869018190385759 117.13338663840544029
9.009497869018204596614 645.07046274554716092 9.009497869018204596614 117.15499777673241510
10.009497869018190385759 656.32628103452498181 10.009497869018190385759 117.18438122020097580
11.009497869018190385759 666.43081327501499800 11.009497869018190385759 117.19306873491487409
12.009497869018190385759 675.56983156885542030 12.009497869018190385759 117.28335221009308498
13.009497869018190385759 683.90272891655979492 13.009497869018190385759 117.32373689842461317
14.009497869018204596614 691.56578086223464652 14.009497869018204596614 117.34346827604203156
15.009497869018190385759 698.63426669699583726 15.009497869018190385759 117.41759604182736609
16.009497869018190385759 705.18612715458584717 16.009497869018190385759 117.41804658729584787
17.009497869018190385759 711.29736995150904022 17.009497869018190385759 117.33155406471040294
18.009497869018190385759 717.00629221568897265 18.009497869018190385759 117.36241614567704517
19.009497869018204596614 722.34845926214472911 19.009497869018204596614 117.35802094969588438
20.009497869018190385759 727.37109961389376167 20.009497869018190385759 117.35991708049688498
21.009497869018204596614 732.12514172336364027 21.009497869018204596614 117.29415947497751915
22.009497869018190385759 736.62274172747481771 22.009497869018190385759 117.26389609123978630
23.009497869018190385759 740.88166535426591963 23.009497869018190385759 117.42944097801270686
24.009497869018190385759 744.91477873143264787 24.009497869018190385759 117.44987252314034265
25.009497869018190385759 748.75099318625575506 25.009497869018190385759 117.44673830101591250
26.009497869018204596614 752.42455015302607535 26.009497869018204596614 117.50509907111157304
27.009497869018190385759 755.93933113551554470 27.009497869018190385759 117.46930900099746964
28.009497869018190385759 759.29803757041872814 28.009497869018190385759 117.51107246617689839
29.009497869018190385759 762.51081654732968218 29.009497869018190385759 117.64653766503342069
30.009497869018190385759 765.58221017080597903 30.009497869018190385759 117.65396706875148425
31.009497869018190385759 768.52791490754759707 31.009497869018190385759 117.61093452918650826
32.009497869018190385759 771.36447652875449421 32.009497869018190385759 117.55742077379753141
33.009497869018190385759 774.09977998241572550 33.009497869018190385759 117.51005315858324707
34.009497869018190385759 776.73403556590926655 34.009497869018190385759 117.41746883016838865
35.009497869018190385759 779.26931896669339039 35.009497869018190385759 117.39527702763186312
36.009497869018190385759 781.71224753665865137 36.009497869018190385759 117.39202842311330244
37.009497869018190385759 784.06658188584992786 37.009497869018190385759 117.34814266977343777
38.009497869018190385759 786.33505091645292850 38.009497869018190385759 117.24420378916909158
39.009497869018190385759 788.52695197853688569 39.009497869018190385759 117.08059139467255250
40.009497869018190385759 790.64974786807636065 40.009497869018190385759 116.85289495484865085
41.009497869018190385759 792.70948113779252253 41.009497869018190385759 116.72204470914519447
42.009497869018190385759 794.70439093496543137 42.009497869018190385759 116.47552763543900767
43.009497869018190385759 796.63588059902724581 43.009497869018190385759 116.31085627454650933
44.009497869018218807469 798.50438951346438898 44.009497869018218807469 116.16426472348901200
46.009497869018190385759 802.06841364287527085 46.009497869018190385759 115.76627195215189658
48.009497869018190385759 805.40223861179526921 48.009497869018190385759 115.35953075967111658
50.009497869018190385759 808.54355330468877128 50.009497869018190385759 115.00081304310442931
52.009497869018190385759 811.52361848215389273 52.009497869018190385759 114.74777492457330652
54.009497869018190385759 814.34744872816895622 54.009497869018190385759 114.50787548980790120
56.009497869018190385759 817.02120698542148602 56.009497869018190385759 114.40306098990606642
58.009497869018218807469 819.56357923307473357 58.009497869018218807469 114.30804218230630909
60.009497869018190385759 822.00437668421761828 60.009497869018190385759 114.17377868121643303
62.009497869018190385759 824.33566810013235227 62.009497869018190385759 114.02033072408171677
64.009497869018190385759 826.56519781251699897 64.009497869018190385759 113.89539003851494670
66.009497869018190385759 828.69815303947984830 66.009497869018190385759 113.75766475274915024
68.009497869018190385759 830.73752523051837215 68.009497869018190385759 113.47394259692885043
70.009497869018190385759 832.68326679838207838 70.009497869018190385759 113.25325478553000380
72.009497869018218807469 834.54687981703239075 72.009497869018218807469 112.66349905492180028
74.009497869018190385759 836.33733430789482099 74.009497869018190385759 112.14434478360422531
76.009497869018190385759 838.06128287196600013 76.009497869018190385759 111.71118173758878811
78.009497869018190385759 839.71594966648819991 78.009497869018190385759 111.14275692246809513
80.009497869018190385759 841.30132352960606568 80.009497869018190385759 110.76823476692098325
82.009497869018218807469 842.81895793658009097 82.009497869018218807469 110.42313873254067857
84.009497869018190385759 844.27399752162887125 84.009497869018190385759 109.93875696506907502
86.009497869018190385759 845.65453662113452538 86.009497869018190385759 109.40749017723595671
88.009497869018190385759 846.97510842497933936 88.009497869018190385759 109.06599476912033708
91.009497869018218807469 848.86810071905722452 91.009497869018218807469 108.76686173002842395
94.009497869018190385759 850.68159801944420906 94.009497869018190385759 108.57314487416803672
97.009497869018190385759 852.42178124207134715 97.009497869018190385759 108.56574389197828623
99.504748934509109403734 853.81253379107670298 99.504748934509109403734 106.00472032308265113
nan nan nan nan

