Time Pressure difference Time.1 Pressure.1 difference.1
(hr) (psi) (hr) (psi)
0.000200000000006639311 0.40286944006480302 0.000200000000006639311 0.32172855362297953
0.000399999999999067768 0.80431784329735045 0.000399999999999067768 0.83661002971780163
0.000600000000005707079 1.20459219922285898 0.000600000000005707079 1.22148066853079618
0.000799999999998135536 1.60380671473880532 0.000799999999998135536 1.61179642487228314
0.001007140329434719206 2.01623252771245065 0.001007140329434719206 2.01997293503386510
0.001267914553963578328 2.53402893133635754 0.001267914553963578328 2.53532363287743978
0.001596209851982166583 3.18377688676845993 0.001596209851982166583 3.18031606776608422
0.002009509145210586212 3.99859441102652502 0.002009509145210586212 3.98665888734929785
0.002529822128138903281 5.01966297400257755 0.002529822128138903281 4.99336631315517021
0.003184857364445292660 6.29806438480581576 0.003184857364445292660 6.24822108253357378
0.004009497869020606231 7.89698030720223532 0.004009497869020606231 7.80941368398695612
0.005047658755842121536 9.89428312937282683 0.005047658755842121536 9.74731577318254061
0.006354625877804664924 12.38555076462894178 0.006354625877804664924 12.14630230655517629
0.008000000000009777068 15.48749450267008498 0.008000000000009777068 15.10646336238700904
0.010071403294347192059 19.34175888664712062 0.010071403294347192059 18.74496031287853626
0.012679145539692626699 24.11896922817843247 0.012679145539692626699 23.19659348005325938
0.015962098519750611558 30.02278565799665344 0.015962098519750611558 28.61303046910628822
0.020095091452091651263 37.29358466835511621 0.020095091452091651263 35.15992389384868488
0.025298221281346400247 46.21117055014705954 0.025298221281346400247 43.01081215475650765
0.031848573644282396344 57.09562660968807535 0.031848573644282396344 52.33646013319067691
0.040094978690191851456 70.30508830032708545 0.040094978690191851456 63.28803393196732685
0.050476587558421215363 86.22880713848206824 0.050476587558421215363 75.97382525970172651
0.063546258777947173257 105.27415572053028825 0.063546258777947173257 90.42632648582697641
0.079999999999998294697 127.84447170984904574 0.079999999999998294697 106.56236159816880615
0.100714032943542974863 154.30764190659732549 0.100714032943542974863 124.14148585338712394
0.126791455396897845276 184.95473594291954100 0.126791455396897845276 142.72096487692942901
0.159620985197506115583 219.94783626640341367 0.159620985197506115583 161.63627538814992590
0.200950914520774404082 259.26971859567373713 0.200950914520774404082 180.00618166574341217
0.252982212813464002465 302.67413397050557933 0.252982212813464002465 196.79732446904733933
0.318485736442795541734 349.66542085206884849 0.318485736442795541734 210.94618822462197727
0.400949786901819038576 399.50521139307340945 0.400949786901819038576 221.53328692832045022
0.504765875584169521062 451.27246531991664824 0.504765875584169521062 227.98069237264436993
0.635462587779443310865 503.96117159991462131 0.635462587779443310865 230.19317538203335971
0.799999999999997157829 556.60508887602782124 0.799999999999997157829 228.60222435137603725
1.007140329435330272645 608.39503471489672393 1.007140329435330272645 224.08246243806647158
1.267914553968893187630 658.76409487379487473 1.267914553968893187630 217.75766709636886276
1.596209851975103788391 707.41444214526245560 1.596209851975103788391 210.75759461627984592
2.009509145207687197399 754.28959823596960632 2.009509145207687197399 204.03047569261730132
2.529822128134711078928 799.51414742477982145 2.529822128134711078928 198.22644755327871735
3.184857364427983839050 843.31204328573016937 3.184857364427983839050 193.67426289489611690
4.009497869018190385759 885.93555595965221983 4.009497869018190385759 190.43195799003115098
5.009497869018190385759 926.24958512971033997 5.009497869018190385759 188.40488285726758022
6.009497869018190385759 958.64664866213377081 6.009497869018190385759 187.43159718086909038
7.009497869018204596614 985.69519103189986708 7.009497869018204596614 186.98613991820721481
8.009497869018190385759 1008.87632876456120812 8.009497869018190385759 186.87398855140341425
9.009497869018204596614 1029.14202115654734371 9.009497869018204596614 186.90846684774743380
10.009497869018190385759 1047.09949441363346523 10.009497869018190385759 186.95534503880747934
11.009497869018190385759 1063.22021196836271884 11.009497869018190385759 186.96920505405824997
12.009497869018190385759 1077.80055365425960190 12.009497869018190385759 187.11324283518140987
13.009497869018190385759 1091.09481422543262852 13.009497869018190385759 187.17767235439453088
14.009497869018204596614 1103.32040696770991417 14.009497869018204596614 187.20915169039599846
15.009497869018190385759 1114.59743206593088871 15.009497869018190385759 187.32741473778381192
16.009497869018190385759 1125.05023575649397571 16.009497869018190385759 187.32813353565290981
17.009497869018190385759 1134.80008035026958169 17.009497869018190385759 187.19014382034390565
18.009497869018190385759 1143.90806488358271054 18.009497869018190385759 187.23938102188608923
19.009497869018204596614 1152.43093007282982398 19.009497869018204596614 187.23236894935033092
20.009497869018190385759 1160.44402405506070863 20.009497869018190385759 187.23539402645062069
21.009497869018204596614 1168.02859781523466154 21.009497869018204596614 187.13048468869769181
22.009497869018190385759 1175.20404519021485612 22.009497869018190385759 187.08220264556348411
23.009497869018190385759 1181.99870952900982957 23.009497869018190385759 187.34631208663211055
24.009497869018190385759 1188.43311738402894662 24.009497869018190385759 187.37890846619430363
25.009497869018190385759 1194.55339373465153585 25.009497869018190385759 187.37390814471288536
26.009497869018204596614 1200.41416718492632754 26.009497869018204596614 187.46701661016155072
27.009497869018190385759 1206.02163026554285352 27.009497869018190385759 187.40991732067027442
28.009497869018190385759 1211.38009283438532293 28.009497869018190385759 187.47654653320986995
29.009497869018190385759 1216.50574350478586894 29.009497869018190385759 187.69266699849083579
30.009497869018190385759 1221.40582872645040879 30.009497869018190385759 187.70451983008049979
31.009497869018190385759 1226.10539055973868017 31.009497869018190385759 187.63586594294557131
32.009497869018190385759 1230.63082604094051931 32.009497869018190385759 187.55049037924936783
33.009497869018190385759 1234.99471477457746005 33.009497869018190385759 187.47492033523974442
34.009497869018190385759 1239.19739226798014897 34.009497869018190385759 187.32721178497260439
35.009497869018190385759 1243.24217006199432944 35.009497869018190385759 187.29180710000480303
36.009497869018190385759 1247.13960544499832395 36.009497869018190385759 187.28662429345379792
37.009497869018190385759 1250.89569807446468985 37.009497869018190385759 187.21660919355301189
38.009497869018190385759 1254.51480162657799156 38.009497869018190385759 187.05078565048356154
39.009497869018190385759 1258.01174904470531146 39.009497869018190385759 186.78975929742165363
40.009497869018190385759 1261.39844643426681614 40.009497869018190385759 186.42649359572894241
41.009497869018190385759 1264.68453405207037576 41.009497869018190385759 186.21773580241912782
42.009497869018190385759 1267.86720264295468041 42.009497869018190385759 185.82444376048658796
43.009497869018190385759 1270.94869108726379636 43.009497869018190385759 185.56172793801007970
44.009497869018218807469 1273.92970037509962822 44.009497869018218807469 185.32785654898736993
46.009497869018190385759 1279.61572571313968183 46.009497869018190385759 184.69290097629496472
48.009497869018190385759 1284.93449252210757550 48.009497869018190385759 184.04398821855423307
50.009497869018190385759 1289.94612944991467884 50.009497869018190385759 183.47169186153172404
52.009497869018190385759 1294.70050974948890143 52.009497869018190385759 183.06799617900676935
54.009497869018190385759 1299.20563366171677444 54.009497869018190385759 182.68526188341064653
56.009497869018190385759 1303.47133351292586667 56.009497869018190385759 182.51804138192247251
58.009497869018218807469 1307.52742081592509749 58.009497869018218807469 182.36644887637683610
60.009497869018190385759 1311.42145622317616471 60.009497869018190385759 182.15224559338807353
62.009497869018190385759 1315.14078627817161760 62.009497869018190385759 181.90743553019612477
64.009497869018190385759 1318.69776624694304701 64.009497869018190385759 181.70810581802550132
66.009497869018190385759 1322.10067178995973336 66.009497869018190385759 181.48837962198464879
68.009497869018190385759 1325.35427545000470673 68.009497869018190385759 181.03573078786345718
70.009497869018190385759 1328.45850130662915944 70.009497869018190385759 180.68364661507254709
72.009497869018218807469 1331.43169970809435654 72.009497869018218807469 179.74275342643773001
74.009497869018190385759 1334.28818137937150823 74.009497869018190385759 178.91449743436859876
76.009497869018190385759 1337.03855984507731591 76.009497869018190385759 178.22343139056104633
78.009497869018190385759 1339.67840654028555036 78.009497869018190385759 177.31656943222705536
80.009497869018190385759 1342.20770365743055663 80.009497869018190385759 176.71905875643642503
82.009497869018218807469 1344.62892960276758458 82.009497869018218807469 176.16849435948100222
84.009497869018190385759 1346.95029209865128905 84.009497869018190385759 175.39571423703455366
86.009497869018190385759 1349.15279691200726120 86.009497869018190385759 174.54813399986659306
88.009497869018190385759 1351.25963021748361825 88.009497869018190385759 174.00331402310317230
91.009497869018218807469 1354.27970016033805223 91.009497869018218807469 173.52607874692034784
94.009497869018190385759 1357.17294420865277971 94.009497869018190385759 173.21702389464309135
97.009497869018190385759 1359.94922336317290501 97.009497869018190385759 173.20521640661010565
99.504748934509109403734 1362.16802266010586209 99.504748934509109403734 169.11937288386539535
nan nan nan nan

