Time Pressure difference Time.1 Pressure.1 difference.1
(hr) (psi) (hr) (psi)
0.000200000000006639311 0.55072667786178220 0.000200000000006639311 0.43980624959182563
0.000399999999999067768 1.09951078372400701 0.000399999999999067768 1.14365453546990214
0.000600000000005707079 1.64668995481392888 0.000600000000005707079 1.66977666646581002
0.000799999999998135536 2.19242031313778973 0.000799999999998135536 2.20334232925839935
0.001007140329434719206 2.75621065128526732 0.001007140329434719206 2.76132382665454124
0.001267914553963578328 3.46404367314640194 0.001267914553963578328 3.46581354350050042
0.001596209851982166583 4.35225582665461630 0.001596209851982166583 4.34752485139982259
0.002009509145210586212 5.46611978249605368 0.002009509145210586212 5.44980379858264907
0.002529822128138903281 6.86193103456434716 0.002529822128138903281 6.82598322808634617
0.003184857364445292660 8.60951894252836070 0.003184857364445292660 8.54138263447373092
0.004009497869020606231 10.79525349211357010 0.004009497869020606231 10.67554901542959023
0.005047658755842121536 13.52558704077151397 0.005047658755842121536 13.32468114973200990
0.006354625877804664924 16.93117558133812040 0.006354625877804664924 16.60412047267233149
0.008000000000009777068 21.17156465004178401 0.008000000000009777068 20.65069115311873915
0.010071403294347192059 26.44038379762276492 0.010071403294347192059 25.62455399471849304
0.012679145539692626699 32.97087958408721420 0.012679145539692626699 31.70998242737177364
0.015962098519750611558 41.04145750773562895 0.015962098519750611558 39.11430763096385732
0.020095091452091651263 50.98071471158647938 0.020095091452091651263 48.06397843633335754
0.025298221281346400247 63.17114654587113165 0.025298221281346400247 58.79622362598673391
0.031848573644282396344 78.05031019015092397 0.031848573644282396344 71.54448055320703759
0.040094978690191851456 96.10778050127187555 0.040094978690191851456 86.51539483895739124
0.050476587558421215363 117.87566831507960785 0.050476587558421215363 103.85700236532422025
0.063546258777947173257 143.91085617053934698 0.063546258777947173257 123.61372053629543188
0.079999999999998294697 174.76471081160806875 0.079999999999998294697 145.67184688574417351
0.100714032943542974863 210.94013728675056996 0.100714032943542974863 169.70269097071269471
0.126791455396897845276 252.83503078382605622 0.126791455396897845276 195.10103033691592600
0.159620985197506115583 300.67095967964013425 0.159620985197506115583 220.95845480895545165
0.200950914520774404082 354.42437820398288295 0.200950914520774404082 246.07030607090283070
0.252982212813464002465 413.75866148957777568 0.252982212813464002465 269.02397138758431083
0.318485736442795541734 477.99623510293127993 0.318485736442795541734 288.36561400602965932
0.400949786901819038576 546.12774258475815259 0.400949786901819038576 302.83828707933292890
0.504765875584169521062 616.89411238578293251 0.504765875584169521062 311.65195678982104255
0.635462587779443310865 688.92011705307925240 0.635462587779443310865 314.67644387275896634
0.799999999999997157829 760.88489469032265333 0.799999999999997157829 312.50159741229344945
1.007140329435330272645 831.68228456902375001 1.007140329435330272645 306.32303628131558071
1.267914553968893187630 900.53730907489898527 1.267914553968893187630 297.67697584513928177
1.596209851975103788391 967.04283534496687480 1.596209851975103788391 288.10780459916190921
2.009509145207687197399 1031.12165696999568354 2.009509145207687197399 278.91176367877375242
2.529822128134711078928 1092.94408194356492459 2.529822128134711078928 270.97759737695628246
3.184857364427983839050 1152.81625711018364200 3.184857364427983839050 264.75471401920844983
4.009497869018190385759 1211.08303835309175156 4.009497869018190385759 260.32244978843431227
5.009497869018190385759 1266.19273183710902231 5.009497869018190385759 257.55141718426472153
6.009497869018190385759 1310.47985167627780356 6.009497869018190385759 256.22092563075506177
7.009497869018204596614 1347.45548794670025927 7.009497869018204596614 255.61198096035334970
8.009497869018190385759 1379.14434220804969300 8.009497869018190385759 255.45866888573294773
9.009497869018204596614 1406.84775263255869504 9.009497869018204596614 255.50580107228157090
10.009497869018190385759 1431.39580370358567052 10.009497869018190385759 255.56988404274090954
11.009497869018190385759 1453.43299079386497397 11.009497869018190385759 255.58883082647554374
12.009497869018190385759 1473.36446819128673269 12.009497869018190385759 255.78573195819643615
13.009497869018190385759 1491.53785944631295024 13.009497869018190385759 255.87380777518265518
14.009497869018204596614 1508.25037076204466757 14.009497869018204596614 255.91684035202584369
15.009497869018190385759 1523.66618032930364279 15.009497869018190385759 256.07850715701169975
16.009497869018190385759 1537.95527073516609562 16.009497869018190385759 256.07948976110901640
17.009497869018190385759 1551.28340880871883201 17.009497869018190385759 255.89085639770723901
18.009497869018190385759 1563.73411756250607141 18.009497869018190385759 255.95816415981539649
19.009497869018204596614 1575.38496214079623314 19.009497869018204596614 255.94857858436961351
20.009497869018190385759 1586.33894422372236477 20.009497869018190385759 255.95271389595211531
21.009497869018204596614 1596.70713474536228205 21.009497869018204596614 255.80930174970421831
22.009497869018190385759 1606.51604528064399346 22.009497869018190385759 255.74329969898676040
23.009497869018190385759 1615.80442147986286727 23.009497869018190385759 256.10434002770534789
24.009497869018190385759 1624.60032335177561436 24.009497869018190385759 256.14889961461199164
25.009497869018190385759 1632.96680421870928512 25.009497869018190385759 256.14206412359720844
26.009497869018204596614 1640.97854194557976371 26.009497869018204596614 256.26934435574662530
27.009497869018190385759 1648.64400178568030242 27.009497869018190385759 256.19128903835957090
28.009497869018190385759 1655.96907535916989218 28.009497869018190385759 256.28237185880033167
29.009497869018190385759 1662.97589266736690661 29.009497869018190385759 256.57781076288540589
30.009497869018190385759 1669.67435968172480898 30.009497869018190385759 256.59401370586266466
31.009497869018190385759 1676.09870915692135895 31.009497869018190385759 256.50016313437714643
32.009497869018190385759 1682.28502611369822262 32.009497869018190385759 256.38345385864397485
33.009497869018190385759 1688.25050700112342383 33.009497869018190385759 256.28014882941016594
34.009497869018190385759 1693.99561046117719343 34.009497869018190385759 256.07822971842642801
35.009497869018190385759 1699.52486340433461010 35.009497869018190385759 256.02983114907868867
36.009497869018190385759 1704.85269775264691816 36.009497869018190385759 256.02274619909252351
37.009497869018190385759 1709.98731509973208631 37.009497869018190385759 255.92703483572296363
38.009497869018190385759 1714.93466696581663200 38.009497869018190385759 255.70035234282599390
39.009497869018190385759 1719.71503013740129973 39.009497869018190385759 255.34352662719703631
40.009497869018190385759 1724.34468038333784534 40.009497869018190385759 254.84693866797584860
41.009497869018190385759 1728.83679603406721981 41.009497869018190385759 254.56156461237912936
42.009497869018190385759 1733.18753680882241497 42.009497869018190385759 254.02393033650020016
43.009497869018190385759 1737.39996328011534388 43.009497869018190385759 253.66479509876424459
44.009497869018218807469 1741.47503370864114913 44.009497869018218807469 253.34509049892503185
46.009497869018190385759 1749.24788896456038856 46.009497869018190385759 252.47709968512074852
48.009497869018190385759 1756.51869802506666929 48.009497869018190385759 251.59002925546693064
50.009497869018190385759 1763.36965737173886737 50.009497869018190385759 250.80769423545473273
52.009497869018190385759 1769.86894425548689469 52.009497869018190385759 250.25583807563191385
54.009497869018190385759 1776.02749508807892198 54.009497869018190385759 249.73263634783765497
56.009497869018190385759 1781.85875076096863268 56.009497869018190385759 249.50404419838062609
58.009497869018218807469 1787.40346391950174620 58.009497869018218807469 249.29681568049039697
60.009497869018190385759 1792.72665046590873317 60.009497869018190385759 249.00399758436347497
62.009497869018190385759 1797.81101299469628430 62.009497869018190385759 248.66933970416505417
64.009497869018190385759 1802.67344128190370611 64.009497869018190385759 248.39685393268226221
66.009497869018190385759 1807.32524824070765135 66.009497869018190385759 248.09648595747594868
68.009497869018190385759 1811.77295798629506862 68.009497869018190385759 247.47771033474947444
70.009497869018190385759 1816.01646673462937542 70.009497869018190385759 246.99640764081053135
72.009497869018218807469 1820.08085960096218514 72.009497869018218807469 245.71019695201695754
74.009497869018190385759 1823.98569949386251210 74.009497869018190385759 244.57796247213684637
76.009497869018190385759 1827.74549521089966220 76.009497869018190385759 243.63326806585973827
78.009497869018190385759 1831.35419285816351476 78.009497869018190385759 242.39357841972483243
80.009497869018190385759 1834.81176809252906423 80.009497869018190385759 241.57677516601515322
82.009497869018218807469 1838.12160892089673325 82.009497869018218807469 240.82414795945547326
84.009497869018190385759 1841.29493538434189759 84.009497869018190385759 239.76774956526577398
86.009497869018190385759 1844.30578217043489531 86.009497869018190385759 238.60909864311659589
88.009497869018190385759 1847.18584501895179528 88.009497869018190385759 237.86432411818020682
91.009497869018218807469 1851.31431176557543949 91.009497869018218807469 237.21193857568698604
94.009497869018190385759 1855.26940620687992123 94.009497869018190385759 236.78945740649146501
97.009497869018190385759 1859.06460843254353676 97.009497869018190385759 236.77331644862371718
99.504748934509109403734 1862.09772994567038040 99.504748934509109403734 231.18792623093352745
nan nan nan nan

