Time Pressure difference Time.1 Pressure.1 difference.1
(hr) (psi) (hr) (psi)
0.000200000000006639311 0.63794583498921376 0.000200000000006639311 0.50945882305659429
0.000399999999999067768 1.27364145082961899 0.000399999999999067768 1.32477629448097245
0.000600000000005707079 1.90747795670753750 0.000600000000005707079 1.93422093491062141
0.000799999999998135536 2.53963619983381994 0.000799999999998135536 2.55228794701425477
0.001007140329434719206 3.19271460058383916 0.001007140329434719206 3.19863755485774881
0.001267914553963578328 4.01264787477592222 0.001267914553963578328 4.01469804133994579
0.001596209851982166583 5.04152711141892151 0.001596209851982166583 5.03604688668938660
0.002009509145210586212 6.33179486117190038 0.002009509145210586212 6.31289489790569203
0.002529822128138903281 7.94866219388449391 0.002529822128138903281 7.90702129588282698
0.003184857364445292660 9.97301741758941418 0.003184857364445292660 9.89409029151707919
0.004009497869020606231 12.50490902253879710 0.004009497869020606231 12.36624682330305447
0.005047658755842121536 15.66764833682129954 0.005047658755842121536 15.43492477073029256
0.006354625877804664924 19.61258347883510922 0.006354625877804664924 19.23373231223582280
0.008000000000009777068 24.52452737742396849 0.008000000000009777068 23.92116260270767825
0.010071403294347192059 30.62777489679379173 0.010071403294347192059 29.68274127894992986
0.012679145539692626699 38.19251209740419739 0.012679145539692626699 36.73192534573382062
0.015962098519750611558 47.54123584606480790 0.015962098519750611558 45.30888123767758913
0.020095091452091651263 59.05458355731283859 0.020095091452091651263 55.67592072263050085
0.025298221281346400247 73.17562676806792865 0.025298221281346400247 68.10784275227422313
0.031848573644282396344 90.41121904379473051 0.031848573644282396344 82.87505439647513583
0.040094978690191851456 111.32846972093032889 0.040094978690191851456 100.21692795824928623
0.050476587558421215363 136.54376058217366108 0.050476587558421215363 120.30494391639365404
0.063546258777947173257 166.70216823374693149 0.063546258777947173257 143.19055410539201034
0.079999999999998294697 202.44237994466814712 0.079999999999998294697 168.74204888122400803
0.100714032943542974863 244.34694635931288076 0.100714032943542974863 196.57868275340476316
0.126791455396897845276 292.87677774054060365 0.126791455396897845276 225.99938355769447185
0.159620985197506115583 348.28853247958318207 0.159620985197506115583 255.95187525381263072
0.200950914520774404082 410.55493583809777647 0.200950914520774404082 285.04071653462051472
0.252982212813464002465 479.28605131824394903 0.252982212813464002465 311.62957771593471534
0.318485736442795541734 553.69699631832759223 0.318485736442795541734 334.03437640517461205
0.400949786901819038576 632.61856154614508796 0.400949786901819038576 350.79910177515489522
0.504765875584169521062 714.59227498081634167 0.504765875584169521062 361.00860153029043431
0.635462587779443310865 798.02511296646275696 0.635462587779443310865 364.51207978020948985
0.799999999999997157829 881.38702733358650221 0.799999999999997157829 361.99280062238511846
1.007140329435330272645 963.39667352791900612 1.007140329435330272645 354.83573433491761762
1.267914553968893187630 1043.15633992386506179 1.267914553968893187630 344.82038830930162021
1.596209851975103788391 1120.19441560321956786 1.596209851975103788391 333.73573745423283299
2.009509145207687197399 1194.42146689737046472 2.009509145207687197399 323.08330996274241897
2.529822128134711078928 1266.03477365408411970 2.529822128134711078928 313.89260148642898685
3.184857364427983839050 1335.38896751224888249 3.184857364427983839050 306.68419361501076992
4.009497869018190385759 1402.88351954023278267 4.009497869018190385759 301.54998708524516360
5.009497869018190385759 1466.72099253529381713 5.009497869018190385759 298.34010316367323412
6.009497869018190385759 1518.02190963405928414 6.009497869018190385759 296.79890027815974918
7.009497869018204596614 1560.85341590206030560 7.009497869018204596614 296.09351640656313975
8.009497869018190385759 1597.56086699212983149 8.009497869018190385759 295.91592413912951542
9.009497869018204596614 1629.65169535717200233 9.009497869018204596614 295.97052069911347871
10.009497869018190385759 1658.08744682406336324 10.009497869018190385759 296.04475255629716912
11.009497869018190385759 1683.61468616845900215 11.009497869018190385759 296.06669996189020821
12.009497869018190385759 1706.70273238447703079 12.009497869018190385759 296.29478453076148980
13.009497869018190385759 1727.75426252604574984 13.009497869018190385759 296.39680900654639117
14.009497869018204596614 1747.11355165196118833 14.009497869018204596614 296.44665669736934888
15.009497869018190385759 1764.97077902398950755 15.009497869018190385759 296.63392684251124365
16.009497869018190385759 1781.52284754842776238 16.009497869018190385759 296.63506506264212703
17.009497869018190385759 1796.96177671960185762 17.009497869018190385759 296.41655763716312322
18.009497869018190385759 1811.38431717647767982 18.009497869018190385759 296.49452499960523255
19.009497869018204596614 1824.88031813594466257 19.009497869018204596614 296.48342134660009606
20.009497869018190385759 1837.56909376141584289 20.009497869018190385759 296.48821157178161911
21.009497869018204596614 1849.57930540639245010 21.009497869018204596614 296.32208709468000052
22.009497869018190385759 1860.94166331151541272 22.009497869018190385759 296.24563223050051874
23.009497869018190385759 1871.70104931604032572 23.009497869018190385759 296.66385089182153934
24.009497869018190385759 1881.88996732151395008 24.009497869018190385759 296.71546742688082077
25.009497869018190385759 1891.58145647054084293 25.009497869018190385759 296.70754939204022094
26.009497869018204596614 1900.86202143922378127 26.009497869018204596614 296.85498712701871682
27.009497869018190385759 1909.74146813182869664 27.009497869018190385759 296.76457010778301537
28.009497869018190385759 1918.22662123053169125 28.009497869018190385759 296.87007780928905731
29.009497869018190385759 1926.34311548799041702 29.009497869018190385759 297.21230568008439832
30.009497869018190385759 1934.10242569466777240 30.009497869018190385759 297.23107470000371677
31.009497869018190385759 1941.54420608222540068 31.009497869018190385759 297.12236091583957887
32.009497869018190385759 1948.71025649369562416 32.009497869018190385759 296.98716827064640711
33.009497869018190385759 1955.62049679768142596 33.009497869018190385759 296.86750271642085863
34.009497869018190385759 1962.27545827177095816 34.009497869018190385759 296.63360546568856080
35.009497869018190385759 1968.68038475796220155 35.009497869018190385759 296.57754196454368412
36.009497869018190385759 1974.85199377682215527 36.009497869018190385759 296.56933496365468272
37.009497869018190385759 1980.79978581688419581 37.009497869018190385759 296.45846569205923515
38.009497869018190385759 1986.53065494682846293 38.009497869018190385759 296.19588325684821939
39.009497869018190385759 1992.06808920893513459 39.009497869018190385759 295.78254668127800642
40.009497869018190385759 1997.43094198250878435 40.009497869018190385759 295.20731357014398100
41.009497869018190385759 2002.63447866389719820 41.009497869018190385759 294.87674452836682804
42.009497869018190385759 2007.67425078307064723 42.009497869018190385759 294.25396455268804630
43.009497869018190385759 2012.55380361859511140 43.009497869018190385759 293.83795269359114855
44.009497869018218807469 2017.27424719191026270 44.009497869018218807469 293.46761614355114034
46.009497869018190385759 2026.27809762410583971 46.009497869018190385759 292.46216072122581409
48.009497869018190385759 2034.70039228242990248 48.009497869018190385759 291.43460402443230350
50.009497869018190385759 2042.63634519079232632 50.009497869018190385759 290.52836979310592369
52.009497869018190385759 2050.16493090228368601 52.009497869018190385759 289.88911559892210335
54.009497869018190385759 2057.29881783958489905 54.009497869018190385759 289.28305386898841789
56.009497869018190385759 2064.05357554211741444 56.009497869018190385759 289.01825934292054399
58.009497869018218807469 2070.47641069408336989 58.009497869018218807469 288.77821182898435382
60.009497869018190385759 2076.64263583381261924 60.009497869018190385759 288.43901982623100366
62.009497869018190385759 2082.53221414770268893 62.009497869018190385759 288.05136182925906496
64.009497869018190385759 2088.16471026320095916 64.009497869018190385759 287.73572220256403398
66.009497869018190385759 2093.55322873131763117 66.009497869018190385759 287.38778463852412415
68.009497869018190385759 2098.70532689815217964 68.009497869018190385759 286.67101287645186858
70.009497869018190385759 2103.62088454328068110 70.009497869018190385759 286.11348577397058079
72.009497869018218807469 2108.32895953776596798 72.009497869018218807469 284.62357655980247273
74.009497869018190385759 2112.85221298836586357 74.009497869018190385759 283.31202892700019902
76.009497869018190385759 2117.20745146601939268 76.009497869018190385759 282.21772228443478525
78.009497869018190385759 2121.38766231533827522 78.009497869018190385759 280.78170169886675467
80.009497869018190385759 2125.39281733795178297 80.009497869018190385759 279.83554046380038471
82.009497869018218807469 2129.22684110293948834 82.009497869018218807469 278.96371890326065568
84.009497869018190385759 2132.90273058095681336 84.009497869018190385759 277.74001759596399097
86.009497869018190385759 2136.39040830602380083 86.009497869018190385759 276.39786992143825728
88.009497869018190385759 2139.72658970521115407 88.009497869018190385759 275.53514467988293291
91.009497869018218807469 2144.50888602709210318 91.009497869018218807469 274.77944016007182881
94.009497869018190385759 2149.09035289122721224 94.009497869018190385759 274.29005020842453177
97.009497869018190385759 2153.48660524312754205 97.009497869018190385759 274.27135299026093662
99.504748934509109403734 2157.00008536693030692 99.504748934509109403734 267.80139871094564796
nan nan nan nan

