Time Pressure difference Time.1 Pressure.1 difference.1
(hr) (psi) (hr) (psi)
0.000200000000006639311 0.18440621792656964 0.000200000000006639311 0.14726544103979680
0.000399999999999067768 0.36816198188043675 0.000399999999999067768 0.38294314762340614
0.000600000000005707079 0.55138034686077264 0.000600000000005707079 0.55911073899760155
0.000799999999998135536 0.73411358901446344 0.000799999999998135536 0.73777073468380794
0.001007140329434719206 0.92289406423126608 0.001007140329434719206 0.92460616820106811
0.001267914553963578328 1.15990602630241524 0.001267914553963578328 1.16049865257482820
0.001596209851982166583 1.45731643064453209 0.001596209851982166583 1.45573230318365088
0.002009509145210586212 1.83028445205750234 0.002009509145210586212 1.82482118142586414
0.002529822128138903281 2.29766016541973617 0.002529822128138903281 2.28562334334112949
0.003184857364445292660 2.88282534727194006 0.003184857364445292660 2.86001047489165616
0.004009497869020606231 3.61470026432762115 0.004009497869020606231 3.57461822236103943
0.005047658755842121536 4.52892959736240730 0.005047658755842121536 4.46165794153922501
0.006354625877804664924 5.66926241185077373 0.006354625877804664924 5.55975074650566814
0.008000000000009777068 7.08912119503661664 0.008000000000009777068 6.91471106484518838
0.010071403294347192059 8.85334118110445445 0.010071403294347192059 8.58016740094646480
0.012679145539692626699 11.04002302815590042 0.012679145539692626699 10.61782217025118413
0.015962098519750611558 13.74238848675310720 0.015962098519750611558 13.09709848276617805
0.020095091452091651263 17.07046555953574440 0.020095091452091651263 16.09382083388537765
0.025298221281346400247 21.15232961264463540 0.025298221281346400247 19.68742329557926851
0.031848573644282396344 26.13449300484691307 0.031848573644282396344 23.95607041148108962
0.040094978690191851456 32.18088577870641842 0.040094978690191851456 28.96895573793143797
0.050476587558421215363 39.46968079328458145 0.050476587558421215363 34.77564785083254151
0.063546258777947173257 48.18734550506746928 0.063546258777947173257 41.39101954608987199
0.079999999999998294697 58.51850045275563872 0.079999999999998294697 48.77699850472881593
0.100714032943542974863 70.63153918198888448 0.100714032943542974863 56.82352548340605836
0.126791455396897845276 84.65969356562501957 0.126791455396897845276 65.32794680964605050
0.159620985197506115583 100.67715391987950113 0.159620985197506115583 73.98608894055522001
0.200950914520774404082 118.67603614070014828 0.200950914520774404082 82.39458212328874254
0.252982212813464002465 138.54362420917988175 0.252982212813464002465 90.08042480851239020
0.318485736442795541734 160.05303799826660338 0.318485736442795541734 96.55681192962077830
0.400949786901819038576 182.86630294693256360 0.400949786901819038576 101.40286535688069591
0.504765875584169521062 206.56182948664223886 0.504765875584169521062 104.35404887984958577
0.635462587779443310865 230.67913421686816378 0.635462587779443310865 105.36677306146681588
0.799999999999997157829 254.77593758861482343 0.799999999999997157829 104.63854392990820941
1.007140329435330272645 278.48185094166404951 1.007140329435330272645 102.56970445618712517
1.267914553968893187630 301.53737950924221423 1.267914553968893187630 99.67464349565750581
1.596209851975103788391 323.80619826030567765 1.596209851975103788391 96.47048660786417429
2.009509145207687197399 345.26245527502112509 2.009509145207687197399 93.39126928610524203
2.529822128134711078928 365.96317675938371394 2.529822128134711078928 90.73458011717086436
3.184857364427983839050 386.01087342150952963 3.184857364427983839050 88.65089971683904935
4.009497869018190385759 405.52101736709857960 4.009497869018190385759 87.16679314182867699
5.009497869018190385759 423.97403690473333882 5.009497869018190385759 86.23893607074927559
6.009497869018190385759 438.80320825359524406 6.009497869018190385759 85.79343211165554806
7.009497869018204596614 451.18419053418926978 7.009497869018204596614 85.58953208627215758
8.009497869018190385759 461.79493811491255428 8.009497869018190385759 85.53819682146713888
9.009497869018204596614 471.07119318918250883 9.009497869018204596614 85.55397863958748417
10.009497869018190385759 479.29090259758078219 10.009497869018190385759 85.57543628580465622
11.009497869018190385759 486.66987022057008971 11.009497869018190385759 85.58178045773388476
12.009497869018190385759 493.34375857988777625 12.009497869018190385759 85.64771115342324492
13.009497869018190385759 499.42896651143513509 13.009497869018190385759 85.67720260345481620
14.009497869018204596614 505.02501102439504166 14.009497869018204596614 85.69161170158331231
15.009497869018190385759 510.18686581162199900 15.009497869018190385759 85.74574447791341925
16.009497869018190385759 514.97144811946736809 16.009497869018190385759 85.74607349467000006
17.009497869018190385759 519.43426358300985157 17.009497869018190385759 85.68291119199245998
18.009497869018190385759 523.60327918382552070 18.009497869018190385759 85.70544863269837776
19.009497869018204596614 527.50446696117148804 19.009497869018204596614 85.70223898300160670
20.009497869018190385759 531.17231616540925643 20.009497869018190385759 85.70362365746811406
21.009497869018204596614 534.64401796903530339 21.009497869018204596614 85.65560330080593587
22.009497869018190385759 537.92844955098496484 22.009497869018190385759 85.63350306662906064
23.009497869018190385759 541.03858456791783738 23.009497869018190385759 85.75439439841717615
24.009497869018190385759 543.98381867887508179 24.009497869018190385759 85.76931480308275013
25.009497869018190385759 546.78526476101569642 25.009497869018190385759 85.76702599613662414
26.009497869018204596614 549.46792807227564026 26.009497869018204596614 85.80964471640385227
27.009497869018190385759 552.03464313185668288 27.009497869018190385759 85.78350854678103588
28.009497869018190385759 554.48738269945056345 28.009497869018190385759 85.81400686674760436
29.009497869018190385759 556.83355682074727611 29.009497869018190385759 85.91293211064940749
30.009497869018190385759 559.07648242736490829 30.009497869018190385759 85.91835753046983370
31.009497869018190385759 561.22762207064340600 31.009497869018190385759 85.88693245223488759
32.009497869018190385759 563.29905851770888603 32.009497869018190385759 85.84785332823372528
33.009497869018190385759 565.29654985557988311 33.009497869018190385759 85.81326250396540445
34.009497869018190385759 567.22024965668379082 34.009497869018190385759 85.74565157992560671
35.009497869018190385759 569.07167371909849862 35.009497869018190385759 85.72944572412589537
36.009497869018190385759 570.85565445111262761 36.009497869018190385759 85.72707338793142640
37.009497869018190385759 572.57493808769311272 37.009497869018190385759 85.69502523911086200
38.009497869018190385759 574.23151744556753329 38.009497869018190385759 85.61912250393268664
39.009497869018190385759 575.83218203695787452 39.009497869018190385759 85.49964240005692773
40.009497869018190385759 577.38238166681890107 40.009497869018190385759 85.33336407886974939
41.009497869018190385759 578.88652898878274300 41.009497869018190385759 85.23780896523102513
42.009497869018190385759 580.34333811698138561 42.009497869018190385759 85.05778662851137994
43.009497869018190385759 581.75383385850011564 43.009497869018190385759 84.93753320049121669
44.009497869018218807469 583.11833707891150880 44.009497869018218807469 84.83048279149525683
46.009497869018190385759 585.72101259446822041 46.009497869018190385759 84.53984333347933955
48.009497869018190385759 588.15558214413999849 48.009497869018190385759 84.24281522581246406
50.009497869018190385759 590.44956853171345301 50.009497869018190385759 83.98085689331968240
52.009497869018190385759 592.62580033894130338 52.009497869018190385759 83.79607247781341073
54.009497869018190385759 594.68793953175497791 54.009497869018190385759 83.62088275900445922
56.009497869018190385759 596.64048668014333998 56.009497869018190385759 83.54434059131297374
58.009497869018218807469 598.49708746625844924 58.009497869018218807469 83.47495185681577823
60.009497869018190385759 600.27951192071157038 60.009497869018190385759 83.37690416851989994
62.009497869018190385759 601.98196815207029431 62.009497869018190385759 83.26484677877019180
64.009497869018190385759 603.61011156045640291 64.009497869018190385759 83.17360719917867584
66.009497869018190385759 605.16773018014646368 66.009497869018190385759 83.07303149707338719
68.009497869018190385759 606.65700855649697587 68.009497869018190385759 82.86583965959935938
70.009497869018190385759 608.07791193829223175 70.009497869018190385759 82.70467948153836346
72.009497869018218807469 609.43883986638559236 72.009497869018218807469 82.27400259931789606
74.009497869018190385759 610.74634281694943638 74.009497869018190385759 81.89488336171098126
76.009497869018190385759 612.00527893939624846 76.009497869018190385759 81.57856034784444432
78.009497869018190385759 613.21362113802751992 78.009497869018190385759 81.16346064732867660
80.009497869018190385759 614.37136126175175832 80.009497869018190385759 80.88996091531730315
82.009497869018218807469 615.47963375631832150 82.009497869018218807469 80.63794999547377529
84.009497869018190385759 616.54219555855786439 84.009497869018190385759 80.28422383633333936
86.009497869018190385759 617.55035240096003690 86.009497869018190385759 79.89625927416572893
88.009497869018190385759 618.51471733666255659 88.009497869018190385759 79.64687775902866917
91.009497869018218807469 619.89709986720629331 91.009497869018218807469 79.42843192127074303
94.009497869018190385759 621.22143013262041222 94.009497869018190385759 79.28696763837270112
97.009497869018190385759 622.49222182809160131 97.009497869018190385759 79.28156297374729888
99.504748934509109403734 623.50783717637830250 99.504748934509109403734 77.41134181488271793
nan nan nan nan

