Time Pressure difference Time.1 Pressure.1 difference.1
(hr) (psi) (hr) (psi)
0.000200000000006639311 0.33890872483801987 0.000200000000006639311 0.27064999974881576
0.000399999999999067768 0.67662202075323508 0.000399999999999067768 0.70378740644301663
0.000600000000005707079 1.01334766450087921 0.000600000000005707079 1.02755487167126769
0.000799999999998135536 1.34918173116171669 0.000799999999998135536 1.35590297185132291
0.001007140329434719206 1.69612963156016461 0.001007140329434719206 1.69927620101817922
0.001267914553963578328 2.13171918347470868 0.001267914553963578328 2.13280833446184603
0.001596209851982166583 2.67831127794130230 0.001596209851982166583 2.67539990855373677
0.002009509145210586212 3.36376601999757208 0.002009509145210586212 3.35372541451239892
0.002529822128138903281 4.22272679050113720 0.002529822128138903281 4.20060506343775142
0.003184857364445292660 5.29816550309437684 0.003184857364445292660 5.25623546736844904
0.004009497869020606231 6.64323291822373641 0.004009497869020606231 6.56956862487974824
0.005047658755842121536 8.32343817893631588 0.005047658755842121536 8.19980378445046831
0.006354625877804664924 10.41918497313115033 0.006354625877804664924 10.21792029087528242
0.008000000000009777068 13.02865516925648492 0.008000000000009777068 12.70811763268845240
0.010071403294347192059 16.27100541392170285 0.010071403294347192059 15.76895630444215080
0.012679145539692626699 20.28977205174598097 0.012679145539692626699 19.51383533992109065
0.015962098519750611558 25.25628154322192742 0.015962098519750611558 24.07034315751621634
0.020095091452091651263 31.37274751482244994 0.020095091452091651263 29.57783288389745380
0.025298221281346400247 38.87455172053608266 0.025298221281346400247 36.18229146214568459
0.031848573644282396344 48.03096011701595103 0.031848573644282396344 44.02737264812741103
0.040094978690191851456 59.14324953924423056 0.040094978690191851456 53.24024297781993198
0.050476587558421215363 72.53887280927976633 0.050476587558421215363 63.91200145558413226
0.063546258777947173257 88.56052687417805203 0.063546258777947173257 76.06998186848949217
0.079999999999998294697 107.54751434560496648 0.079999999999998294697 89.64421346815025515
0.100714032943542974863 129.80931525338496613 0.100714032943542974863 104.43242521274628132
0.126791455396897845276 155.59078817466217970 0.126791455396897845276 120.06217251502518195
0.159620985197506115583 185.02828287977854416 0.159620985197506115583 135.97443372858796806
0.200950914520774404082 218.10730966398944020 0.200950914520774404082 151.42788065901714845
0.252982212813464002465 254.62071476281707305 0.252982212813464002465 165.55321316159034950
0.318485736442795541734 294.15152929411158311 0.318485736442795541734 177.45576246524902331
0.400949786901819038576 336.07861082138958864 0.400949786901819038576 186.36202281805100256
0.504765875584169521062 379.62714608355867085 0.504765875584169521062 191.78581956296679323
0.635462587779443310865 423.95084126343334674 0.635462587779443310865 193.64704238323631103
0.799999999999997157829 468.23685827096778667 0.799999999999997157829 192.30867533064213148
1.007140329435330272645 511.80448281170691871 1.007140329435330272645 188.50648386542499679
1.267914553968893187630 554.17680558455322171 1.267914553968893187630 183.18583128931649640
1.596209851975103788391 595.10328328921036700 1.596209851975103788391 177.29711052256115522
2.009509145207687197399 634.53640428922801675 2.009509145207687197399 171.63800841770691363
2.529822128134711078928 672.58097350373225254 2.529822128134711078928 166.75544453966540459
3.184857364427983839050 709.42538899088231119 3.184857364427983839050 162.92597785797443066
4.009497869018190385759 745.28186975574874396 4.009497869018190385759 160.19843063903650204
5.009497869018190385759 779.19552728437486167 5.009497869018190385759 158.49317980570137365
6.009497869018190385759 806.44913949309398049 6.009497869018190385759 157.67441577277233478
7.009497869018204596614 829.20337719796953024 7.009497869018204596614 157.29968059098669642
8.009497869018190385759 848.70421058956901561 8.009497869018190385759 157.20533469891256573
9.009497869018204596614 865.75246315849756229 9.009497869018204596614 157.23433912140404800
10.009497869018190385759 880.85895612528349830 10.009497869018190385759 157.27377479553288708
11.009497869018190385759 894.42030202699379515 11.009497869018190385759 157.28543435475415890
12.009497869018190385759 906.68582657925333024 12.009497869018190385759 157.40660428196704856
13.009497869018190385759 917.86945196696183302 13.009497869018190385759 157.46080478472777031
14.009497869018204596614 928.15407431510448077 14.009497869018204596614 157.48728637047744883
15.009497869018190385759 937.64072635649438325 15.009497869018190385759 157.58677363508408575
16.009497869018190385759 946.43401276010217771 16.009497869018190385759 157.58737831452864953
17.009497869018190385759 954.63594388228852949 17.009497869018190385759 157.47129624474291631
18.009497869018190385759 962.29791850000367504 18.009497869018190385759 157.51271640604025492
19.009497869018204596614 969.46766900972056646 19.009497869018204596614 157.50681759038130281
20.009497869018190385759 976.20858106075218075 20.009497869018190385759 157.50936239750896561
21.009497869018204596614 982.58900599714593227 21.009497869018204596614 157.42110876904877159
22.009497869018190385759 988.62525863424241379 22.009497869018190385759 157.38049212245337571
23.009497869018190385759 994.34118244914634488 23.009497869018190385759 157.60267078628021409
24.009497869018190385759 999.75404513955436414 24.009497869018190385759 157.63009207053045202
25.009497869018190385759 1004.90264874997490097 25.009497869018190385759 157.62588561452136560
26.009497869018204596614 1009.83294888958766933 26.009497869018204596614 157.70421191122869686
27.009497869018190385759 1014.55015494503402351 27.009497869018190385759 157.65617786975974468
28.009497869018190385759 1019.05789252872000361 28.009497869018190385759 157.71222883618480637
29.009497869018190385759 1023.36978010299503694 29.009497869018190385759 157.89403739254484549
30.009497869018190385759 1027.49191365029219014 30.009497869018190385759 157.90400843437700473
31.009497869018190385759 1031.44535948118232227 31.009497869018190385759 157.84625423653977805
32.009497869018190385759 1035.25232376227586428 32.009497869018190385759 157.77443314378089667
33.009497869018190385759 1038.92338892376847070 33.009497869018190385759 157.71086081809858115
34.009497869018190385759 1042.45883720687811547 34.009497869018190385759 157.58660290364707635
35.009497869018190385759 1045.86145440266750484 35.009497869018190385759 157.55681916866382153
36.009497869018190385759 1049.14012169393686236 36.009497869018190385759 157.55245919944155730
37.009497869018190385759 1052.29988621521965797 37.009497869018190385759 157.49355989890645446
38.009497869018190385759 1055.34441044050254277 38.009497869018190385759 157.35406298020060945
39.009497869018190385759 1058.28617239224695368 39.009497869018190385759 157.13447792442897821
40.009497869018190385759 1061.13518792820786985 40.009497869018190385759 156.82888533413898813
41.009497869018190385759 1063.89956679019519470 41.009497869018190385759 156.65327053069486851
42.009497869018190385759 1066.57694572850618897 42.009497869018190385759 156.32241866861551216
43.009497869018190385759 1069.16920817237860319 43.009497869018190385759 156.10141236847033497
44.009497869018218807469 1071.67694382070226311 44.009497869018218807469 155.90467107626153620
46.009497869018190385759 1076.46023936280630551 46.009497869018190385759 155.37052288315123860
48.009497869018190385759 1080.93458340004121965 48.009497869018190385759 154.82463338797964525
50.009497869018190385759 1085.15055838260855126 50.009497869018190385759 154.34319645258750597
52.009497869018190385759 1089.15011954183819398 52.009497869018190385759 154.00359266192734253
54.009497869018190385759 1092.93999697727940656 54.009497869018190385759 153.68162236790010411
56.009497869018190385759 1096.52846200675003274 56.009497869018190385759 153.54095027592654787
58.009497869018218807469 1099.94059318123186131 58.009497869018218807469 153.41342503414793441
60.009497869018190385759 1103.21640028671299660 60.009497869018190385759 153.23322928268521537
62.009497869018190385759 1106.34523876596699665 62.009497869018190385759 153.02728597179387293
64.009497869018190385759 1109.33750232732541008 64.009497869018190385759 152.85960242011216792
66.009497869018190385759 1112.20015276351250577 66.009497869018190385759 152.67476058921596405
68.009497869018190385759 1114.93720491464318911 68.009497869018190385759 152.29397559061504808
70.009497869018190385759 1117.54859491361798973 70.009497869018190385759 151.99778931742184795
72.009497869018218807469 1120.04975975443835523 72.009497869018218807469 151.20627504739505298
74.009497869018190385759 1122.45273815006930818 74.009497869018190385759 150.50951536746885040
76.009497869018190385759 1124.76645859132304395 76.009497869018190385759 149.92816496360600809
78.009497869018190385759 1126.98719560502354398 78.009497869018190385759 149.16527902752295631
80.009497869018190385759 1129.11493421078694155 80.009497869018190385759 148.66263087139392951
82.009497869018218807469 1131.15175933593650370 82.009497869018218807469 148.19947566735720557
84.009497869018190385759 1133.10457562113333552 84.009497869018190385759 147.54938434785586310
86.009497869018190385759 1134.95740441257521525 86.009497869018190385759 146.83636839576405464
88.009497869018190385759 1136.72975078089348244 88.009497869018190385759 146.37804561118781521
91.009497869018218807469 1139.27034570189243823 91.009497869018218807469 145.97657758503814307
94.009497869018190385759 1141.70424997346458440 94.009497869018190385759 145.71658917322551474
97.009497869018190385759 1144.03975903541140724 97.009497869018190385759 145.70665627607610304
99.504748934509109403734 1145.90629535118182503 99.504748934509109403734 142.26949306518986305
nan nan nan nan

