Time Pressure difference Time.1 Pressure.1 difference.1
(hr) (psi) (hr) (psi)
0.000200000000006639311 0.03405700421166376 0.000200000000006639311 0.02719767154338589
0.000399999999999067768 0.06799387953647706 0.000399999999999067768 0.07072373447098942
0.000600000000005707079 0.10183150550131385 0.000600000000005707079 0.10325919053559307
0.000799999999998135536 0.13557953670987838 0.000799999999998135536 0.13625495550466724
0.001007140329434719206 0.17044439924991850 0.001007140329434719206 0.17076059863172879
0.001267914553963578328 0.21421687873152714 0.001267914553963578328 0.21432632772778357
0.001596209851982166583 0.26914402547939553 0.001596209851982166583 0.26885146139878241
0.002009509145210586212 0.33802550691152072 0.002009509145210586212 0.33701652449756947
0.002529822128138903281 0.42434264316310444 0.002529822128138903281 0.42211962647291135
0.003184857364445292660 0.53241369026193486 0.003184857364445292660 0.52820013275026079
0.004009497869020606231 0.66757977854699302 0.004009497869020606231 0.66017723926487659
0.005047658755842121536 0.83642393464801212 0.005047658755842121536 0.82399989010409114
0.006354625877804664924 1.04702594092739520 0.006354625877804664924 1.02680081354383956
0.008000000000009777068 1.30925211259685259 0.008000000000009777068 1.27704123269663383
0.010071403294347192059 1.63507652443821017 0.010071403294347192059 1.58462551098560822
0.012679145539692626699 2.03892317186663030 0.012679145539692626699 1.96094913955089400
0.015962098519750611558 2.53800868449043904 0.015962098519750611558 2.41883350357393345
0.020095091452091651263 3.15265354928362829 0.020095091452091651263 2.97228222607793047
0.025298221281346400247 3.90651132485779318 0.025298221281346400247 3.63596556359797285
0.031848573644282396344 4.82664059999425010 0.031848573644282396344 4.42431931022848968
0.040094978690191851456 5.94331674291424861 0.040094978690191851456 5.35012245610445447
0.050476587558421215363 7.28944555191291776 0.050476587558421215363 6.42252955803664083
0.063546258777947173257 8.89946471039534437 0.063546258777947173257 7.64428739364722976
0.079999999999998294697 10.80747080433775409 0.079999999999998294697 9.00836458871117784
0.100714032943542974863 13.04456354261956719 0.100714032943542974863 10.49443488657499302
0.126791455396897845276 15.63534881166948587 0.126791455396897845276 12.06507125763733512
0.159620985197506115583 18.59352842664441141 0.159620985197506115583 13.66409750703947701
0.200950914520774404082 21.91764631427345122 0.200950914520774404082 15.21701741916593953
0.252982212813464002465 25.58688555214583715 0.252982212813464002465 16.63647485202255893
0.318485736442795541734 29.55934485553571989 0.318485736442795541734 17.83256436538041356
0.400949786901819038576 33.77260549920826804 0.400949786901819038576 18.72755621455904773
0.504765875584169521062 38.14880634663212788 0.504765875584169521062 19.27259461294519127
0.635462587779443310865 42.60290316617835771 0.635462587779443310865 19.45962925909972796
0.799999999999997157829 47.05321369879823834 0.799999999999997157829 19.32513649155962554
1.007140329435330272645 51.43133283156858937 1.007140329435330272645 18.94305352569221768
1.267914553968893187630 55.68933585531049602 1.267914553968893187630 18.40838010505386180
1.596209851975103788391 59.80204562465104345 1.596209851975103788391 17.81662140055149379
2.009509145207687197399 63.76468768592732772 2.009509145207687197399 17.24793712040682436
2.529822128134711078928 67.58779390601230830 2.529822128134711078928 16.75728731893696377
3.184857364427983839050 71.29029644271120958 3.184857364427983839050 16.37246346121802176
4.009497869018190385759 74.89352122545514590 4.009497869018190385759 16.09837170637376502
5.009497869018190385759 78.30151132024354865 5.009497869018190385759 15.92701071576901306
6.009497869018190385759 81.04023215494326848 6.009497869018190385759 15.84473295755800493
7.009497869018204596614 83.32680996352144120 7.009497869018204596614 15.80707574566287654
8.009497869018190385759 85.28645253473609955 8.009497869018190385759 15.79759490846915426
9.009497869018204596614 86.99963477818235447 9.009497869018204596614 15.80050956857246192
10.009497869018190385759 88.51768921847212823 10.009497869018190385759 15.80447246719815801
11.009497869018190385759 89.88047152722241151 11.009497869018190385759 15.80564413859049289
12.009497869018190385759 91.11303649448379360 12.009497869018190385759 15.81782052833492358
13.009497869018190385759 92.23688120256234413 13.009497869018190385759 15.82326714748489849
14.009497869018204596614 93.27038491891980243 14.009497869018204596614 15.82592828722935252
15.009497869018190385759 94.22370044268694755 15.009497869018190385759 15.83592578195698053
16.009497869018190385759 95.10733951755928217 16.009497869018190385759 15.83598654631292746
17.009497869018190385759 95.93155318424958011 17.009497869018190385759 15.82432143635896793
18.009497869018190385759 96.70150651593174018 18.009497869018190385759 15.82848375648934081
19.009497869018204596614 97.42199615048663475 19.009497869018204596614 15.82789098334714240
20.009497869018190385759 98.09939172424225262 20.009497869018190385759 15.82814671151438013
21.009497869018204596614 98.74056187716416844 21.009497869018204596614 15.81927808708578276
22.009497869018190385759 99.34714608824495485 22.009497869018190385759 15.81519651230536816
23.009497869018190385759 99.92154039317402692 23.009497869018190385759 15.83752328979776536
24.009497869018190385759 100.46548002627874041 24.009497869018190385759 15.84027886002879448
25.009497869018190385759 100.98286421262002932 25.009497869018190385759 15.83985615243964595
26.009497869018204596614 101.47831104037521754 26.009497869018204596614 15.84772717735386394
27.009497869018190385759 101.95234400182938828 27.009497869018190385759 15.84290022710820978
28.009497869018190385759 102.40532743548411077 28.009497869018190385759 15.84853279971465057
29.009497869018190385759 102.83862986329116040 29.009497869018190385759 15.86680277719200660
30.009497869018190385759 103.25286387172054958 30.009497869018190385759 15.86780476914082350
31.009497869018190385759 103.65014641845213816 31.009497869018190385759 15.86200103847581033
32.009497869018190385759 104.03270900552280409 32.009497869018190385759 15.85478372278190307
33.009497869018190385759 104.40161506341789277 33.009497869018190385759 15.84839532730892486
34.009497869018190385759 104.75689295461275208 34.009497869018190385759 15.83590862512139452
35.009497869018190385759 105.09882262379746010 35.009497869018190385759 15.83291565175298210
36.009497869018190385759 105.42829654277305451 36.009497869018190385759 15.83247751759093980
37.009497869018190385759 105.74582189907845020 37.009497869018190385759 15.82655871533128433
38.009497869018190385759 106.05176673544266919 38.009497869018190385759 15.81254064261819892
39.009497869018190385759 106.34738497078950559 39.009497869018190385759 15.79047449730781061
40.009497869018190385759 106.63368310062871558 40.009497869018190385759 15.75976543798945606
41.009497869018190385759 106.91147607450491819 41.009497869018190385759 15.74211787195708290
42.009497869018190385759 107.18052640899205130 42.009497869018190385759 15.70887050346381564
43.009497869018190385759 107.44102337026353666 43.009497869018190385759 15.68666153702765520
44.009497869018218807469 107.69302621727644009 44.009497869018218807469 15.66689096599687225
46.009497869018190385759 108.17370052420358206 46.009497869018190385759 15.61321430933627497
48.009497869018190385759 108.62332823382764957 48.009497869018190385759 15.55835776692932804
50.009497869018190385759 109.04699238648763071 50.009497869018190385759 15.50997807489237346
52.009497869018190385759 109.44890907160628046 52.009497869018190385759 15.47585122337995323
54.009497869018190385759 109.82975459820700337 54.009497869018190385759 15.44349636540172455
56.009497869018190385759 110.19036015263907302 56.009497869018190385759 15.42936019929654101
58.009497869018218807469 110.53324588340809953 58.009497869018218807469 15.41654516274525655
60.009497869018190385759 110.86243238175302395 60.009497869018190385759 15.39843725634827010
62.009497869018190385759 111.17684997403100056 62.009497869018190385759 15.37774197265575715
64.009497869018190385759 111.47754312603024118 64.009497869018190385759 15.36089141966813543
66.009497869018190385759 111.76521142966669231 66.009497869018190385759 15.34231662783787620
68.009497869018190385759 112.04025833701071235 68.009497869018190385759 15.30405146866474730
70.009497869018190385759 112.30267743004495173 70.009497869018190385759 15.27428765199582372
72.009497869018218807469 112.55401997532345604 72.009497869018218807469 15.19474822780195211
74.009497869018190385759 112.79549574547264967 74.009497869018190385759 15.12473071094662380
76.009497869018190385759 113.02800196628489005 76.009497869018190385759 15.06631069487217189
78.009497869018190385759 113.25116426423031157 78.009497869018190385759 14.98964813756971104
80.009497869018190385759 113.46498113392712526 80.009497869018190385759 14.93913692580184360
82.009497869018218807469 113.66966209013087052 82.009497869018218807469 14.89259436853344631
84.009497869018190385759 113.86590098153547501 84.009497869018190385759 14.82726656436786783
86.009497869018190385759 114.05209211008721581 86.009497869018190385759 14.75561545153511389
88.009497869018190385759 114.23019554415840560 88.009497869018190385759 14.70955850504583573
91.009497869018218807469 114.48550042592549403 91.009497869018218807469 14.66921490437883335
94.009497869018190385759 114.73008394341187000 94.009497869018190385759 14.64308861789766247
97.009497869018190385759 114.96477970698987292 97.009497869018190385759 14.64209045911549367
99.504748934509109403734 115.15234830734915761 99.504748934509109403734 14.29668925409996127
nan nan nan nan

