Time Pressure difference Time.1 Pressure.1 difference.1
(hr) (psi) (hr) (psi)
0.000200000000006639311 0.67864810831534850 0.000200000000006639311 0.54196335734015311
0.000399999999999067768 1.35490242881223777 0.000399999999999067768 1.40929978201947192
0.000600000000005707079 2.02917902425788821 0.000600000000005707079 2.05762826018486722
0.000799999999998135536 2.70167028029196699 0.000799999999998135536 2.71512923530032024
0.001007140329434719206 3.39641644358983985 0.001007140329434719206 3.40271729468591300
0.001267914553963578328 4.26866316886969965 0.001267914553963578328 4.27084414033168791
0.001596209851982166583 5.36318704430893156 0.001596209851982166583 5.35735716982451748
0.002009509145210586212 6.73577656455396134 0.002009509145210586212 6.71567074425644606
0.002529822128138903281 8.45580340156722698 0.002529822128138903281 8.41150572752118464
0.003184857364445292660 10.60931670595123855 0.003184857364445292660 10.52535386480397861
0.004009497869020606231 13.30274827007056970 0.004009497869020606231 13.15523913364400421
0.005047658755842121536 16.66727694164453411 0.005047658755842121536 16.41970512719615627
0.006354625877804664924 20.86390716433369974 0.006354625877804664924 20.46088450403212278
0.008000000000009777068 26.08924331686898768 0.008000000000009777068 25.44738261251584888
0.010071403294347192059 32.58189074307360045 0.010071403294347192059 31.57656201159126752
0.012679145539692626699 40.62927393695211720 0.012679145539692626699 39.07549870763610755
0.015962098519750611558 50.57446573728508810 0.015962098519750611558 48.19968225414399399
0.020095091452091651263 62.82238901865181191 0.020095091452091651263 59.22816045623582681
0.025298221281346400247 77.84438420509309253 0.025298221281346400247 72.45326501120838714
0.031848573644282396344 96.17964317549518682 0.031848573644282396344 88.16265552333356936
0.040094978690191851456 118.43145802343758533 0.040094978690191851456 106.61097674725216677
0.050476587558421215363 145.25553697348422588 0.050476587558421215363 127.98064997355939454
0.063546258777947173257 177.33811386324381942 0.063546258777947173257 152.32640977097040036
0.079999999999998294697 215.35862554009622727 0.079999999999998294697 179.50814314578127551
0.100714032943542974863 259.93679059317531710 0.100714032943542974863 209.12081225199437995
0.126791455396897845276 311.56292632034075041 0.126791455396897845276 240.41861506072444854
0.159620985197506115583 370.51006645288987329 0.159620985197506115583 272.28213812807939576
0.200950914520774404082 436.74919606735141997 0.200950914520774404082 303.22690808435544341
0.252982212813464002465 509.86549990495484508 0.252982212813464002465 331.51219400249829050
0.318485736442795541734 589.02401821884586752 0.318485736442795541734 355.34646552477556725
0.400949786901819038576 672.98094372812579422 0.400949786901819038576 373.18081529987176737
0.504765875584169521062 760.18475085849865991 0.504765875584169521062 384.04170240917619594
0.635462587779443310865 848.94077772604180154 0.635462587779443310865 387.76870987035312055
0.799999999999997157829 937.62135590044283617 0.799999999999997157829 385.08869545376126098
1.007140329435330272645 1024.86338837540324676 1.007140329435330272645 377.47499342659858712
1.267914553968893187630 1109.71188765338251869 1.267914553968893187630 366.82064745924401450
1.596209851975103788391 1191.66515305707093830 1.596209851975103788391 355.02877278659923377
2.009509145207687197399 1270.62804486347886268 2.009509145207687197399 343.69669822859447095
2.529822128134711078928 1346.81042978566006241 2.529822128134711078928 333.91960340418290798
3.184857364427983839050 1420.58956569987958574 3.184857364427983839050 326.25128409305182231
4.009497869018190385759 1492.39041076089870330 4.009497869018190385759 320.78950449042355331
5.009497869018190385759 1560.30084752778020629 5.009497869018190385759 317.37482328739713466
6.009497869018190385759 1614.87487001435715683 6.009497869018190385759 315.73528844694851614
7.009497869018204596614 1660.43911561456138770 7.009497869018204596614 314.98489961479441490
8.009497869018190385759 1699.48857855803407801 8.009497869018190385759 314.79597659071464477
9.009497869018204596614 1733.62686862865803050 9.009497869018204596614 314.85405652496837092
10.009497869018190385759 1763.87688028028583176 10.009497869018190385759 314.93302452929015089
11.009497869018190385759 1791.03281067660282133 11.009497869018190385759 314.95637222508372588
12.009497869018190385759 1815.59392234129882127 12.009497869018190385759 315.19900906462515877
13.009497869018190385759 1837.98858396325431386 13.009497869018190385759 315.30754291451614790
14.009497869018204596614 1858.58303606725576174 14.009497869018204596614 315.36057099186297137
15.009497869018190385759 1877.57959174817642634 15.009497869018190385759 315.55978936241103838
16.009497869018190385759 1895.18771672794946426 16.009497869018190385759 315.56100020335759382
17.009497869018190385759 1911.61168174468070902 17.009497869018190385759 315.32855154890916083
18.009497869018190385759 1926.95441032966436978 18.009497869018190385759 315.41149339150706510
19.009497869018204596614 1941.31148426701429344 19.009497869018204596614 315.39968130230766974
20.009497869018190385759 1954.80983021233964791 20.009497869018190385759 315.40477715383536861
21.009497869018204596614 1967.58631838153996796 21.009497869018204596614 315.22805358900205874
22.009497869018190385759 1979.67361839258842338 22.009497869018190385759 315.14672074520694878
23.009497869018190385759 1991.11947563958983665 23.009497869018190385759 315.59162262840914082
24.009497869018190385759 2001.95846784072500668 24.009497869018190385759 315.64653240593963801
25.009497869018190385759 2012.26829418806255489 25.009497869018190385759 315.63810918398024796
26.009497869018204596614 2022.14097853625776224 26.009497869018204596614 315.79495375361233300
27.009497869018190385759 2031.58695242669796244 27.009497869018190385759 315.69876794018063038
28.009497869018190385759 2040.61347597050053082 28.009497869018190385759 315.81100725285040198
29.009497869018190385759 2049.24781947094834322 29.009497869018190385759 316.17506997477732966
30.009497869018190385759 2057.50218983404101891 30.009497869018190385759 316.19503649726959793
31.009497869018190385759 2065.41877131403407475 31.009497869018190385759 316.07938654718867610
32.009497869018190385759 2073.04203067102753266 32.009497869018190385759 315.93556832958086034
33.009497869018190385759 2080.39315870274185727 33.009497869018190385759 315.80826786369249248
34.009497869018190385759 2087.47272058338103307 34.009497869018190385759 315.55944748107754094
35.009497869018190385759 2094.28629472298825931 35.009497869018190385759 315.49980701176065168
36.009497869018190385759 2100.85166525477006871 36.009497869018190385759 315.49107638711700474
37.009497869018190385759 2107.17893881822192270 37.009497869018190385759 315.37313342501613533
38.009497869018190385759 2113.27544933796707483 38.009497869018190385759 315.09379768339192651
39.009497869018190385759 2119.16618344231801530 39.009497869018190385759 314.65408937318250082
40.009497869018190385759 2124.87119739545505581 40.009497869018190385759 314.04215519115575717
41.009497869018190385759 2130.40673055781735457 41.009497869018190385759 313.69049515582770482
42.009497869018190385759 2135.76805063771962523 42.009497869018190385759 313.02798052024235176
43.009497869018190385759 2140.95892910988550284 43.009497869018190385759 312.58542623784376246
44.009497869018218807469 2145.98054681743587935 44.009497869018218807469 312.19146144437667090
46.009497869018190385759 2155.55886166522714120 46.009497869018190385759 311.12185587140822918
48.009497869018190385759 2164.51851626920006311 48.009497869018190385759 310.02873891661613470
50.009497869018190385759 2172.96079950635112255 50.009497869018190385759 309.06468505334316887
52.009497869018190385759 2180.96972467078830960 52.009497869018190385759 308.38464510979082434
54.009497869018190385759 2188.55876845695411248 54.009497869018190385759 307.73991537885876824
56.009497869018190385759 2195.74449377331984579 56.009497869018190385759 307.45822641037250378
58.009497869018218807469 2202.57711918888799119 58.009497869018218807469 307.20286336494820034
60.009497869018190385759 2209.13676233883506939 60.009497869018190385759 306.84203020576921972
62.009497869018190385759 2215.40210801910552618 62.009497869018190385759 306.42963882096961470
64.009497869018190385759 2221.39396912113943472 64.009497869018190385759 306.09386072850890059
66.009497869018190385759 2227.12628629360187915 66.009497869018190385759 305.72372402301334660
68.009497869018190385759 2232.60709905701833122 68.009497869018190385759 304.96122072924629265
70.009497869018190385759 2237.83627952065171485 70.009497869018190385759 304.36812223611190120
72.009497869018218807469 2242.84473950827441513 72.009497869018218807469 302.78315371010234003
74.009497869018190385759 2247.65658595246713958 74.009497869018190385759 301.38792660593639994
76.009497869018190385759 2252.28969771840866088 76.009497869018190385759 300.22380091976981475
78.009497869018190385759 2256.73661472868707278 78.009497869018190385759 298.69615922913305894
80.009497869018190385759 2260.99730698581606703 80.009497869018190385759 297.68963093610011583
82.009497869018218807469 2265.07594945455912239 82.009497869018218807469 296.76218534370303814
84.009497869018190385759 2268.98636833937780466 84.009497869018190385759 295.46040934362315511
86.009497869018190385759 2272.69656716929875984 86.009497869018190385759 294.03262985132164431
88.009497869018190385759 2276.24560389213229428 88.009497869018190385759 293.11486094201092101
91.009497869018218807469 2281.33302068246666749 91.009497869018218807469 292.31094089945133874
94.009497869018190385759 2286.20679467725631184 94.009497869018190385759 291.79032684932656139
97.009497869018190385759 2290.88353708806653231 97.009497869018190385759 291.77043670969163713
99.504748934509109403734 2294.62118456351845452 99.504748934509109403734 284.88768586828462048
nan nan nan nan

