Time Pressure difference Time.1 Pressure.1 difference.1
(hr) (psi) (hr) (psi)
0.000200000000006639311 0.41366800237581830 0.000200000000006639311 0.33035220557576039
0.000399999999999067768 0.82587687827233103 0.000399999999999067768 0.85903462845250567
0.000600000000005707079 1.23688023755254384 0.000600000000005707079 1.25422138748110612
0.000799999999998135536 1.64679534832974239 0.000799999999998135536 1.65499921564205588
0.001007140329434719206 2.07027587381608358 0.001007140329434719206 2.07411653947807162
0.001267914553963578328 2.60195135630001229 0.001267914553963578328 2.60328076118137108
0.001596209851982166583 3.26911523631070677 0.001596209851982166583 3.26556165308764923
0.002009509145210586212 4.10577323029115426 0.002009509145210586212 4.09351778536072164
0.002529822128138903281 5.15421064134697637 0.002529822128138903281 5.12720912154902031
0.003184857364445292660 6.46687848171813595 0.003184857364445292660 6.41569917340560725
0.004009497869020606231 8.10865194430250114 0.004009497869020606231 8.01873817448557524
0.005047658755842121536 10.15949071840756268 0.005047658755842121536 10.00858403102042438
0.006354625877804664924 12.71753459955714050 0.006354625877804664924 12.47187329621541707
0.008000000000009777068 15.90262322129835404 0.008000000000009777068 15.51137887519325886
0.010071403294347192059 19.86019778463972330 0.010071403294347192059 19.24740254806909689
0.012679145539692626699 24.76545706316053241 0.012679145539692626699 23.81835784137427225
0.015962098519750611558 30.82752011893264665 0.015962098519750611558 29.37997767755656042
0.020095091452091651263 38.29320652544504355 0.020095091452091651263 36.10235484358071290
0.025298221281346400247 47.44982048241904238 0.025298221281346400247 44.16367928467781923
0.031848573644282396344 58.62602484871064945 0.031848573644282396344 53.73929308521434223
0.040094978690191851456 72.18955458466575692 0.040094978690191851456 64.98441422292727054
0.050476587558421215363 88.54009475250325067 0.050476587558421215363 78.01023707078651626
0.063546258777947173257 108.09593721407028966 0.063546258777947173257 92.85012492771511461
0.079999999999998294697 131.27123074537075809 0.079999999999998294697 109.41867232141869692
0.100714032943542974863 158.44372302986693057 0.100714032943542974863 127.46898959791087691
0.126791455396897845276 189.91228556613177147 0.126791455396897845276 146.54647527569250087
0.159620985197506115583 225.84334527972970363 0.159620985197506115583 165.96879410989413373
0.200950914520774404082 266.21921620751652426 0.200950914520774404082 184.83108962791797580
0.252982212813464002465 310.78704890167381336 0.252982212813464002465 202.07230430017645517
0.318485736442795541734 359.03789605016561381 0.318485736442795541734 216.60041595023039918
0.400949786901819038576 410.21359850257852031 0.400949786901819038576 227.47129255732698994
0.504765875584169521062 463.36842830787310277 0.504765875584169521062 234.09151505479769639
0.635462587779443310865 517.46940918919074193 0.635462587779443310865 236.36330173247961284
0.799999999999997157829 571.52440053662246555 0.799999999999997157829 234.72970665357789244
1.007140329435330272645 624.70253049075984109 1.007140329435330272645 230.08879648279813068
1.267914553968893187630 676.42168916938112488 1.267914553968893187630 223.59447054431277024
1.596209851975103788391 726.37606636771272406 1.596209851975103788391 216.40676725547908177
2.009509145207687197399 774.50766994126365717 2.009509145207687197399 209.49933380396578286
2.529822128134711078928 820.94442354132024775 2.529822128134711078928 203.53973377635628594
3.184857364427983839050 865.91628362122401086 3.184857364427983839050 198.86553179723352969
4.009497869018190385759 909.68228220186983890 4.009497869018190385759 195.53631975058866033
5.009497869018190385759 951.07689359710457211 5.009497869018190385759 193.45491064519433166
6.009497869018190385759 984.34233202833524956 6.009497869018190385759 192.45553689911918127
7.009497869018204596614 1012.11588687399205355 7.009497869018204596614 191.99813954488081436
8.009497869018190385759 1035.91837469020924800 8.009497869018190385759 191.88298205896680315
9.009497869018204596614 1056.72727120816625757 9.009497869018204596614 191.91838451583137726
10.009497869018190385759 1075.16607879997854980 10.009497869018190385759 191.96651923572397891
11.009497869018190385759 1091.71889806236004006 11.009497869018190385759 191.98075075653815702
12.009497869018190385759 1106.69005303055928380 12.009497869018190385759 192.12864934416563756
13.009497869018190385759 1120.34065460673286907 13.009497869018190385759 192.19480584018242553
14.009497869018204596614 1132.89394364931877135 14.009497869018204596614 192.22712895220041673
15.009497869018190385759 1144.47323952336819275 15.009497869018190385759 192.34856193694088233
16.009497869018190385759 1155.20622145718357388 16.009497869018190385759 192.34930000155699759
17.009497869018190385759 1165.21740209161703206 17.009497869018190385759 192.20761159284796804
18.009497869018190385759 1174.56951816912214781 18.009497869018190385759 192.25816855443150644
19.009497869018204596614 1183.32083129127659049 19.009497869018204596614 192.25096852943602244
20.009497869018190385759 1191.54870923591806786 20.009497869018190385759 192.25407469107713609
21.009497869018204596614 1199.33658084945773226 21.009497869018204596614 192.14635335045659303
22.009497869018190385759 1206.70435980356069194 22.009497869018190385759 192.09677714946516858
23.009497869018190385759 1213.68114916587001062 23.009497869018190385759 192.36796581266554540
24.009497869018190385759 1220.28802568504420378 24.009497869018190385759 192.40143590961804421
25.009497869018190385759 1226.57235068011641488 25.009497869018190385759 192.39630155890105812
26.009497869018204596614 1232.59021702699646994 26.009497869018204596614 192.49190571517618764
27.009497869018190385759 1238.34798324173266337 27.009497869018190385759 192.43327592926559078
28.009497869018190385759 1243.85007470417303921 28.009497869018190385759 192.50169107946084068
29.009497869018190385759 1249.11311394924382512 29.009497869018190385759 192.72360446442976922
30.009497869018190385759 1254.14454166138602886 30.009497869018190385759 192.73577500078368985
31.009497869018190385759 1258.97007113144309187 31.009497869018190385759 192.66528090636472825
32.009497869018190385759 1263.61680694513074741 32.009497869018190385759 192.57761692549726718
33.009497869018190385759 1268.09766589224659583 33.009497869018190385759 192.50002129267915052
34.009497869018190385759 1272.41299247310143983 34.009497869018190385759 192.34835354415741904
35.009497869018190385759 1276.56618699149112217 35.009497869018190385759 192.31199986763377296
36.009497869018190385759 1280.56808971465807190 36.009497869018190385759 192.30667814049482445
37.009497869018190385759 1284.42486111563584927 37.009497869018190385759 192.23478634719464253
38.009497869018190385759 1288.14097156708407965 38.009497869018190385759 192.06451804936250483
39.009497869018190385759 1291.73165159641894206 39.009497869018190385759 191.79649511364121395
40.009497869018190385759 1295.20912644178315531 40.009497869018190385759 191.42349239314023635
41.009497869018190385759 1298.58329475862069557 41.009497869018190385759 191.20913903011285129
42.009497869018190385759 1301.85127199214730354 42.009497869018190385759 190.80530513963364569
43.009497869018190385759 1305.01535703393278709 43.009497869018190385759 190.53554744975053836
44.009497869018218807469 1308.07626966350426301 44.009497869018218807469 190.29540734308395145
46.009497869018190385759 1313.91470392813130275 46.009497869018190385759 189.64343234266988247
48.009497869018190385759 1319.37603562063827667 48.009497869018190385759 188.97712604709283823
50.009497869018190385759 1324.52200508465466555 50.009497869018190385759 188.38948978771711040
52.009497869018190385759 1329.40382238194956699 52.009497869018190385759 187.97497339617601142
54.009497869018190385759 1334.02970219285589337 54.009497869018190385759 187.58198024317218255
56.009497869018190385759 1338.40974039059165079 56.009497869018190385759 187.41027754267503269
58.009497869018218807469 1342.57454755944468161 58.009497869018218807469 187.25462173285703216
60.009497869018190385759 1346.57295917348801595 60.009497869018190385759 187.03467691857167665
62.009497869018190385759 1350.39198261140086288 62.009497869018190385759 186.78330493616016383
64.009497869018190385759 1354.04430431129412682 64.009497869018190385759 186.57863236572515575
66.009497869018190385759 1357.53842175546355975 66.009497869018190385759 186.35301660154300407
68.009497869018190385759 1360.87923541052032306 68.009497869018190385759 185.88823491207423899
70.009497869018190385759 1364.06666732103371942 70.009497869018190385759 185.52671343155901695
72.009497869018218807469 1367.11955970027020157 72.009497869018218807469 184.56060042549688660
74.009497869018190385759 1370.05260685964344702 74.009497869018190385759 183.71014375735168755
76.009497869018190385759 1372.87670680999690376 76.009497869018190385759 183.00055429381322369
78.009497869018190385759 1375.58731228260239732 78.009497869018190385759 182.06938469535893432
80.009497869018190385759 1378.18440499257826559 80.009497869018190385759 181.45585826949556463
82.009497869018218807469 1380.67052977768707933 82.009497869018218807469 180.89053647633306809
84.009497869018190385759 1383.05411436108943235 84.009497869018190385759 180.09704265988290217
86.009497869018190385759 1385.31565538593736164 86.009497869018190385759 179.22674377718257688
88.009497869018190385759 1387.47896051197267298 88.009497869018190385759 178.66732037836160885
91.009497869018218807469 1390.57998078319246815 91.009497869018218807469 178.17729322879654319
94.009497869018190385759 1393.55077570290518452 94.009497869018190385759 177.85995443202526189
97.009497869018190385759 1396.40147058734055463 97.009497869018190385759 177.84783045462231144
99.504748934509109403734 1398.67974285511900234 99.504748934509109403734 173.65246947662882349
nan nan nan nan

