Time Pressure difference Time.1 Pressure.1 difference.1
(hr) (psi) (hr) (psi)
0.000200000000006639311 0.17526897289417201 0.000200000000006639311 0.13996850477205913
0.000399999999999067768 0.34991972151699163 0.000399999999999067768 0.36396848715557972
0.000600000000005707079 0.52405969904334693 0.000600000000005707079 0.53140705373195463
0.000799999999998135536 0.69773859136059369 0.000799999999998135536 0.70121452710938503
0.001007140329434719206 0.87716507906665386 0.001007140329434719206 0.87879234905597015
0.001267914553963578328 1.10243320517932242 0.001267914553963578328 1.10299646708688615
0.001596209851982166583 1.38510705795493805 0.001596209851982166583 1.38360142329617264
0.002009509145210586212 1.73959468191050903 0.002009509145210586212 1.73440211387773591
0.002529822128138903281 2.18381213920524520 0.002529822128138903281 2.17237173623864122
0.003184857364445292660 2.73998264988459184 0.003184857364445292660 2.71829824415378107
0.004009497869020606231 3.43559349447354956 0.004009497869020606231 3.39749749963143799
0.005047658755842121536 4.30452317587147704 0.005047658755842121536 4.24058480029178586
0.006354625877804664924 5.38835301306537406 0.006354625877804664924 5.28426760140854057
0.008000000000009777068 6.73785843312038768 0.008000000000009777068 6.57209024631682226
0.010071403294347192059 8.41466211357225191 0.010071403294347192059 8.15502397116983779
0.012679145539692626699 10.49299486009412163 0.012679145539692626699 10.09171386451801666
0.015962098519750611558 13.06145932749957517 0.015962098519750611558 12.44814315253902492
0.020095091452091651263 16.22463168045964821 0.020095091452091651263 15.29637926103520229
0.025298221281346400247 20.10424120841449636 0.025298221281346400247 18.71192033949200706
0.031848573644282396344 24.83954064875089429 0.031848573644282396344 22.76905791361491183
0.040094978690191851456 30.58633738426601312 0.040094978690191851456 27.53355703019609635
0.050476587558421215363 37.51397588911282099 0.050476587558421215363 33.05253016453003312
0.063546258777947173257 45.79968424130287019 0.063546258777947173257 39.34011317218451609
0.079999999999998294697 55.61893511500648657 0.079999999999998294697 46.36012020044045556
0.100714032943542974863 67.13177823152997803 0.100714032943542974863 54.00794539188594001
0.126791455396897845276 80.46484388444540059 0.126791455396897845276 62.09097647223115501
0.159620985197506115583 95.68864629321880955 0.159620985197506115583 70.32011156061778934
0.200950914520774404082 112.79569200760239767 0.200950914520774404082 78.31196769375641509
0.252982212813464002465 131.67885003665296040 0.252982212813464002465 85.61698033601854263
0.318485736442795541734 152.12248206141552487 0.318485736442795541734 91.77246539256749713
0.400949786901819038576 173.80536000812060138 0.400949786901819038576 96.37839905541363805
0.504765875584169521062 196.32678388144825021 0.504765875584169521062 99.18335276418136459
0.635462587779443310865 219.24908702594225929 0.635462587779443310865 100.14589691878153133
0.799999999999997157829 242.15190464503481849 0.799999999999997157829 99.45375121266050655
1.007140329435330272645 264.68320066977980787 1.007140329435330272645 97.48742180295262472
1.267914553968893187630 286.59633818220771673 1.267914553968893187630 94.73580980893572701
1.596209851975103788391 307.76174699515541988 1.596209851975103788391 91.69041745161864299
2.009509145207687197399 328.15485613977239154 2.009509145207687197399 88.76377396111804785
2.529822128134711078928 347.82986619923406124 2.529822128134711078928 86.23872254379753599
3.184857364427983839050 366.88420852224550117 3.184857364427983839050 84.25828756870737379
4.009497869018190385759 385.42763362368373237 4.009497869018190385759 82.84771780597229451
5.009497869018190385759 402.96631435539973154 5.009497869018190385759 81.96583563481125623
6.009497869018190385759 417.06070694373244123 6.009497869018190385759 81.54240619621315034
7.009497869018204596614 428.82821712934207881 7.009497869018204596614 81.34860932524067323
8.009497869018190385759 438.91320694705655114 8.009497869018190385759 81.29981769968271976
9.009497869018204596614 447.72982776088969104 9.009497869018204596614 81.31481753582413319
10.009497869018190385759 455.54225427067359533 10.009497869018190385759 81.33521196533686748
11.009497869018190385759 462.55559737180317370 11.009497869018190385759 81.34124178640472280
12.009497869018190385759 468.89879756917264331 12.009497869018190385759 81.40390564582118316
13.009497869018190385759 474.68248618879647438 13.009497869018190385759 81.43193580778813612
14.009497869018204596614 480.00124921687995538 14.009497869018204596614 81.44563094159495620
15.009497869018190385759 484.90733642455961672 15.009497869018190385759 81.49708146324202573
16.009497869018190385759 489.45484483426855604 16.009497869018190385759 81.49739417736653024
17.009497869018190385759 493.69652980186987179 17.009497869018190385759 81.43736153833518188
18.009497869018190385759 497.65897255759995232 18.009497869018190385759 81.45878225900611369
19.009497869018204596614 501.36685823787024674 19.009497869018204596614 81.45573164600601501
20.009497869018190385759 504.85296716622229951 20.009497869018190385759 81.45704771047645920
21.009497869018204596614 508.15264770930826899 21.009497869018204596614 81.41140674085610840
22.009497869018190385759 511.27433718584597955 22.009497869018190385759 81.39040156332761455
23.009497869018190385759 514.23036641365172272 23.009497869018190385759 81.50530278408118079
24.009497869018190385759 517.02966550109294985 24.009497869018190385759 81.51948388941649171
25.009497869018190385759 519.69230119177620963 25.009497869018190385759 81.51730849182355598
26.009497869018204596614 522.24203974437000397 26.009497869018204596614 81.55781547369915074
27.009497869018190385759 524.68157522892681754 27.009497869018190385759 81.53297433950810102
28.009497869018190385759 527.01278265578412174 28.009497869018190385759 81.56196148145831160
29.009497869018190385759 529.24270490620574492 29.009497869018190385759 81.65598502408569459
30.009497869018190385759 531.37449455934233811 30.009497869018190385759 81.66114161679790584
31.009497869018190385759 533.41904620227819578 31.009497869018190385759 81.63127363703404171
32.009497869018190385759 535.38784390647106193 32.009497869018190385759 81.59413086602394571
33.009497869018190385759 537.28636044832137486 33.009497869018190385759 81.56125400151667293
34.009497869018190385759 539.11474179081210423 34.009497869018190385759 81.49699316830766804
35.009497869018190385759 540.87442862490888729 35.009497869018190385759 81.48159030536291425
36.009497869018190385759 542.57001391524670453 36.009497869018190385759 81.47933551735825120
37.009497869018190385759 544.20410782208659839 37.009497869018190385759 81.44887533987564154
38.009497869018190385759 545.77860441898542376 38.009497869018190385759 81.37673355103511597
39.009497869018190385759 547.29995680089234611 39.009497869018190385759 81.26317363248654146
40.009497869018190385759 548.77334473738198994 40.009497869018190385759 81.10513432721403149
41.009497869018190385759 550.20296223708623984 41.009497869018190385759 81.01431392641326568
42.009497869018190385759 551.58758712920302969 42.009497869018190385759 80.84321161538694867
43.009497869018190385759 552.92819344208794519 43.009497869018190385759 80.72891669055695729
44.009497869018218807469 554.22508614256901183 44.009497869018218807469 80.62717058110585810
46.009497869018190385759 556.69880025870622831 46.009497869018190385759 80.35093217731595416
48.009497869018190385759 559.01273798384477232 48.009497869018190385759 80.06862167858751889
50.009497869018190385759 561.19305837924116531 50.009497869018190385759 79.81964326347051042
52.009497869018190385759 563.26145888070550427 52.009497869018190385759 79.64401483251634772
54.009497869018190385759 565.22142000540679874 54.009497869018190385759 79.47750568536010007
56.009497869018190385759 567.07721932211825333 56.009497869018190385759 79.40475614759927225
58.009497869018218807469 568.84182637558797069 58.009497869018218807469 79.33880559364023100
60.009497869018190385759 570.53593250121684832 60.009497869018190385759 79.24561612413378953
62.009497869018190385759 572.15403279318400109 62.009497869018190385759 79.13911112756987620
64.009497869018190385759 573.70150242908243854 64.009497869018190385759 79.05239242804820776
66.009497869018190385759 575.18194174779694094 66.009497869018190385759 78.95680020667785470
68.009497869018190385759 576.59742705144537922 68.009497869018190385759 78.75987463142101319
70.009497869018190385759 577.94792531071914254 70.009497869018190385759 78.60669986758826155
72.009497869018218807469 579.24141987300595247 72.009497869018218807469 78.19736283088322182
74.009497869018190385759 580.48413664133477141 74.009497869018190385759 77.83702878072530496
76.009497869018190385759 581.68069304600271607 76.009497869018190385759 77.53637942970800623
78.009497869018190385759 582.82916243299007419 78.009497869018190385759 77.14184773237094817
80.009497869018190385759 583.92953705508830353 80.009497869018190385759 76.88189978888264875
82.009497869018218807469 584.98289514677105672 82.009497869018218807469 76.64237589659894923
84.009497869018190385759 585.99280749034107885 84.009497869018190385759 76.30617670930782026
86.009497869018190385759 586.95101061532682252 86.009497869018190385759 75.93743561643680096
88.009497869018190385759 587.86759170286393328 88.009497869018190385759 75.70041084304075696
91.009497869018218807469 589.18147780171409522 91.009497869018218807469 75.49278889814472393
94.009497869018190385759 590.44018809902206613 94.009497869018190385759 75.35833410674162280
97.009497869018190385759 591.64801263841127366 97.009497869018190385759 75.35319724081388415
99.504748934509109403734 592.61330470367488488 99.504748934509109403734 73.57564469792907857
nan nan nan nan

