Time Pressure difference Time.1 Pressure.1 difference.1
(hr) (psi) (hr) (psi)
0.000200000000006639311 0.83647324978403426 0.000200000000006639311 0.66800134741925843
0.000399999999999067768 1.66999601690810695 0.000399999999999067768 1.73704391737283759
0.000600000000005707079 2.50108112292251361 0.000600000000005707079 2.53614646022785939
0.000799999999998135536 3.32996569431335487 0.000799999999998135536 3.34655463885853433
0.001007140329434719206 4.18628073279677881 0.001007140329434719206 4.19404689810124154
0.001267914553963578328 5.26137553372311739 0.001267914553963578328 5.26406370785068489
0.001596209851982166583 6.61043984531100826 0.001596209851982166583 6.60325418606277648
0.002009509145210586212 8.30223623072930117 0.002009509145210586212 8.27745463826957284
0.002529822128138903281 10.42226930890844194 0.002529822128138903281 10.36766985020052978
0.003184857364445292660 13.07659966082361969 0.003184857364445292660 12.97311057754908958
0.004009497869020606231 16.39641065845907519 0.004009497869020606231 16.21459707170075148
0.005047658755842121536 20.54338785830605474 0.005047658755842121536 20.23824120328828613
0.006354625877804664924 25.71597859789968155 0.006354625877804664924 25.21922973752796437
0.008000000000009777068 32.15650920451293615 0.008000000000009777068 31.36537856891488119
0.010071403294347192059 40.15907463681164558 0.010071403294347192059 38.91994852591481902
0.012679145539692626699 50.07794229438285072 0.012679145539692626699 48.16282398848171198
0.015962098519750611558 62.33596939711882357 0.015962098519750611558 59.40891068534027397
0.020095091452091651263 77.43224692996618330 0.020095091452091651263 73.00215126001160115
0.025298221281346400247 95.94772936906822736 0.025298221281346400247 89.30286152544289280
0.031848573644282396344 118.54700205351730347 0.031848573644282396344 108.66559866829486225
0.040094978690191851456 145.97365756377189427 0.040094978690191851456 131.40422715358988626
0.050476587558421215363 179.03589440917824049 0.050476587558421215363 157.74359182787551958
0.063546258777947173257 218.57953569190513576 0.063546258777947173257 187.75115622933560644
0.079999999999998294697 265.44202682849066832 0.079999999999998294697 221.25422294712578264
0.100714032943542974863 320.38720701019281023 0.100714032943542974863 257.75355928734188637
0.126791455396897845276 384.01942081344321878 0.126791455396897845276 296.32992088879990433
0.159620985197506115583 456.67519818612009885 0.159620985197506115583 335.60356559972569812
0.200950914520774404082 538.31877654813081335 0.200950914520774404082 373.74479368536827906
0.252982212813464002465 628.43887197587457649 0.252982212813464002465 408.60805307284675791
0.318485736442795541734 726.00634803718219246 0.318485736442795541734 437.98517843751409373
0.400949786901819038576 829.48813994396903126 0.400949786901819038576 459.96705141612102352
0.504765875584169521062 936.97190222094025103 0.504765875584169521062 473.35372622526364239
0.635462587779443310865 1046.36886556930721781 0.635462587779443310865 477.94747960764448180
0.799999999999997157829 1155.67283401682493604 0.799999999999997157829 474.64420602440344510
1.007140329435330272645 1263.20371125340420804 1.007140329435330272645 465.25987561883079024
1.267914553968893187630 1367.78441966579703148 1.267914553968893187630 452.12777477534729087
1.596209851975103788391 1468.79658400057587642 1.596209851975103788391 437.59360366720369484
2.009509145207687197399 1566.12293901777616156 2.009509145207687197399 423.62616293291881675
2.529822128134711078928 1660.02215764279003452 2.529822128134711078928 411.57532512608588604
3.184857364427983839050 1750.95923214171193649 3.184857364427983839050 402.12367574259872072
4.009497869018190385759 1839.45794814715441134 4.009497869018190385759 395.39171483703364629
5.009497869018190385759 1923.16150974354286518 5.009497869018190385759 391.18292172632675374
6.009497869018190385759 1990.42716536653324511 6.009497869018190385759 389.16209971368078868
7.009497869018204596614 2046.58774715283129808 7.009497869018204596614 388.23720185079315570
8.009497869018190385759 2094.71848054827478336 8.009497869018190385759 388.00434323971802542
9.009497869018204596614 2136.79590784462516240 9.009497869018204596614 388.07593013542606286
10.009497869018190385759 2174.08080592686383170 10.009497869018190385759 388.17326279191570393
11.009497869018190385759 2207.55206897348716666 11.009497869018190385759 388.20204018440551863
12.009497869018190385759 2237.82506707183347316 12.009497869018190385759 388.50110419593335109
13.009497869018190385759 2265.42778953610422832 13.009497869018190385759 388.63487847603153114
14.009497869018204596614 2290.81164910615234476 14.009497869018204596614 388.70023866438918958
15.009497869018190385759 2314.22600843379859725 15.009497869018190385759 388.94578688855318660
16.009497869018190385759 2335.92904619956607348 16.009497869018190385759 388.94727932041752183
17.009497869018190385759 2356.17253796437353230 17.009497869018190385759 388.66077283935317155
18.009497869018190385759 2375.08334296446992084 18.009497869018190385759 388.76300348255523431
19.009497869018204596614 2392.77927130585476334 19.009497869018204596614 388.74844439586757971
20.009497869018190385759 2409.41676747102337686 20.009497869018190385759 388.75472532914596968
21.009497869018204596614 2425.16453195864232839 21.009497869018204596614 388.53690326086302775
22.009497869018190385759 2440.06283197226048287 22.009497869018190385759 388.43665580223176903
23.009497869018190385759 2454.17051648600590852 23.009497869018190385759 388.98502323966710037
24.009497869018190385759 2467.53020454787065319 24.009497869018190385759 389.05270273290233263
25.009497869018190385759 2480.23766492947197548 25.009497869018190385759 389.04232062211519860
26.009497869018204596614 2492.40632238189891723 26.009497869018204596614 389.23564067305704839
27.009497869018190385759 2504.04903438639530577 27.009497869018190385759 389.11708606580407377
28.009497869018190385759 2515.17474945201183800 28.009497869018190385759 389.25542754421098834
29.009497869018190385759 2525.81707981302952248 29.009497869018190385759 389.70415601542322293
30.009497869018190385759 2535.99107119079508266 30.009497869018190385759 389.72876591523930756
31.009497869018190385759 2545.74871813125173503 31.009497869018190385759 389.58622062793028817
32.009497869018190385759 2555.14482850149943260 32.009497869018190385759 389.40895631320432813
33.009497869018190385759 2564.20552119175181360 33.009497869018190385759 389.25205108780704677
34.009497869018190385759 2572.93149281207433887 34.009497869018190385759 388.94536549993284780
35.009497869018190385759 2581.32961907717162831 35.009497869018190385759 388.87185515403058389
36.009497869018190385759 2589.42181996518183951 36.009497869018190385759 388.86109415156278146
37.009497869018190385759 2597.22055249687809919 37.009497869018190385759 388.71572259362449131
38.009497869018190385759 2604.73485616075049620 38.009497869018190385759 388.37142505162262296
39.009497869018190385759 2611.99552842890307147 39.009497869018190385759 387.82945899485281416
40.009497869018190385759 2619.02728981300333544 40.009497869018190385759 387.07521453793617638
41.009497869018190385759 2625.85015626893800800 41.009497869018190385759 386.64177309904346203
42.009497869018190385759 2632.45829497207296299 42.009497869018190385759 385.82518529239172267
43.009497869018190385759 2638.85635448427774463 43.009497869018190385759 385.27971140943532191
44.009497869018218807469 2645.04579026335068193 44.009497869018218807469 384.79412689655731583
46.009497869018190385759 2656.85162019202425654 46.009497869018190385759 383.47577584150315033
48.009497869018190385759 2667.89491540157177951 48.009497869018190385759 382.12844564141056480
50.009497869018190385759 2678.30052032178173249 50.009497869018190385759 380.94019320528343542
52.009497869018190385759 2688.17198622213481940 52.009497869018190385759 380.10200443764910005
54.009497869018190385759 2697.52592391206007960 54.009497869018190385759 379.30733755998869583
56.009497869018190385759 2706.38274813920861561 56.009497869018190385759 378.96013952906383793
58.009497869018218807469 2714.80435620955995546 58.009497869018218807469 378.64538972888965418
60.009497869018190385759 2722.88949776647086765 60.009497869018190385759 378.20064188152952056
62.009497869018190385759 2730.61190058168813266 62.009497869018190385759 377.69234552352065748
64.009497869018190385759 2737.99721775396255907 64.009497869018190385759 377.27847950258075116
66.009497869018190385759 2745.06263194327675592 66.009497869018190385759 376.82226449348155484
68.009497869018190385759 2751.81805232609212908 68.009497869018190385759 375.88243485232686680
70.009497869018190385759 2758.26332126964052804 70.009497869018190385759 375.15140647706812160
72.009497869018218807469 2764.43653939392015673 72.009497869018218807469 373.19784061942846165
74.009497869018190385759 2770.36741989490155902 74.009497869018190385759 371.47814209568900878
76.009497869018190385759 2776.07799951338756728 76.009497869018190385759 370.04328950576280022
78.009497869018190385759 2781.55908327024235405 78.009497869018190385759 368.16038230567556866
80.009497869018190385759 2786.81063419181964491 80.009497869018190385759 366.91977766542578365
82.009497869018218807469 2791.83779816492142345 82.009497869018218807469 365.77664705154103331
84.009497869018190385759 2796.65761679039587762 84.009497869018190385759 364.17213244679129502
86.009497869018190385759 2801.23065255750771030 86.009497869018190385759 362.41231121209409594
88.009497869018190385759 2805.60504665774396926 88.009497869018190385759 361.28110767271107306
91.009497869018218807469 2811.87558363187736177 91.009497869018218807469 360.29022948071917654
94.009497869018190385759 2817.88279343940894250 94.009497869018190385759 359.64854239568160210
97.009497869018190385759 2823.64715036436109585 97.009497869018190385759 359.62402664217808024
99.504748934509109403734 2828.25401818294176337 99.504748934509109403734 351.14063607021125790
nan nan nan nan

