Time Pressure difference Time.1 Pressure.1 difference.1
(hr) (psi) (hr) (psi)
0.000200000000006639311 0.81570678380131256 0.000200000000006639311 0.65141740135621828
0.000399999999999067768 1.62853633426391387 0.000399999999999067768 1.69391968903686863
0.000600000000005707079 2.43898874151927325 0.000600000000005707079 2.47318353916957090
0.000799999999998135536 3.24729524510001433 0.000799999999998135536 3.26347234891666416
0.001007140329434719206 4.08235122105902359 0.001007140329434719206 4.08992458186238217
0.001267914553963578328 5.13075548571608842 0.001267914553963578328 5.13337692265081635
0.001596209851982166583 6.44632763465284064 0.001596209851982166583 6.43932036813669040
0.002009509145210586212 8.09612311675886254 0.002009509145210586212 8.07195675747837171
0.002529822128138903281 10.16352379478460044 0.002529822128138903281 10.11027983405850961
0.003184857364445292660 12.75195716676146596 0.003184857364445292660 12.65103732587210139
0.004009497869020606231 15.98934981788163867 0.004009497869020606231 15.81204997458801920
0.005047658755842121536 20.03337326400848895 0.005047658755842121536 19.73580224590774179
0.006354625877804664924 25.07754814611468319 0.006354625877804664924 24.59313168048903719
0.008000000000009777068 31.35818474561241942 0.008000000000009777068 30.58669489044132916
0.010071403294347192059 39.16207675605664207 0.010071403294347192059 37.95371345824066367
0.012679145539692626699 48.83469645787880609 0.012679145539692626699 46.96712329363361249
0.015962098519750611558 60.78840312608807750 0.015962098519750611558 57.93401220755129089
0.020095091452091651263 75.50989720479324774 0.020095091452091651263 71.18978404898848567
0.025298221281346400247 93.56571026854518891 0.025298221281346400247 87.08580935251731603
0.031848573644282396344 115.60392851693545424 0.031848573644282396344 105.96784299132626472
0.040094978690191851456 142.34968394004371817 0.040094978690191851456 128.14195736328230169
0.050476587558421215363 174.59111053606062569 0.050476587558421215363 153.82741526809709853
0.063546258777947173257 213.15303281971287674 0.063546258777947173257 183.09000537955071763
0.079999999999998294697 258.85210560633350951 0.079999999999998294697 215.76131771010673788
0.100714032943542974863 312.43320485005892806 0.100714032943542974863 251.35451362479619775
0.126791455396897845276 374.48567153803497831 0.126791455396897845276 288.97317012194787367
0.159620985197506115583 445.33768085280030391 0.159620985197506115583 327.27179882714062842
0.200950914520774404082 524.95435806381783550 0.200950914520774404082 364.46612452734029830
0.252982212813464002465 612.83711249285875056 0.252982212813464002465 398.46386108990617458
0.318485736442795541734 707.98235727161159048 0.318485736442795541734 427.11166358057482739
0.400949786901819038576 808.89508781030531281 0.400949786901819038576 448.54780982187764948
0.504765875584169521062 913.71043493640843280 0.504765875584169521062 461.60214414419948525
0.635462587779443310865 1020.39148558993019833 0.635462587779443310865 466.08185201063247405
0.799999999999997157829 1126.98185005414302395 0.799999999999997157829 462.86058621247684641
1.007140329435330272645 1231.84314245366704199 1.007140329435330272645 453.70923322511600873
1.267914553968893187630 1333.82750755890037908 1.267914553968893187630 440.90315276007055445
1.596209851975103788391 1432.33192203432508904 1.596209851975103788391 426.72981013028203279
2.009509145207687197399 1527.24203189221066168 2.009509145207687197399 413.10912810340244050
2.529822128134711078928 1618.81008818790451187 2.529822128134711078928 401.35746700478290450
3.184857364427983839050 1707.48953918883921688 3.184857364427983839050 392.14046631502679929
4.009497869018190385759 1793.79116691212061596 4.009497869018190385759 385.57563452826917683
5.009497869018190385759 1875.41668576778465649 5.009497869018190385759 381.47132982646752453
6.009497869018190385759 1941.01238966229948346 6.009497869018190385759 379.50067717858439664
7.009497869018204596614 1995.77871668726947973 7.009497869018204596614 378.59874103026697867
8.009497869018190385759 2042.71454607587452301 8.009497869018190385759 378.37166341748070408
9.009497869018204596614 2083.74735005305092272 9.009497869018204596614 378.44147308141845087
10.009497869018190385759 2120.10660518389340723 10.009497869018190385759 378.53638933630708152
11.009497869018190385759 2152.74690340810730049 11.009497869018190385759 378.56445229502105576
12.009497869018190385759 2182.26833750202649753 12.009497869018190385759 378.85609167865595737
13.009497869018190385759 2209.18578880283439503 13.009497869018190385759 378.98654484951634913
14.009497869018204596614 2233.93946317998188533 14.009497869018204596614 379.05028239168836990
15.009497869018190385759 2256.77253255411187638 15.009497869018190385759 379.28973458248179895
16.009497869018190385759 2277.93676600593198600 16.009497869018190385759 379.29118996290964105
17.009497869018190385759 2297.67768846178250897 17.009497869018190385759 379.01179635376843180
18.009497869018190385759 2316.11900972304829338 18.009497869018190385759 379.11148899689101199
19.009497869018204596614 2333.37561511653348134 19.009497869018204596614 379.09729135724126081
20.009497869018190385759 2349.60006520014394482 20.009497869018190385759 379.10341635871031940
21.009497869018204596614 2364.95687227744429038 21.009497869018204596614 378.89100198824968402
22.009497869018190385759 2379.48530386967195227 22.009497869018190385759 378.79324329472854060
23.009497869018190385759 2393.24274795358269330 23.009497869018190385759 379.32799684344894331
24.009497869018190385759 2406.27076550745641725 24.009497869018190385759 379.39399611093364229
25.009497869018190385759 2418.66274772665519777 25.009497869018190385759 379.38387174867642671
26.009497869018204596614 2430.52930345484037389 26.009497869018204596614 379.57239239418277066
27.009497869018190385759 2441.88297097064560148 27.009497869018190385759 379.45678104927469576
28.009497869018190385759 2452.73247662549738379 28.009497869018190385759 379.59168803218983612
29.009497869018190385759 2463.11059818907096997 29.009497869018190385759 380.02927627323293791
30.009497869018190385759 2473.03200785437957165 30.009497869018190385759 380.05327520234851590
31.009497869018190385759 2482.54740933951279658 31.009497869018190385759 379.91426877520115113
32.009497869018190385759 2491.71024983959523524 32.009497869018190385759 379.74140526272759644
33.009497869018190385759 2500.54599981161891264 33.009497869018190385759 379.58839540042350791
34.009497869018190385759 2509.05533857145701404 34.009497869018190385759 379.28932365534660676
35.009497869018190385759 2517.24497113583174723 35.009497869018190385759 379.21763829320559580
36.009497869018190385759 2525.13627329275959710 36.009497869018190385759 379.20714444571467538
37.009497869018190385759 2532.74139280231838711 37.009497869018190385759 379.06538191354445644
38.009497869018190385759 2540.06914473669985455 38.009497869018190385759 378.72963197685538717
39.009497869018190385759 2547.14956198329991821 39.009497869018190385759 378.20112088673829476
40.009497869018190385759 2554.00675133700951847 40.009497869018190385759 377.46560146599142627
41.009497869018190385759 2560.66023183326433355 41.009497869018190385759 377.04292073809398289
42.009497869018190385759 2567.10431545439450929 42.009497869018190385759 376.24660571710887780
43.009497869018190385759 2573.34353535606851437 43.009497869018190385759 375.71467388685749711
44.009497869018218807469 2579.37931086257276547 44.009497869018218807469 375.24114460021780815
46.009497869018190385759 2590.89204670165645439 46.009497869018190385759 373.95552321385906680
48.009497869018190385759 2601.66117867362845573 48.009497869018190385759 372.64164212499025552
50.009497869018190385759 2611.80845179343532436 50.009497869018190385759 371.48288950108076278
52.009497869018190385759 2621.43484654432631942 52.009497869018190385759 370.66550978924669835
54.009497869018190385759 2630.55656135217714109 54.009497869018190385759 369.89057148352424065
56.009497869018190385759 2639.19350414369682767 56.009497869018190385759 369.55199306607812559
58.009497869018218807469 2647.40603554894505578 58.009497869018218807469 369.24505731258153673
60.009497869018190385759 2655.29045363125533186 60.009497869018190385759 368.81135087156098962
62.009497869018190385759 2662.82113840240117497 62.009497869018190385759 368.31567358897444819
64.009497869018190385759 2670.02310609174901401 64.009497869018190385759 367.91208229546606390
66.009497869018190385759 2676.91311277884597075 66.009497869018190385759 367.46719337894626278
68.009497869018190385759 2683.50082163279330416 68.009497869018190385759 366.55069615192149968
70.009497869018190385759 2689.78607893424714348 70.009497869018190385759 365.83781644536338717
72.009497869018218807469 2695.80603940896662607 72.009497869018218807469 363.93275023662238254
74.009497869018190385759 2701.58967858668620465 74.009497869018190385759 362.25574532072158718
76.009497869018190385759 2707.15848611931141932 76.009497869018190385759 360.85651469181641460
78.009497869018190385759 2712.50349530424819022 78.009497869018190385759 359.02035295349890021
80.009497869018190385759 2717.62467008576686567 80.009497869018190385759 357.81054783261976127
82.009497869018218807469 2722.52702859776854893 82.009497869018218807469 356.69579682682547173
84.009497869018190385759 2727.22718936262981515 84.009497869018190385759 355.13111624900602692
86.009497869018190385759 2731.68669395379629350 86.009497869018190385759 353.41498471725566333
88.009497869018190385759 2735.95248839911118921 88.009497869018190385759 352.31186468182949056
91.009497869018218807469 2742.06735166484941146 91.009497869018218807469 351.34558624634178159
94.009497869018190385759 2747.92542518123082118 94.009497869018190385759 350.71982982379279292
97.009497869018190385759 2753.54667493326996919 97.009497869018190385759 350.69592270369298603
99.504748934509109403734 2758.03917165406983258 99.504748934509109403734 342.42314262258929602
nan nan nan nan

