Time Pressure difference Time.1 Pressure.1 difference.1
(hr) (psi) (hr) (psi)
0.000200000000006639311 0.24006034676026408 0.000200000000006639311 0.19171041648874448
0.000399999999999067768 0.47927393136687485 0.000399999999999067768 0.49851607956380339
0.000600000000005707079 0.71778792902145616 0.000600000000005707079 0.72785136743381462
0.000799999999998135536 0.95567039290621603 0.000799999999998135536 0.96043127172802023
0.001007140329434719206 1.20142515568845010 0.001007140329434719206 1.20365397572121036
0.001267914553963578328 1.50996775496125224 0.001267914553963578328 1.51073923691047440
0.001596209851982166583 1.89713715520842241 0.001596209851982166583 1.89507493522556358
0.002009509145210586212 2.38266759749828028 0.002009509145210586212 2.37555550194628262
0.002529822128138903281 2.99109814327163859 0.002529822128138903281 2.97542858660174092
0.003184857364445292660 3.75286723135851696 0.003184857364445292660 3.72316678938598455
0.004009497869020606231 4.70562331707514581 0.004009497869020606231 4.65344444262315449
0.005047658755842121536 5.89576871007989034 0.005047658755842121536 5.80819434731908135
0.006354625877804664924 7.38025602263456548 0.006354625877804664924 7.23769353936999149
0.008000000000009777068 9.22863074489001001 0.008000000000009777068 9.00158332315432119
0.010071403294347192059 11.52529550152787152 0.010071403294347192059 11.16967738231319096
0.012679145539692626699 14.37192186998673549 0.012679145539692626699 13.82230003244410632
0.015962098519750611558 17.88986609311553266 0.015962098519750611558 17.04982640324065457
0.020095091452091651263 22.22236282299923005 0.020095091452091651263 20.95096495942735970
0.025298221281346400247 27.53614080204639336 0.025298221281346400247 25.62912311901985518
0.031848573644282396344 34.02193008288629983 0.031848573644282396344 31.18605562575691437
0.040094978690191851456 41.89313509029799576 0.040094978690191851456 37.71183877595578338
0.050476587558421215363 51.38170157323983034 0.050476587558421215363 45.27100103103875739
0.063546258777947173257 62.73037320254278626 0.063546258777947173257 53.88290382351339503
0.079999999999998294697 76.17948932813683882 0.079999999999998294697 63.49798453993977176
0.100714032943542974863 91.94826497114769381 0.100714032943542974863 73.97296785902861416
0.126791455396897845276 110.21014162371905343 0.126791455396897845276 85.04403886480950803
0.159620985197506115583 131.06170037317647825 0.159620985197506115583 96.31522389108314997
0.200950914520774404082 154.49267767865919154 0.200950914520774404082 107.26141546680381111
0.252982212813464002465 180.35633962366210881 0.252982212813464002465 117.26685932279316660
0.318485736442795541734 208.35733324999569049 0.318485736442795541734 125.69783174621805699
0.400949786901819038576 238.05568266515098230 0.400949786901819038576 132.00643282945279111
0.504765875584169521062 268.90256180918737527 0.504765875584169521062 135.84828885710149393
0.635462587779443310865 300.29851256159861350 0.635462587779443310865 137.16665502145903588
0.799999999999997157829 331.66777460860220117 0.799999999999997157829 136.21864502587149559
1.007140329435330272645 362.52817532495907926 1.007140329435330272645 133.52542607134270725
1.267914553968893187630 392.54190395572521766 1.267914553968893187630 129.75663049659917192
1.596209851975103788391 421.53149232985737171 1.596209851975103788391 125.58545328681417175
2.009509145207687197399 449.46328637153652608 2.009509145207687197399 121.57692262920905080
2.529822128134711078928 476.41152289847701695 2.529822128134711078928 118.11843988226299018
3.184857364427983839050 502.50965053520826586 3.184857364427983839050 115.40590098273190733
4.009497869018190385759 527.90799107698865100 4.009497869018190385759 113.47388836931752110
5.009497869018190385759 551.93016515976557912 5.009497869018190385759 112.26600236237182173
6.009497869018190385759 571.23480714094148425 6.009497869018190385759 111.68604450571375253
7.009497869018204596614 587.35239218189497024 7.009497869018204596614 111.42060708528224211
8.009497869018190385759 601.16548250094479044 8.009497869018190385759 111.35377874506306739
9.009497869018204596614 613.24132807060243522 9.009497869018204596614 111.37432354432785075
10.009497869018190385759 623.94176058874245427 10.009497869018190385759 111.40225714683579383
11.009497869018190385759 633.54771393578732841 11.009497869018190385759 111.41051600128420773
12.009497869018190385759 642.23579382697107576 12.009497869018190385759 111.49634469972664874
13.009497869018190385759 650.15752847659791769 13.009497869018190385759 111.53473672251550397
14.009497869018204596614 657.44246930653230265 14.009497869018204596614 111.55349451242152270
15.009497869018190385759 664.16218116918355463 15.009497869018190385759 111.62396465818457614
16.009497869018190385759 670.39075903840569026 16.009497869018190385759 111.62439297279112793
17.009497869018190385759 676.20046024995428979 17.009497869018190385759 111.54216817335955625
18.009497869018190385759 681.62769227083595069 18.009497869018190385759 111.57150745427850325
19.009497869018204596614 686.70626554855209633 19.009497869018204596614 111.56732912652009304
20.009497869018190385759 691.48107825136605697 20.009497869018190385759 111.56913169823552323
21.009497869018204596614 696.00054591464504483 21.009497869018204596614 111.50661871140954418
22.009497869018190385759 700.27622486592179030 22.009497869018190385759 111.47784858673782082
23.009497869018190385759 704.32500423481201324 23.009497869018190385759 111.63522514028181831
24.009497869018190385759 708.15911530718426548 24.009497869018190385759 111.65464854995907729
25.009497869018190385759 711.80604286456548380 25.009497869018190385759 111.65166897695263515
26.009497869018204596614 715.29833879679119946 26.009497869018204596614 111.70715010378698651
27.009497869018190385759 718.63969308606567665 27.009497869018190385759 111.67312599107981441
28.009497869018190385759 721.83267387450996466 28.009497869018190385759 111.71282875896423548
29.009497869018190385759 724.88692757295484626 29.009497869018190385759 111.84160981971928095
30.009497869018190385759 727.80677216895708170 30.009497869018190385759 111.84867264101703199
31.009497869018190385759 730.60712963250421126 31.009497869018190385759 111.80776341754901182
32.009497869018190385759 733.30372933161208948 32.009497869018190385759 111.75689014351146966
33.009497869018190385759 735.90406715433596219 33.009497869018190385759 111.71185974615315217
34.009497869018190385759 738.40834302153871249 34.009497869018190385759 111.62384372341666960
35.009497869018190385759 740.81853020188941628 35.009497869018190385759 111.60274691113687595
36.009497869018190385759 743.14091953320519224 36.009497869018190385759 111.59965859960442458
37.009497869018190385759 745.37908606911400966 37.009497869018190385759 111.55793826172539696
38.009497869018190385759 747.53562406202263446 38.009497869018190385759 111.45912794430877568
39.009497869018190385759 749.61937211117481183 39.009497869018190385759 111.30358852980383233
40.009497869018190385759 751.63742478248059342 40.009497869018190385759 111.08712711168179510
41.009497869018190385759 753.59552647638827239 41.009497869018190385759 110.96273329257552120
42.009497869018190385759 755.49200322435865473 42.009497869018190385759 110.72837989026932348
43.009497869018190385759 757.32818912210154849 43.009497869018190385759 110.57183376099980876
44.009497869018218807469 759.10450187299738900 44.009497869018218807469 110.43247534568526191
46.009497869018190385759 762.49266954865447588 46.009497869018190385759 110.05412037556546068
48.009497869018190385759 765.66199657502909304 48.009497869018190385759 109.66744864981892249
50.009497869018190385759 768.64831218768108556 50.009497869018190385759 109.32643082058282857
52.009497869018190385759 771.48133467546858810 52.009497869018190385759 109.08587813553185697
54.009497869018190385759 774.16583119223957965 54.009497869018190385759 108.85781584392923094
56.009497869018190385759 776.70766058811454968 56.009497869018190385759 108.75817311211464755
58.009497869018218807469 779.12458683670593018 58.009497869018218807469 108.66784273252144999
60.009497869018190385759 781.44495020308841049 60.009497869018190385759 108.54020407523537983
62.009497869018190385759 783.66121079256004123 62.009497869018190385759 108.39432756335399688
64.009497869018190385759 785.78073081518880372 64.009497869018190385759 108.27555171424612013
66.009497869018190385759 787.80844154082137720 66.009497869018190385759 108.14462208402797216
68.009497869018190385759 789.74718681453896352 68.009497869018190385759 107.87489937668566142
70.009497869018190385759 791.59692139714604764 70.009497869018190385759 107.66510076650713756
72.009497869018218807469 793.36857982606045425 72.009497869018218807469 107.10444482523816134
74.009497869018190385759 795.07068952296572206 74.009497869018190385759 106.61090671862375245
76.009497869018190385759 796.70957483552035683 76.009497869018190385759 106.19911684922091410
78.009497869018190385759 798.28259688689172435 78.009497869018190385759 105.65873931116209405
80.009497869018190385759 799.78974506597410254 80.009497869018190385759 105.30269686723738687
82.009497869018218807469 801.23249619628836626 82.009497869018218807469 104.97462859771137289
84.009497869018190385759 802.61574106496948389 84.009497869018190385759 104.51414724639791132
86.009497869018190385759 803.92816145890742519 86.009497869018190385759 104.00909428033287440
88.009497869018190385759 805.18357346979939848 88.009497869018190385759 103.68444897459137621
91.009497869018218807469 806.98316153884059077 91.009497869018218807469 103.40007578940202393
94.009497869018190385759 808.70717706453740448 94.009497869018190385759 103.21591733103474553
97.009497869018190385759 810.36149598341637557 97.009497869018190385759 103.20888152888726097
99.504748934509109403734 811.68362587375384010 99.504748934509109403734 100.77422425450949106
nan nan nan nan

