Time Pressure difference Time.1 Pressure.1 difference.1
(hr) (psi) (hr) (psi)
0.000200000000006639311 0.41948261285098043 0.000200000000006639311 0.33499571047341165
0.000399999999999067768 0.83748558941270512 0.000399999999999067768 0.87110941238657691
0.000600000000005707079 1.25426610434545105 0.000600000000005707079 1.27185100537742701
0.000799999999998135536 1.66994307410947762 0.000799999999998135536 1.67826225682577945
0.001007140329434719206 2.09937613710265492 0.001007140329434719206 2.10327078802495215
0.001267914553963578328 2.63852496974198036 0.001267914553963578328 2.63987306103733443
0.001596209851982166583 3.31506665529499411 0.001596209851982166583 3.31146312210695370
0.002009509145210586212 4.16348490220287637 0.002009509145210586212 4.15105719198225920
0.002529822128138903281 5.22665938530165253 0.002529822128138903281 5.19927832606878493
0.003184857364445292660 6.55777838005553981 0.003184857364445292660 6.50587968387516380
0.004009497869020606231 8.22262897966418294 0.004009497869020606231 8.13145136167713822
0.005047658755842121536 10.30229480481088089 0.005047658755842121536 10.14926693908697430
0.006354625877804664924 12.89629512605693940 0.006354625877804664924 12.64718075218631732
0.008000000000009777068 16.12615406979050192 0.008000000000009777068 15.72941030516585670
0.010071403294347192059 20.13935719125112556 0.010071403294347192059 19.51794836701785840
0.012679145539692626699 25.11356589738166889 0.012679145539692626699 24.15315403593174537
0.015962098519750611558 31.26083867482126166 0.015962098519750611558 29.79294925133747540
0.020095091452091651263 38.83146444849347034 0.020095091452091651263 36.60981766266719006
0.025298221281346400247 48.11678583056549741 0.025298221281346400247 44.78445389309698754
0.031848573644282396344 59.45008543895356468 0.031848573644282396344 54.49466467476554499
0.040094978690191851456 73.20426719930964055 0.040094978690191851456 65.89784976421340446
0.050476587558421215363 89.78463423697617429 0.050476587558421215363 79.10676650752446903
0.063546258777947173257 109.61535801828411252 0.063546258777947173257 94.15524716565489882
0.079999999999998294697 133.11640868757476142 0.079999999999998294697 110.95668578778402491
0.100714032943542974863 160.67084363470442554 0.100714032943542974863 129.26072238342368337
0.126791455396897845276 192.58173536324608222 0.126791455396897845276 148.60636549041106491
0.159620985197506115583 229.01785013305922689 0.159620985197506115583 168.30168880621795324
0.200950914520774404082 269.96125338312418762 0.200950914520774404082 187.42911699216583088
0.252982212813464002465 315.15554155691819460 0.252982212813464002465 204.91267805539982305
0.318485736442795541734 364.08461346452531870 0.318485736442795541734 219.64500011017341308
0.400949786901819038576 415.97965310000432737 0.400949786901819038576 230.66868020371509829
0.504765875584169521062 469.88163914754204598 0.504765875584169521062 237.38195803749567858
0.635462587779443310865 524.74307558341627100 0.635462587779443310865 239.68567745964298865
0.799999999999997157829 579.55787604617341913 0.799999999999997157829 238.02912020091730483
1.007140329435330272645 633.48348975468627486 1.007140329435330272645 233.32297635303828542
1.267914553968893187630 685.92962455931228760 1.267914553968893187630 226.73736470859023484
1.596209851975103788391 736.58617171826290360 1.596209851975103788391 219.44862944581714714
2.009509145207687197399 785.39432393642198349 2.009509145207687197399 212.44410355623037390
2.529822128134711078928 832.48380298868812588 2.529822128134711078928 206.40073405032114806
3.184857364427983839050 878.08779764802829959 3.184857364427983839050 201.66083043695368815
4.009497869018190385759 922.46898094767914245 4.009497869018190385759 198.28482223704270382
5.009497869018190385759 964.44544431031692966 5.009497869018190385759 196.17415637715490107
6.009497869018190385759 998.17846922552064370 6.009497869018190385759 195.16073520894616422
7.009497869018204596614 1026.34241540434959461 7.009497869018204596614 194.69690857462813938
8.009497869018190385759 1050.47947634248134818 8.009497869018190385759 194.58013240919325426
9.009497869018204596614 1071.58086738980705377 9.009497869018204596614 194.61603249095350066
10.009497869018190385759 1090.27885500801016860 10.009497869018190385759 194.66484380329436021
11.009497869018190385759 1107.06434442066620250 11.009497869018190385759 194.67927536556584300
12.009497869018190385759 1122.24593731010531883 12.009497869018190385759 194.82925284900332485
13.009497869018190385759 1136.08841481204831325 13.009497869018190385759 194.89633925560667649
14.009497869018204596614 1148.81815570864637266 14.009497869018204596614 194.92911670855664852
15.009497869018190385759 1160.56021276968067468 15.009497869018190385759 195.05225658264083677
16.009497869018190385759 1171.44405991140092738 16.009497869018190385759 195.05300502165923149
17.009497869018190385759 1181.59595995234235488 17.009497869018190385759 194.90932500881166334
18.009497869018190385759 1191.07953147672037630 18.009497869018190385759 194.96059261041747845
19.009497869018204596614 1199.95385502428666769 19.009497869018204596614 194.95329138025135762
20.009497869018190385759 1208.29738587176439069 20.009497869018190385759 194.95644120279908407
21.009497869018204596614 1216.19472556019286458 21.009497869018204596614 194.84720570678828722
22.009497869018190385759 1223.66606767228540775 22.009497869018190385759 194.79693265156609527
23.009497869018190385759 1230.74092435494821984 23.009497869018190385759 195.07193320360664757
24.009497869018190385759 1237.44066861635997157 24.009497869018190385759 195.10587376376932411
25.009497869018190385759 1243.81332749690523087 25.009497869018190385759 195.10066724346395972
26.009497869018204596614 1249.91578232657275294 26.009497869018204596614 195.19761523326101837
27.009497869018190385759 1255.75448099814252600 27.009497869018190385759 195.13816133389380525
28.009497869018190385759 1261.33391109559693177 28.009497869018190385759 195.20753814282676331
29.009497869018190385759 1266.67092880395216525 29.009497869018190385759 195.43257079224301265
30.009497869018190385759 1271.77307939558227190 30.009497869018190385759 195.44491240039309332
31.009497869018190385759 1276.66643759313001283 31.009497869018190385759 195.37342742512890936
32.009497869018190385759 1281.37848897046387719 32.009497869018190385759 195.28453121963079298
33.009497869018190385759 1285.92233187868396271 33.009497869018190385759 195.20584488514654709
34.009497869018190385759 1290.29831566047414526 34.009497869018190385759 195.05204526064156312
35.009497869018190385759 1294.50988841506614335 35.009497869018190385759 195.01518058866480487
36.009497869018190385759 1298.56804278293634525 36.009497869018190385759 195.00978405813228278
37.009497869018190385759 1302.47902583011273236 37.009497869018190385759 194.93688173761705684
38.009497869018190385759 1306.24737076581823203 38.009497869018190385759 194.76422011029734449
39.009497869018190385759 1309.88852220118792502 39.009497869018190385759 194.49242978391328052
40.009497869018190385759 1313.41487721506109665 40.009497869018190385759 194.11418405328478798
41.009497869018190385759 1316.83647360060922438 41.009497869018190385759 193.89681769117868271
42.009497869018190385759 1320.15038625709712505 42.009497869018190385759 193.48730742071282407
43.009497869018190385759 1323.35894638983154437 43.009497869018190385759 193.21375795607232817
44.009497869018218807469 1326.46288389572214328 44.009497869018218807469 192.97024238605902724
46.009497869018190385759 1332.38338450543437830 46.009497869018190385759 192.30910307841023155
48.009497869018190385759 1337.92148190446255285 48.009497869018190385759 191.63343103169052029
50.009497869018190385759 1343.13978427259144155 50.009497869018190385759 191.03753482489386784
52.009497869018190385759 1348.09022149173574689 52.009497869018190385759 190.61719189772870209
54.009497869018190385759 1352.78112370962276145 54.009497869018190385759 190.21867474458221636
56.009497869018190385759 1357.22272870933488775 56.009497869018190385759 190.04455855231105943
58.009497869018218807469 1361.44607734441683533 58.009497869018218807469 189.88671480942329595
60.009497869018190385759 1365.50069153134836597 60.009497869018190385759 189.66367840136283007
62.009497869018190385759 1369.37339602160136565 62.009497869018190385759 189.40877307783310357
64.009497869018190385759 1373.07705557671397401 64.009497869018190385759 189.20122358371725113
66.009497869018190385759 1376.62028712150436149 66.009497869018190385759 188.97243651361287675
68.009497869018190385759 1380.00806000464399403 68.009497869018190385759 188.50112174818772814
70.009497869018190385759 1383.24029517494386710 70.009497869018190385759 188.13451864043636874
72.009497869018218807469 1386.33609969605709011 72.009497869018218807469 187.15482573268258193
74.009497869018190385759 1389.31037442594356435 74.009497869018190385759 186.29241485434255310
76.009497869018190385759 1392.17417056033855260 76.009497869018190385759 185.57285124171821167
78.009497869018190385759 1394.92287691308069952 78.009497869018190385759 184.62859291396839012
80.009497869018190385759 1397.55647494227309835 80.009497869018190385759 184.00644262268124862
82.009497869018218807469 1400.07754525648988420 82.009497869018218807469 183.43317453925342875
84.009497869018190385759 1402.49463404086372975 84.009497869018190385759 182.62852719526276246
86.009497869018190385759 1404.78796379497680391 86.009497869018190385759 181.74599519573737894
88.009497869018190385759 1406.98167682438997872 88.009497869018190385759 181.17870841580844399
91.009497869018218807469 1410.12628573396023057 91.009497869018218807469 180.68179333442222401
94.009497869018190385759 1413.13883881519518582 94.009497869018190385759 180.35999395215415575
97.009497869018190385759 1416.02960370804612467 97.009497869018190385759 180.34769955739812985
99.504748934509109403734 1418.33989988320308839 99.504748934509109403734 176.09336764196294212
nan nan nan nan

