Time Pressure difference Time.1 Pressure.1 difference.1
(hr) (psi) (hr) (psi)
0.000200000000006639311 0.55321865377970891 0.000200000000006639311 0.44179632311939038
0.000399999999999067768 1.10448594564131031 0.000399999999999067768 1.14882944287021838
0.000600000000005707079 1.65414104058231781 0.000600000000005707079 1.67733221699280466
0.000799999999998135536 2.20234076704339055 0.000799999999998135536 2.21331220405142393
0.001007140329434719206 2.76868219269379834 0.001007140329434719206 2.77381850460320445
0.001267914553963578328 3.47971807890724527 0.001267914553963578328 3.48149595772448395
0.001596209851982166583 4.37194929193359627 0.001596209851982166583 4.36719690955095263
0.002009509145210586212 5.49085335617250703 0.002009509145210586212 5.47446354427759285
0.002529822128138903281 6.89298049625920939 0.002529822128138903281 6.85687003002338891
0.003184857364445292660 8.64847604181582064 0.003184857364445292660 8.58003142467496893
0.004009497869020606231 10.84410079298286256 0.004009497869020606231 10.72385466708311696
0.005047658755842121536 13.58678879208722101 0.005047658755842121536 13.38497382461767415
0.006354625877804664924 17.00778723555232119 0.006354625877804664924 16.67925223951700531
0.008000000000009777068 21.26736358510984815 0.008000000000009777068 20.74413319453556426
0.010071403294347192059 26.56002354331336335 0.010071403294347192059 25.74050220283939439
0.012679145539692626699 33.12006908446770126 0.012679145539692626699 31.85346651075354529
0.015962098519750611558 41.22716546025932161 0.015962098519750611558 39.29129544829853415
0.020095091452091651263 51.21139667860722966 0.020095091452091651263 48.28146250165613651
0.025298221281346400247 63.45698883793389911 0.025298221281346400247 59.06226988673780198
0.031848573644282396344 78.40347901454073565 0.031848573644282396344 71.86821123444327952
0.040094978690191851456 96.54265733611926237 0.040094978690191851456 86.90686721379429969
0.050476587558421215363 118.40904237985373015 0.050476587558421215363 104.32694355249762452
0.063546258777947173257 144.56203651520240783 0.063546258777947173257 124.17305863826962309
0.079999999999998294697 175.55550135826692326 0.079999999999998294697 146.33099551418644069
0.100714032943542974863 211.89461754596663923 0.100714032943542974863 170.47057645021817507
0.126791455396897845276 253.97908069687503030 0.126791455396897845276 195.98384042893815149
0.159620985197506115583 302.03146175963848918 0.159620985197506115583 221.95826682166566002
0.200950914520774404082 356.02810842210038800 0.200950914520774404082 247.18374636986624182
0.252982212813464002465 415.63087262753970208 0.252982212813464002465 270.24127442553714218
0.318485736442795541734 480.15911399479978172 0.318485736442795541734 289.67043578886233490
0.400949786901819038576 548.59890884079777607 0.400949786901819038576 304.20859607064210195
0.504765875584169521062 619.68548845992677343 0.504765875584169521062 313.06214663954875732
0.635462587779443310865 692.03740265060434922 0.635462587779443310865 316.10031918440046184
0.799999999999997157829 764.32781276584444186 0.799999999999997157829 313.91563178972461401
1.007140329435330272645 835.44555282499220539 1.007140329435330272645 307.70911336856136131
1.267914553968893187630 904.61213852772664268 1.267914553968893187630 299.02393048697251743
1.596209851975103788391 971.41859478091703295 1.596209851975103788391 289.41145982359250866
2.009509145207687197399 1035.78736582506326158 2.009509145207687197399 280.17380785831568346
2.529822128134711078928 1097.88953027815114183 2.529822128134711078928 272.20374035151263570
3.184857364427983839050 1158.03262026452830469 3.184857364427983839050 265.95269915051710541
4.009497869018190385759 1216.56305210129562511 4.009497869018190385759 261.50037942548601677
5.009497869018190385759 1271.92211071420001645 5.009497869018190385759 258.71680821224788360
6.009497869018190385759 1316.40962476078561849 6.009497869018190385759 257.38029633496665838
7.009497869018204596614 1353.55257160256769566 7.009497869018204596614 256.76859625881650118
8.009497869018190385759 1385.38481434473783338 8.009497869018190385759 256.61459046440143084
9.009497869018204596614 1413.21357956754741281 9.009497869018204596614 256.66193591876242408
10.009497869018190385759 1437.87270779274240340 10.009497869018190385759 256.72630885741398288
11.009497869018190385759 1460.00961066171066705 11.009497869018190385759 256.74534137320165428
12.009497869018190385759 1480.03127573966344244 12.009497869018190385759 256.94313346026973477
13.009497869018190385759 1498.28689953430557580 13.009497869018190385759 257.03160781036444860
14.009497869018204596614 1515.07503307318529551 14.009497869018204596614 257.07483510474992272
15.009497869018190385759 1530.56059743486594016 15.009497869018190385759 257.23723343374018668
16.009497869018190385759 1544.91434435840187689 16.009497869018190385759 257.23822048401001439
17.009497869018190385759 1558.30279074902978209 17.009497869018190385759 257.04873357597739414
18.009497869018190385759 1570.80983755147667580 18.009497869018190385759 257.11634589809511908
19.009497869018204596614 1582.51340088351457780 19.009497869018204596614 257.10671694900474904
20.009497869018190385759 1593.51694849622776928 20.009497869018190385759 257.11087097240431376
21.009497869018204596614 1603.93205390710591018 21.009497869018204596614 256.96680990241782183
22.009497869018190385759 1613.78534865295478085 22.009497869018190385759 256.90050919988715350
23.009497869018190385759 1623.11575370375362581 23.009497869018190385759 257.26318319525154266
24.009497869018190385759 1631.95145603662535905 24.009497869018190385759 257.30794440924825039
25.009497869018190385759 1640.35579428304731664 25.009497869018190385759 257.30107798840981559
26.009497869018204596614 1648.40378421682680710 26.009497869018204596614 257.42893414921155681
27.009497869018190385759 1656.10392939557004865 27.009497869018190385759 257.35052564034310763
28.009497869018190385759 1663.46214809835169035 28.009497869018190385759 257.44202060024281309
29.009497869018190385759 1670.50067046224171463 29.009497869018190385759 257.73879633194826511
30.009497869018190385759 1677.22944728209472487 30.009497869018190385759 257.75507259140948690
31.009497869018190385759 1683.68286621192987695 31.009497869018190385759 257.66079735670462014
32.009497869018190385759 1689.89717555312677177 32.009497869018190385759 257.54355998470117584
33.009497869018190385759 1695.88964956673953566 33.009497869018190385759 257.43978751189621335
34.009497869018190385759 1701.66074897005114508 34.009497869018190385759 257.23695473977682013
35.009497869018190385759 1707.21502115729526849 35.009497869018190385759 257.18833717237771452
36.009497869018190385759 1712.56696335333776915 36.009497869018190385759 257.18122016379430761
37.009497869018190385759 1717.72481426307922447 37.009497869018190385759 257.08507571733258601
38.009497869018190385759 1722.69455233670282723 38.009497869018190385759 256.85736751179803150
39.009497869018190385759 1727.49654611087362355 39.009497869018190385759 256.49892720017078318
40.009497869018190385759 1732.14714500045693057 40.009497869018190385759 256.00009223660924818
41.009497869018190385759 1736.65958696634811531 41.009497869018190385759 255.71342689569308959
42.009497869018190385759 1741.03001435094392946 42.009497869018190385759 255.17335988553412562
43.009497869018190385759 1745.26150157550046060 43.009497869018190385759 254.81259960147360744
44.009497869018218807469 1749.35501123673452639 44.009497869018218807469 254.49144837448574208
46.009497869018190385759 1757.16303778340443387 46.009497869018190385759 253.61953000043803286
48.009497869018190385759 1764.46674643241999547 48.009497869018190385759 252.72844567743734956
50.009497869018190385759 1771.34870559514047272 50.009497869018190385759 251.94257067995906141
52.009497869018190385759 1777.87740101682402383 52.009497869018190385759 251.38821743344018955
54.009497869018190385759 1784.06381859526482003 54.009497869018190385759 250.86264827701336344
56.009497869018190385759 1789.92146004043001994 56.009497869018190385759 250.63302177393893544
58.009497869018218807469 1795.49126239877546141 58.009497869018218807469 250.42485557044736311
60.009497869018190385759 1800.83853576213459746 60.009497869018190385759 250.13071250555969982
62.009497869018190385759 1805.94590445621088293 62.009497869018190385759 249.79454033631057541
64.009497869018190385759 1810.83033468136932242 64.009497869018190385759 249.52082159753604174
66.009497869018190385759 1815.50319054043961842 66.009497869018190385759 249.21909449122014735
68.009497869018190385759 1819.97102566949115499 68.009497869018190385759 248.59751897879809235
70.009497869018190385759 1824.23373581487635420 70.009497869018190385759 248.11403844461509038
72.009497869018218807469 1828.31651959915643602 72.009497869018218807469 246.82200779795368817
74.009497869018190385759 1832.23902845084830915 74.009497869018190385759 245.68465008513297221
76.009497869018190385759 1836.01583681818874538 76.009497869018190385759 244.73568104353330455
78.009497869018190385759 1839.64086341408255976 78.009497869018190385759 243.49038194198601559
80.009497869018190385759 1843.11408378525516127 80.009497869018190385759 242.66988274595189523
82.009497869018218807469 1846.43890126895507819 82.009497869018218807469 241.91384998642135429
84.009497869018190385759 1849.62658667567370685 84.009497869018190385759 240.85267150900000388
86.009497869018190385759 1852.65105720288011071 86.009497869018190385759 239.68877782249720099
88.009497869018190385759 1855.54415200998778346 88.009497869018190385759 238.94063327708599331
91.009497869018218807469 1859.69129960161876625 91.009497869018218807469 238.28529576381225752
94.009497869018190385759 1863.66429039786135036 94.009497869018190385759 237.86090291511811756
97.009497869018190385759 1867.47666548427469024 97.009497869018190385759 237.84468892124192507
99.504748934509109403734 1870.52351152913502119 99.504748934509109403734 232.23402544464815378
nan nan nan nan

