Time Pressure difference Time.1 Pressure.1 difference.1
(hr) (psi) (hr) (psi)
0.000200000000006639311 0.07808191209503398 0.000200000000006639311 0.06235563719703108
0.000399999999999067768 0.15588840674216689 0.000399999999999067768 0.16214709854324405
0.000600000000005707079 0.23346735407618296 0.000600000000005707079 0.23674058317916463
0.000799999999998135536 0.31084088904216023 0.000799999999998135536 0.31238941018143218
0.001007140329434719206 0.39077496413395951 0.001007140329434719206 0.39149990905810994
0.001267914553963578328 0.49113138050642807 0.001267914553963578328 0.49138231235150381
0.001596209851982166583 0.61706191207471184 0.001596209851982166583 0.61639115540208644
0.002009509145210586212 0.77498530852885228 0.002009509145210586212 0.77267203177491550
0.002529822128138903281 0.97288313310565400 0.002529822128138903281 0.96778646069399177
0.003184857364445292660 1.22065577767370459 0.003184857364445292660 1.21099542630547607
0.004009497869020606231 1.53054876057115496 0.004009497869020606231 1.51357708514386347
0.005047658755842121536 1.91765487455885730 0.005047658755842121536 1.88917047975084307
0.006354625877804664924 2.40049849871158871 0.006354625877804664924 2.35412869446636419
0.008000000000009777068 3.00169996546595463 0.008000000000009777068 2.92785063106057519
0.010071403294347192059 3.74871203163882338 0.010071403294347192059 3.63304385445480937
0.012679145539692626699 4.67460434525520174 0.012679145539692626699 4.49583461262887862
0.015962098519750611558 5.81884917907563981 0.015962098519750611558 5.54561827648658046
0.020095091452091651263 7.22803496665026923 0.020095091452091651263 6.81450071344696173
0.025298221281346400247 8.95639181796664730 0.025298221281346400247 8.33611617020023132
0.031848573644282396344 11.06595649754779309 0.031848573644282396344 10.14356134540190268
0.040094978690191851456 13.62614082521803383 0.040094978690191851456 12.26613441155655337
0.050476587558421215363 16.71238736292229987 0.050476587558421215363 14.72482386476693250
0.063546258777947173257 20.40365079944298543 0.063546258777947173257 17.52592719519120834
0.079999999999998294697 24.77810379531094753 0.079999999999998294697 20.65332369119148126
0.100714032943542974863 29.90704812210340080 0.100714032943542974863 24.06041169117193590
0.126791455396897845276 35.84689727553492133 0.126791455396897845276 27.66138288336364326
0.159620985197506115583 42.62906517328231359 0.159620985197506115583 31.32744306491978037
0.200950914520774404082 50.25021350101717843 0.200950914520774404082 34.88779603418532815
0.252982212813464002465 58.66261565613923068 0.252982212813464002465 38.14216185585659957
0.318485736442795541734 67.77020527854530485 0.318485736442795541734 40.88441586209168577
0.400949786901819038576 77.42987602257505841 0.400949786901819038576 42.93634839435489425
0.504765875584169521062 87.46311698983950578 0.504765875584169521062 44.18594862480117769
0.635462587779443310865 97.67494872245768534 0.635462587779443310865 44.61475976476523186
0.799999999999997157829 107.87809969968375867 0.799999999999997157829 44.30641049284401589
1.007140329435330272645 117.91573868701090078 1.007140329435330272645 43.43041540036751513
1.267914553968893187630 127.67798952193138007 1.267914553968893187630 42.20457877744055963
1.596209851975103788391 137.10712899310240687 1.596209851975103788391 40.84786369882536405
2.009509145207687197399 146.19221079212607606 2.009509145207687197399 39.54405095898149369
2.529822128134711078928 154.95738115036968452 2.529822128134711078928 38.41914653609938313
3.184857364427983839050 163.44604550280129729 3.184857364427983839050 37.53686744767058059
4.009497869018190385759 171.70709744372641126 4.009497869018190385759 36.90846196095448306
5.009497869018190385759 179.52053814885107386 5.009497869018190385759 36.51558554347041508
6.009497869018190385759 185.79955664791870618 6.009497869018190385759 36.32694873196225416
7.009497869018204596614 191.04195455051257113 7.009497869018204596614 36.24061268517830570
8.009497869018190385759 195.53479361622424904 8.009497869018190385759 36.21887613161220543
9.009497869018204596614 199.46257729632051792 9.009497869018204596614 36.22555852306857815
10.009497869018190385759 202.94299479357022165 10.009497869018190385759 36.23464419308845663
11.009497869018190385759 206.06742252582702690 11.009497869018190385759 36.23733046408551672
12.009497869018190385759 208.89330318247502305 12.009497869018190385759 36.26524706496299189
13.009497869018190385759 211.46992275709413889 13.009497869018190385759 36.27773443569708434
14.009497869018204596614 213.83941908240149132 14.009497869018204596614 36.28383558535509934
15.009497869018190385759 216.02506930762370985 15.009497869018190385759 36.30675667082820013
16.009497869018190385759 218.05097352806274102 16.009497869018190385759 36.30689598422963371
17.009497869018190385759 219.94063412974293215 17.009497869018190385759 36.28015158579861321
18.009497869018190385759 221.70589298774598319 18.009497869018190385759 36.28969446609750804
19.009497869018204596614 223.35774727184741550 19.009497869018204596614 36.28833542523490507
20.009497869018190385759 224.91080053850663489 20.009497869018190385759 36.28892172883784895
21.009497869018204596614 226.38080040130321891 21.009497869018204596614 36.26858878502594052
22.009497869018190385759 227.77150566573232027 22.009497869018190385759 36.25923102821230515
23.009497869018190385759 229.08840968191120169 23.009497869018190385759 36.31041924978024582
24.009497869018190385759 230.33549079195614695 24.009497869018190385759 36.31673689860260623
25.009497869018190385759 231.52168868259226997 25.009497869018190385759 36.31576776412991592
26.009497869018204596614 232.65759116573832443 26.009497869018204596614 36.33381352856739710
27.009497869018190385759 233.74439844321861415 27.009497869018190385759 36.32274686215053094
28.009497869018190385759 234.78294582769527210 28.009497869018190385759 36.33566056519943288
29.009497869018190385759 235.77637090608217818 29.009497869018190385759 36.37754783063533637
30.009497869018190385759 236.72607814492027956 30.009497869018190385759 36.37984508046920951
31.009497869018190385759 237.63692105693905887 31.009497869018190385759 36.36653896626161497
32.009497869018190385759 238.51401576875963428 32.009497869018190385759 36.34999194979265980
33.009497869018190385759 239.35980038929957914 33.009497869018190385759 36.33534538456192564
34.009497869018190385759 240.17433994472193604 34.009497869018190385759 36.30671733564417281
35.009497869018190385759 240.95827625943809380 35.009497869018190385759 36.29985539670196459
36.009497869018190385759 241.71365548830894454 36.009497869018190385759 36.29885089398898401
37.009497869018190385759 242.44164045154570886 37.009497869018190385759 36.28528095710100132
38.009497869018190385759 243.14307495442949403 38.009497869018190385759 36.25314196112465481
39.009497869018190385759 243.82083383546861910 39.009497869018190385759 36.20255128651059096
40.009497869018190385759 244.47722466973414157 40.009497869018190385759 36.13214515051241449
41.009497869018190385759 245.11411587813324786 41.009497869018190385759 36.09168487716988949
42.009497869018190385759 245.73096298646959212 42.009497869018190385759 36.01545920306337933
43.009497869018190385759 246.32819992206759707 43.009497869018190385759 35.96454108489267298
44.009497869018218807469 246.90596254692650291 44.009497869018218807469 35.91921343423673108
46.009497869018190385759 248.00799632378377169 46.009497869018190385759 35.79614987994170150
48.009497869018190385759 249.03885009706826281 48.009497869018190385759 35.67038122174041348
50.009497869018190385759 250.01017766658139863 50.009497869018190385759 35.55946192780202608
52.009497869018190385759 250.93164518856070799 52.009497869018190385759 35.48121987799306254
54.009497869018190385759 251.80480322515751368 54.009497869018190385759 35.40704044750638957
56.009497869018190385759 252.63155742312375196 56.009497869018190385759 35.37463070082621641
58.009497869018218807469 253.41768568391125882 58.009497869018218807469 35.34524988531839540
60.009497869018190385759 254.17240594840939139 60.009497869018190385759 35.30373419748140407
62.009497869018190385759 254.89326579411988405 62.009497869018190385759 35.25628647389368808
64.009497869018190385759 255.58265984992300446 64.009497869018190385759 35.21765349875133211
66.009497869018190385759 256.24219205826022971 66.009497869018190385759 35.17506739065269983
68.009497869018190385759 256.87278740680505962 68.009497869018190385759 35.08733751352405505
70.009497869018190385759 257.47443118107861437 70.009497869018190385759 35.01909851920994043
72.009497869018218807469 258.05067994342448401 72.009497869018218807469 34.83673983935081253
74.009497869018190385759 258.60430731888845912 74.009497869018190385759 34.67621187387761950
76.009497869018190385759 259.13737036172636863 76.009497869018190385759 34.54227330043863731
78.009497869018190385759 259.64901075213782633 78.009497869018190385759 34.36651036418421512
80.009497869018190385759 260.13922503875971870 80.009497869018190385759 34.25070417135056999
82.009497869018218807469 260.60849357249514924 82.009497869018218807469 34.14399684493034215
84.009497869018190385759 261.05840712839835760 84.009497869018190385759 33.99422090367267657
86.009497869018190385759 261.48528434995608905 86.009497869018190385759 33.82994762059269789
88.009497869018190385759 261.89361905246073547 88.009497869018190385759 33.72435364571484229
91.009497869018218807469 262.47895219602429506 91.009497869018218807469 33.63185856125878814
94.009497869018190385759 263.03970465074917229 94.009497869018190385759 33.57195927030196003
97.009497869018190385759 263.57778762090362079 97.009497869018190385759 33.56967080870381182
99.504748934509109403734 264.00782294855662258 99.504748934509109403734 32.77777536305845274
nan nan nan nan

