Time Pressure difference Time.1 Pressure.1 difference.1
(hr) (psi) (hr) (psi)
0.000200000000006639311 0.30402106198704720 0.000200000000006639311 0.24278897036290825
0.000399999999999067768 0.60696975391099028 0.000399999999999067768 0.63133870283858851
0.000600000000005707079 0.90903246374343594 0.000600000000005707079 0.92177716429334311
0.000799999999998135536 1.21029537648330465 0.000799999999998135536 1.21632472474898079
0.001007140329434719206 1.52152805184073592 0.001007140329434719206 1.52435070973689601
0.001267914553963578328 1.91227750282290065 0.001267914553963578328 1.91325453532606815
0.001596209851982166583 2.40260276403558004 0.001596209851982166583 2.39999109443791081
0.002009509145210586212 3.01749598852723366 0.002009509145210586212 3.00848897478318111
0.002529822128138903281 3.78803432677307850 0.002529822128138903281 3.76818983631915971
0.003184857364445292660 4.75276611306995544 0.003184857364445292660 4.71515240455110884
0.004009497869020606231 5.95937070605364561 0.004009497869020606231 5.89328950173036148
0.005047658755842121536 7.46661366051640130 0.005047658755842121536 7.35570633605115454
0.006354625877804664924 9.34662181413235693 0.006354625877804664924 9.16607555504988447
0.008000000000009777068 11.68747007830361007 0.008000000000009777068 11.39992905285287783
0.010071403294347192059 14.59604897425328929 0.010071403294347192059 14.14568139074957465
0.012679145539692626699 18.20111904641918699 0.012679145539692626699 17.50505817257627328
0.015962098519750611558 22.65637020789025868 0.015962098519750611558 21.59251371483072646
0.020095091452091651263 28.14319997653189986 0.020095091452091651263 26.53305596937859789
0.025298221281346400247 34.87275963165737380 0.025298221281346400247 32.45764381163068180
0.031848573644282396344 43.08659657555842415 0.031848573644282396344 39.49514311082017315
0.040094978690191851456 53.05497385138085775 0.040094978690191851456 47.75962973010317825
0.050476587558421215363 65.07163590244213935 0.050476587558421215363 57.33282483515635164
0.063546258777947173257 79.44400204889501538 0.063546258777947173257 68.23924844085087216
0.079999999999998294697 96.47644669238091808 0.079999999999998294697 80.41613266995832987
0.100714032943542974863 116.44659162436005317 0.100714032943542974863 93.68202849966945678
0.126791455396897845276 139.57408939197637210 0.126791455396897845276 107.70283122671376930
0.159620985197506115583 165.98125375980134777 0.159620985197506115583 121.97706555064507938
0.200950914520774404082 195.65508661034346005 0.200950914520774404082 135.83971647353010326
0.252982212813464002465 228.40975883135064350 0.252982212813464002465 148.51097063025017064
0.318485736442795541734 263.87122480795301271 0.318485736442795541734 159.18825750559102516
0.400949786901819038576 301.48228323683480312 0.400949786901819038576 167.17769693972223877
0.504765875584169521062 340.54788104554535266 0.504765875584169521062 172.04316166677904221
0.635462587779443310865 380.30884289807988807 0.635462587779443310865 173.71278802025611299
0.799999999999997157829 420.03600521366229259 0.799999999999997157829 172.51219404660540135
1.007140329435330272645 459.11872722814882763 1.007140329435330272645 169.10140464398418203
1.267914553968893187630 497.12919324496687068 1.267914553968893187630 164.32846630365153828
1.596209851975103788391 533.84265118590928978 1.596209851975103788391 159.04593738053284824
2.009509145207687197399 569.21648031827817249 2.009509145207687197399 153.96938990411945269
2.529822128134711078928 603.34469681952452902 2.529822128134711078928 149.58944289587631715
3.184857364427983839050 636.39630483005612405 3.184857364427983839050 146.15418601965353673
4.009497869018190385759 668.56167728089224056 4.009497869018190385759 143.70741572031215583
5.009497869018190385759 698.98422300510094374 5.009497869018190385759 142.17770541393801409
6.009497869018190385759 723.43231630998138826 6.009497869018190385759 141.44322591381049392
7.009497869018204596614 743.84420601582553445 7.009497869018204596614 141.10706641250277471
8.009497869018190385759 761.33760067593686927 8.009497869018190385759 141.02243259755391591
9.009497869018204596614 776.63088606865221664 9.009497869018204596614 141.04845127067125077
10.009497869018190385759 790.18229887709253489 10.009497869018190385759 141.08382739011037188
11.009497869018190385759 802.34762387715613841 11.009497869018190385759 141.09428670058829880
12.009497869018190385759 813.35052090197723373 12.009497869018190385759 141.20298325294101005
13.009497869018190385759 823.38289073506871318 13.009497869018190385759 141.25160429218226454
14.009497869018204596614 832.60880195913773605 14.009497869018204596614 141.27535983234005812
15.009497869018190385759 841.11888687861994640 15.009497869018190385759 141.36460576088427388
16.009497869018190385759 849.00698203479748827 16.009497869018190385759 141.36514819391538822
17.009497869018190385759 856.36459671793534199 17.009497869018190385759 141.26101574896054558
18.009497869018190385759 863.23783865441509988 18.009497869018190385759 141.29817207012433755
19.009497869018204596614 869.66952661166124017 19.009497869018204596614 141.29288048548912116
20.009497869018190385759 875.71652124567481223 20.009497869018190385759 141.29516332717716409
21.009497869018204596614 881.44013773273388779 21.009497869018204596614 141.21599463105846439
22.009497869018190385759 886.85501142189400525 22.009497869018190385759 141.17955910984790080
23.009497869018190385759 891.98253131467538424 23.009497869018190385759 141.37886644063371477
24.009497869018190385759 896.83818755165907533 24.009497869018190385759 141.40346494562291468
25.009497869018190385759 901.45678784924211868 25.009497869018190385759 141.39969150714415491
26.009497869018204596614 905.87955709213008504 26.009497869018204596614 141.46995480271985457
27.009497869018190385759 910.11116840657462035 27.009497869018190385759 141.42686544199037257
28.009497869018190385759 914.15487418017517030 28.009497869018190385759 141.47714645598929906
29.009497869018190385759 918.02289097474556456 29.009497869018190385759 141.64023942566524283
30.009497869018190385759 921.72068724511518667 30.009497869018190385759 141.64918403672055547
31.009497869018190385759 925.26716071106056916 31.009497869018190385759 141.59737512395477665
32.009497869018190385759 928.68223161027685819 32.009497869018190385759 141.53294737897994082
33.009497869018190385759 931.97539300514506522 33.009497869018190385759 141.47591926329431544
34.009497869018190385759 935.14689808264074600 34.009497869018190385759 141.36445260474221186
35.009497869018190385759 938.19924586121635457 35.009497869018190385759 141.33773484247782903
36.009497869018190385759 941.14040328426665383 36.009497869018190385759 141.33382369361666520
37.009497869018190385759 943.97489792835881417 37.009497869018190385759 141.28098755637196859
38.009497869018190385759 946.70601524809796956 38.009497869018190385759 141.15585061459174199
39.009497869018190385759 949.34494876363328331 39.009497869018190385759 140.95886990279657880
40.009497869018190385759 951.90068328853931234 40.009497869018190385759 140.68473537327173517
41.009497869018190385759 954.38049373826345345 41.009497869018190385759 140.52719856429979473
42.009497869018190385759 956.78226013880703249 42.009497869018190385759 140.23040498214038507
43.009497869018190385759 959.10767203698662797 43.009497869018190385759 140.03214933053953928
44.009497869018218807469 961.35725842739464042 44.009497869018218807469 139.85566081841108144
46.009497869018190385759 965.64815589898796588 46.009497869018190385759 139.37649846870917258
48.009497869018190385759 969.66190569709556257 48.009497869018190385759 138.88680348039349610
50.009497869018190385759 973.44388325498698578 50.009497869018190385759 138.45492622952704664
52.009497869018190385759 977.03172488311952293 52.009497869018190385759 138.15028165261128379
54.009497869018190385759 980.43146787667706121 54.009497869018190385759 137.86145535943978757
56.009497869018190385759 983.65053209429026992 56.009497869018190385759 137.73526421811058640
58.009497869018218807469 986.71141447139905267 58.009497869018218807469 137.62086657475035167
60.009497869018190385759 989.65000613955135123 60.009497869018190385759 137.45922038593820957
62.009497869018190385759 992.45675830476443480 62.009497869018190385759 137.27447712175626293
64.009497869018190385759 995.14099473480666802 64.009497869018190385759 137.12405511215942511
66.009497869018190385759 997.70896056726860479 66.009497869018190385759 136.95824111679667112
68.009497869018190385759 1000.16425734990048113 68.009497869018190385759 136.61665457393408474
70.009497869018190385759 1002.50682779015733104 70.009497869018190385759 136.35095806415782249
72.009497869018218807469 1004.75051977971668293 72.009497869018218807469 135.64092320428085259
74.009497869018190385759 1006.90613275226803580 74.009497869018190385759 135.01588878552351503
76.009497869018190385759 1008.98167608927485617 76.009497869018190385759 134.49438327617596656
78.009497869018190385759 1010.97380782215361705 78.009497869018190385759 133.81002971586619310
80.009497869018190385759 1012.88251451261783131 80.009497869018190385759 133.35912475227988239
82.009497869018218807469 1014.70966646311933346 82.009497869018218807469 132.94364728983515533
84.009497869018190385759 1016.46145754248743742 84.009497869018190385759 132.36047713557658767
86.009497869018190385759 1018.12355395833947114 86.009497869018190385759 131.72085988443541282
88.009497869018190385759 1019.71345290638964798 88.009497869018190385759 131.30971738650671909
91.009497869018218807469 1021.99251599728597739 91.009497869018218807469 130.94957695128422870
94.009497869018190385759 1024.17587129972548610 94.009497869018190385759 130.71635205245229372
97.009497869018190385759 1026.27096031117798702 97.009497869018190385759 130.70744165942122095
99.504748934509109403734 1027.94535318267799084 99.504748934509109403734 127.62410407318502337
nan nan nan nan

