Time Pressure difference Time.1 Pressure.1 difference.1
(hr) (psi) (hr) (psi)
0.000200000000006639311 0.29986776879050286 0.000200000000006639311 0.23947218115030020
0.000399999999999067768 0.59867781738215164 0.000399999999999067768 0.62271385717139460
0.000600000000005707079 0.89661398746278786 0.000600000000005707079 0.90918458008168546
0.000799999999998135536 1.19376128664063663 0.000799999999998135536 1.19970826676060671
0.001007140329434719206 1.50074214949318496 0.001007140329434719206 1.50352624648912414
0.001267914553963578328 1.88615349322149517 0.001267914553963578328 1.88711717828609427
0.001596209851982166583 2.36978032190394616 0.001596209851982166583 2.36720433085269377
0.002009509145210586212 2.97627336573314549 0.002009509145210586212 2.96738939862494133
0.002529822128138903281 3.73628522394830975 0.002529822128138903281 3.71671183309075559
0.003184857364445292660 4.68783761425752399 0.003184857364445292660 4.65073775421571067
0.004009497869020606231 5.87795853793815937 0.004009497869020606231 5.81278008230781573
0.005047658755842121536 7.36461074165688689 0.005047658755842121536 7.25521854457504567
0.006354625877804664924 9.21893572377535619 0.006354625877804664924 9.04085594364210010
0.008000000000009777068 11.52780518652350672 0.008000000000009777068 11.24419231715816636
0.010071403294347192059 14.39664939810228894 0.010071403294347192059 13.95243437721474500
0.012679145539692626699 17.95246987911837877 0.012679145539692626699 17.26591803360665267
0.015962098519750611558 22.34685695368410663 0.015962098519750611558 21.29753401927293055
0.020095091452091651263 27.75873003149731133 0.020095091452091651263 26.17058252717396982
0.025298221281346400247 34.39635581155275901 0.025298221281346400247 32.01423337704556360
0.031848573644282396344 42.49798186824205715 0.031848573644282396344 38.95559197542645791
0.040094978690191851456 52.33017912663521543 0.040094978690191851456 47.10717577204165707
0.050476587558421215363 64.18267912781861639 0.050476587558421215363 56.54958952320066601
0.063546258777947173257 78.35870147445656642 0.063546258777947173257 67.30701827089390576
0.079999999999998294697 95.15846244794948916 0.079999999999998294697 79.31755162255451808
0.100714032943542974863 114.85579119233327106 0.100714032943542974863 92.40221936716031337
0.126791455396897845276 137.66733953689472969 0.126791455396897845276 106.23148107334336032
0.159620985197506115583 163.71375029313739446 0.159620985197506115583 120.31071219612809386
0.200950914520774404082 192.98220291348087585 0.200950914520774404082 133.98398264192448437
0.252982212813464002465 225.28940693474748969 0.252982212813464002465 146.48213223366204261
0.318485736442795541734 260.26642665483888095 0.318485736442795541734 157.01355453420316621
0.400949786901819038576 297.36367281010205943 0.400949786901819038576 164.89384862087356964
0.504765875584169521062 335.89558758863898902 0.504765875584169521062 169.69284525056622215
0.635462587779443310865 375.11336690220451828 0.635462587779443310865 171.33966250085370575
0.799999999999997157829 414.29780842112592154 0.799999999999997157829 170.15547008422009867
1.007140329435330272645 452.84661346820149674 1.007140329435330272645 166.79127616524124278
1.267914553968893187630 490.33781082358757430 1.267914553968893187630 162.08354190059620237
1.596209851975103788391 526.54971879265929147 1.596209851975103788391 156.87317867314851583
2.009509145207687197399 561.44029889316504978 2.009509145207687197399 151.86598293821614902
2.529822128134711078928 595.10228292854731080 2.529822128134711078928 147.54587127161570947
3.184857364427983839050 627.70236623948164834 3.184857364427983839050 144.15754413413915813
4.009497869018190385759 659.42832103388559517 4.009497869018190385759 141.74419965855926762
5.009497869018190385759 689.43525820994932474 5.009497869018190385759 140.23538703396616256
6.009497869018190385759 713.54936116913461319 6.009497869018190385759 139.51094140679120414
7.009497869018204596614 733.68239992271310257 7.009497869018204596614 139.17937424839755067
8.009497869018190385759 750.93681378145686267 8.009497869018190385759 139.09589663310646301
9.009497869018204596614 766.02117451033723228 9.009497869018204596614 139.12155985986973405
10.009497869018190385759 779.38745872849847274 10.009497869018190385759 139.15645269898865877
11.009497869018190385759 791.38659076408032433 11.009497869018190385759 139.16676912271140054
12.009497869018190385759 802.23917498801586135 12.009497869018190385759 139.27398074948553131
13.009497869018190385759 812.13449058841479200 13.009497869018190385759 139.32193756687922814
14.009497869018204596614 821.23436477390373511 14.009497869018204596614 139.34536857779991692
15.009497869018190385759 829.62819170268255675 15.009497869018190385759 139.43339529966999635
16.009497869018190385759 837.40852599607080720 16.009497869018190385759 139.43393032241380070
17.009497869018190385759 844.66562681741709184 17.009497869018190385759 139.33122045184359195
18.009497869018190385759 851.44497200613079713 18.009497869018190385759 139.36786917299150446
19.009497869018204596614 857.78879537379691556 19.009497869018204596614 139.36264987776382895
20.009497869018190385759 863.75318079149883488 20.009497869018190385759 139.36490153309006246
21.009497869018204596614 869.39860579649439387 21.009497869018204596614 139.28681437653580133
22.009497869018190385759 874.73950580137636734 22.009497869018190385759 139.25087660834725511
23.009497869018190385759 879.79697760819090036 23.009497869018190385759 139.44746116139009473
24.009497869018190385759 884.58629974357620540 24.009497869018190385759 139.47172362122915956
25.009497869018190385759 889.14180440867869493 25.009497869018190385759 139.46800173245640053
26.009497869018204596614 893.50415330671842185 26.009497869018204596614 139.53730514694501608
27.009497869018190385759 897.67795572342470223 27.009497869018190385759 139.49480443868449697
28.009497869018190385759 901.66641961487232493 28.009497869018190385759 139.54439855358506861
29.009497869018190385759 905.48159464995387680 29.009497869018190385759 139.70526347722719152
30.009497869018190385759 909.12887457783210721 30.009497869018190385759 139.71408589414238577
31.009497869018190385759 912.62689895271284968 31.009497869018190385759 139.66298475340897767
32.009497869018190385759 915.99531587789601872 32.009497869018190385759 139.59943716888457743
33.009497869018190385759 919.24348872911855324 33.009497869018190385759 139.54318812581760767
34.009497869018190385759 922.37166723451719008 34.009497869018190385759 139.43324423582495797
35.009497869018190385759 925.38231627294828741 35.009497869018190385759 139.40689147031284278
36.009497869018190385759 928.28329394978209166 36.009497869018190385759 139.40303375244704398
37.009497869018190385759 931.07906598944680354 37.009497869018190385759 139.35091942035595025
38.009497869018190385759 933.77287296328779576 38.009497869018190385759 139.22749199963828914
39.009497869018190385759 936.37575547451262992 39.009497869018190385759 139.03320228117365787
40.009497869018190385759 938.89657559334068537 40.009497869018190385759 138.76281275888280220
41.009497869018190385759 941.34250885112862761 41.009497869018190385759 138.60742809210989890
42.009497869018190385759 943.71146423527136449 42.009497869018190385759 138.31468906708383315
43.009497869018190385759 946.00510821134480466 43.009497869018190385759 138.11914182602396295
44.009497869018218807469 948.22396254723901166 44.009497869018218807469 137.94506435914317422
46.009497869018190385759 952.45624120091440545 46.009497869018190385759 137.47244794318038430
48.009497869018190385759 956.41515835150687508 48.009497869018190385759 136.98944277710944561
50.009497869018190385759 960.14546954931779510 50.009497869018190385759 136.56346548868651780
52.009497869018190385759 963.68429694755775472 52.009497869018190385759 136.26298272293078639
54.009497869018190385759 967.03759536470067815 54.009497869018190385759 135.97810214414687380
56.009497869018190385759 970.21268329518795781 56.009497869018190385759 135.85363492551343256
58.009497869018218807469 973.23175033927611821 58.009497869018218807469 135.74080009148875092
60.009497869018190385759 976.13019731250847144 60.009497869018190385759 135.58136218394454886
62.009497869018190385759 978.89860586890722516 62.009497869018190385759 135.39914273484703244
64.009497869018190385759 981.54617240236382258 64.009497869018190385759 135.25077567073648765
66.009497869018190385759 984.07905673438233407 66.009497869018190385759 135.08722689388960703
68.009497869018190385759 986.50081121124071615 68.009497869018190385759 134.75030683385301700
70.009497869018190385759 988.81137932307854044 70.009497869018190385759 134.48824005781690971
72.009497869018218807469 991.02441978272588585 72.009497869018218807469 133.78790512771962540
74.009497869018190385759 993.15058449062507862 74.009497869018190385759 133.17140943053001934
76.009497869018190385759 995.19777341045960384 76.009497869018190385759 132.65702831338666101
78.009497869018190385759 997.16269022895460239 78.009497869018190385759 131.98202384543085941
80.009497869018190385759 999.04532169140702536 80.009497869018190385759 131.53727878571868359
82.009497869018218807469 1000.84751254968875855 82.009497869018218807469 131.12747724489207712
84.009497869018190385759 1002.57537205693427040 84.009497869018190385759 130.55227389601952837
86.009497869018190385759 1004.21476223759714230 86.009497869018190385759 129.92139458546770925
88.009497869018190385759 1005.78294125466300102 88.009497869018190385759 129.51586878833040828
91.009497869018218807469 1008.03086960388054649 91.009497869018218807469 129.16064830440873834
94.009497869018190385759 1010.18439764808988457 94.009497869018190385759 128.93060953807454894
97.009497869018190385759 1012.25086522495973895 97.009497869018190385759 128.92182087172420779
99.504748934509109403734 1013.90238387690362742 99.504748934509109403734 125.88060538366065089
nan nan nan nan

