Time Pressure difference Time.1 Pressure.1 difference.1
(hr) (psi) (hr) (psi)
0.000200000000006639311 0.65372834913608246 0.000200000000006639311 0.52206262206450493
0.000399999999999067768 1.30515080963920593 0.000399999999999067768 1.35755070801630917
0.000600000000005707079 1.95466816657400000 0.000600000000005707079 1.98207275491492085
0.000799999999998135536 2.60246574123595842 0.000799999999998135536 2.61543048737007577
0.001007140329434719206 3.27170102950453323 0.001007140329434719206 3.27777051519928220
0.001267914553963578328 4.11191911126126453 0.001267914553963578328 4.11401999809184549
0.001596209851982166583 5.16625239151912918 0.001596209851982166583 5.16063658831321259
0.002009509145210586212 6.48844082778943410 0.002009509145210586212 6.46907328730700559
0.002529822128138903281 8.14530878461861363 0.002529822128138903281 8.10263770815076079
0.003184857364445292660 10.21974571307665336 0.003184857364445292660 10.13886596279159136
0.004009497869020606231 12.81427526137764694 0.004009497869020606231 12.67218261710872795
0.005047658755842121536 16.05525942848745302 0.005047658755842121536 15.81677837833950484
0.006354625877804664924 20.09779062219170598 0.006354625877804664924 19.70956683558540945
0.008000000000009777068 25.13125396618836405 0.008000000000009777068 24.51296219834758006
0.010071403294347192059 31.38549328616759482 0.010071403294347192059 30.41707993038228253
0.012679145539692626699 39.13737893314727501 0.012679145539692626699 37.64065787381838391
0.015962098519750611558 48.71738621204817576 0.015962098519750611558 46.42980408079721144
0.020095091452091651263 60.51556934844427360 0.020095091452091651263 57.05331980300807260
0.025298221281346400247 74.98596128446544640 0.025298221281346400247 69.79280240369767796
0.031848573644282396344 92.64795493159694217 0.031848573644282396344 84.92534871097124949
0.040094978690191851456 114.08268967496374557 0.040094978690191851456 102.69625299888306813
0.050476587558421215363 139.92179632574308812 0.050476587558421215363 123.28123810182528075
0.063546258777947173257 170.82631041661306881 0.063546258777947173257 146.73302875122851674
0.079999999999998294697 207.45072007350762533 0.079999999999998294697 172.91665686135846158
0.100714032943542974863 250.39198800101462439 0.100714032943542974863 201.44195745693949107
0.126791455396897845276 300.12242718985083911 0.126791455396897845276 231.59051414050199469
0.159620985197506115583 356.90504565290615346 0.159620985197506115583 262.28401800097725527
0.200950914520774404082 420.71189388617568738 0.200950914520774404082 292.09250509472178692
0.252982212813464002465 491.14338852533592217 0.252982212813464002465 319.33916362296963598
0.318485736442795541734 567.39522930016119062 0.318485736442795541734 342.29824769644847038
0.400949786901819038576 648.26928116772944577 0.400949786901819038576 359.47772538677980947
0.504765875584169521062 732.27099011706059173 0.504765875584169521062 369.93980391189921875
0.635462587779443310865 817.76792175078935543 0.635462587779443310865 373.52995675393867714
0.799999999999997157829 903.19217514522460988 0.799999999999997157829 370.94835167944933119
1.007140329435330272645 987.23070581571903404 1.007140329435330272645 363.61422255414083793
1.267914553968893187630 1068.96359312510639938 1.267914553968893187630 353.35110104091194216
1.596209851975103788391 1147.90755869757003893 1.596209851975103788391 341.99222054229329615
2.009509145207687197399 1223.97095631280012640 2.009509145207687197399 331.07625643317487629
2.529822128134711078928 1297.35594643979720786 2.529822128134711078928 321.65817365861931876
3.184857364427983839050 1368.42593415643227672 3.184857364427983839050 314.27143277996543702
4.009497869018190385759 1437.59027327885860359 4.009497869018190385759 309.01020811990616721
5.009497869018190385759 1503.00705875687003754 5.009497869018190385759 305.72091300756613919
6.009497869018190385759 1555.57713916927673381 6.009497869018190385759 304.14158140483294801
7.009497869018204596614 1599.46827905588725116 7.009497869018204596614 303.41874663016301383
8.009497869018190385759 1637.08385719115403845 8.009497869018190385759 303.23676080402987054
9.009497869018204596614 1669.96859927876880647 9.009497869018204596614 303.29270806015921380
10.009497869018190385759 1699.10783938872077670 10.009497869018190385759 303.36877638255975853
11.009497869018190385759 1725.26661199814725478 11.009497869018190385759 303.39126675782239317
12.009497869018190385759 1748.92584685753035956 12.009497869018190385759 303.62499404389228630
13.009497869018190385759 1770.49818308333101413 13.009497869018190385759 303.72954256269792950
14.009497869018204596614 1790.33641295585084663 14.009497869018204596614 303.78062346462195364
15.009497869018190385759 1808.63542069255163369 15.009497869018190385759 303.97252659512548689
16.009497869018190385759 1825.59698049558915045 16.009497869018190385759 303.97369297434812552
17.009497869018190385759 1841.41786234157120816 17.009497869018190385759 303.74977976620749587
18.009497869018190385759 1856.19721043995809850 18.009497869018190385759 303.82967600871000968
19.009497869018204596614 1870.02709683982880051 19.009497869018204596614 303.81829765595614390
20.009497869018190385759 1883.02978748728423852 20.009497869018190385759 303.82320638931264511
21.009497869018204596614 1895.33712676410254971 21.009497869018204596614 303.65297206186613721
22.009497869018190385759 1906.98058466948236855 22.009497869018190385759 303.57462573620296098
23.009497869018190385759 1918.00615340068179648 23.009497869018190385759 304.00319095294736371
24.009497869018190385759 1928.44714099222846926 24.009497869018190385759 304.05608445957716413
25.009497869018190385759 1938.37839354468178499 25.009497869018190385759 304.04797053585366484
26.009497869018204596614 1947.88855582378778308 26.009497869018204596614 304.19905581896318836
27.009497869018190385759 1956.98767632779845371 27.009497869018190385759 304.10640192034537677
28.009497869018190385759 1965.68274857868277650 28.009497869018190385759 304.21451983842507616
29.009497869018190385759 1974.00004152219867137 29.009497869018190385759 304.56521428414902175
30.009497869018190385759 1981.95131383034299688 30.009497869018190385759 304.58444764180069342
31.009497869018190385759 1989.57720076394730313 31.009497869018190385759 304.47304432391371165
32.009497869018190385759 1996.92053627674295058 32.009497869018190385759 304.33450706900873683
33.009497869018190385759 2004.00173304658255802 33.009497869018190385759 304.21188103883230269
34.009497869018190385759 2010.82133549463992495 34.009497869018190385759 303.97219726757413127
35.009497869018190385759 2017.38471719338031107 35.009497869018190385759 303.91474677877067734
36.009497869018190385759 2023.70900924786315045 36.009497869018190385759 303.90633674009927745
37.009497869018190385759 2029.80394718474963156 37.009497869018190385759 303.79272460892008212
38.009497869018190385759 2035.67659562910671411 38.009497869018190385759 303.52364599367126630
39.009497869018190385759 2041.35102370759409496 39.009497869018190385759 303.10008364344508891
40.009497869018190385759 2046.84655122426329399 40.009497869018190385759 302.51061950482204566
41.009497869018190385759 2052.17882123500930902 41.009497869018190385759 302.17187232268832986
42.009497869018190385759 2057.34327521650584458 42.009497869018190385759 301.53368502990298339
43.009497869018190385759 2062.34354615603433558 43.009497869018190385759 301.10738121075030449
44.009497869018218807469 2067.18077153650165201 44.009497869018218807469 300.72788268876922757
46.009497869018190385759 2076.40737347678577862 46.009497869018190385759 299.69755271823532894
48.009497869018190385759 2085.03803219566771077 48.009497869018190385759 298.64457469691171809
50.009497869018190385759 2093.17031727233552374 50.009497869018190385759 297.71592060829999582
52.009497869018190385759 2100.88515705741792772 52.009497869018190385759 297.06085153170789681
54.009497869018190385759 2108.19553338509558671 54.009497869018190385759 296.43979608710139928
56.009497869018190385759 2115.11740097870597310 56.009497869018190385759 296.16845065478969445
58.009497869018218807469 2121.69913439615083917 58.009497869018218807469 295.92246446537848215
60.009497869018190385759 2128.01790937657642644 60.009497869018190385759 295.57488099380708491
62.009497869018190385759 2134.05319340396090411 62.009497869018190385759 295.17763249951417492
64.009497869018190385759 2139.82503512648327160 64.009497869018190385759 294.85418407997127588
66.009497869018190385759 2145.34686329628539170 66.009497869018190385759 294.49763868557101887
68.009497869018190385759 2150.62642222505928657 68.009497869018190385759 293.76313428875994305
70.009497869018190385759 2155.66358871817965337 70.009497869018190385759 293.19181419806619715
72.009497869018218807469 2160.48813952633054214 72.009497869018218807469 291.66504525073503373
74.009497869018190385759 2165.12329638260871434 74.009497869018190385759 290.32105047597542580
76.009497869018190385759 2169.58628164551737427 76.009497869018190385759 289.19967114303415201
78.009497869018190385759 2173.86990916949434904 78.009497869018190385759 287.72812400652099996
80.009497869018190385759 2177.97415005855236814 80.009497869018190385759 286.75855513673292307
82.009497869018218807469 2181.90302597397521822 82.009497869018218807469 285.86516507404445520
84.009497869018190385759 2185.66985542605880255 84.009497869018190385759 284.61118990628079928
86.009497869018190385759 2189.24381684484478683 86.009497869018190385759 283.23583805751542286
88.009497869018190385759 2192.66253398177195777 88.009497869018190385759 282.35176935295294243
91.009497869018218807469 2197.56314232203294523 91.009497869018218807469 281.57736901819856712
94.009497869018190385759 2202.25795276744293005 94.009497869018190385759 281.07587176306003585
97.009497869018190385759 2206.76296657075681651 97.009497869018190385759 281.05671198350961504
99.504748934509109403734 2210.36336872887295613 99.504748934509109403734 274.42669373113830034
nan nan nan nan

