Time Pressure difference Time.1 Pressure.1 difference.1
(hr) (psi) (hr) (psi)
0.000200000000006639311 0.36382848401728601 0.000200000000006639311 0.29055073502446399
0.000399999999999067768 0.72637363992626702 0.000399999999999067768 0.75553648044617960
0.000600000000005707079 1.08785852218476764 0.000600000000005707079 1.10311037694121383
0.000799999999998135536 1.44838627021772526 0.000799999999998135536 1.45560171978156716
0.001007140329434719206 1.82084504564547078 0.001007140329434719206 1.82422298050481002
0.001267914553963578328 2.28846324108314381 0.001267914553963578328 2.28963247670168757
0.001596209851982166583 2.87524593073110424 0.001596209851982166583 2.87212049006504122
0.002009509145210586212 3.61110175676209932 0.002009509145210586212 3.60032287146184027
0.002529822128138903281 4.53322140744974966 0.002529822128138903281 4.50947308280817527
0.003184857364445292660 5.68773649596896291 0.003184857364445292660 5.64272336938083541
0.004009497869020606231 7.13170592691665828 0.004009497869020606231 7.05262514141502272
0.005047658755842121536 8.93545569209339874 0.005047658755842121536 8.80273053330711974
0.006354625877804664924 11.18530151527314942 0.006354625877804664924 10.96923795932199397
0.008000000000009777068 13.98664451993710856 0.008000000000009777068 13.64253804685672300
0.010071403294347192059 17.46740287082770848 0.010071403294347192059 16.92843838565113046
0.012679145539692626699 21.78166705555083027 0.012679145539692626699 20.94867617373882140
0.015962098519750611558 27.11336106845883620 0.015962098519750611558 25.84022133086299888
0.020095091452091651263 33.67956718502998115 0.020095091452091651263 31.75267353712520446
0.025298221281346400247 41.73297464116373590 0.025298221281346400247 38.84275406965639377
0.031848573644282396344 51.56264836091418147 0.031848573644282396344 47.26467946048972379
0.040094978690191851456 63.49201788771807031 0.040094978690191851456 57.15496672618904483
0.050476587558421215363 77.87261345702091830 0.050476587558421215363 68.61141332731826026
0.063546258777947173257 95.07233032080880264 0.063546258777947173257 81.66336288823137579
0.079999999999998294697 115.45541981219356842 0.079999999999998294697 96.23569975257306908
0.100714032943542974863 139.35411784554563042 0.100714032943542974863 112.11128000780115599
0.126791455396897845276 167.03128730515206257 0.126791455396897845276 128.89027343524762159
0.159620985197506115583 198.63330367976226398 0.159620985197506115583 145.97255385569002328
0.200950914520774404082 234.14461184516514436 0.200950914520774404082 162.56228364865074809
0.252982212813464002465 273.34282614243596754 0.252982212813464002465 177.72624354111903244
0.318485736442795541734 315.78031821279626001 0.318485736442795541734 190.50398029357612018
0.400949786901819038576 360.79027338178588025 0.400949786901819038576 200.06511273114298888
0.504765875584169521062 407.54090682499685272 0.504765875584169521062 205.88771806024379885
0.635462587779443310865 455.12369723868584970 0.635462587779443310865 207.88579549965072601
0.799999999999997157829 502.66603902618601296 0.799999999999997157829 206.44901910495406128
1.007140329435330272645 549.43716537139118827 1.007140329435330272645 202.36725473788271756
1.267914553968893187630 594.92510011282922733 1.267914553968893187630 196.65537770764859715
1.596209851975103788391 638.86087764871115269 1.596209851975103788391 190.33366276686714968
2.009509145207687197399 681.19349283990652566 2.009509145207687197399 184.25845021312653671
2.529822128134711078928 722.03545684959487971 2.529822128134711078928 179.01687428522902223
3.184857364427983839050 761.58902053432950652 3.184857364427983839050 174.90582917106081595
4.009497869018190385759 800.08200723778907104 4.009497869018190385759 171.97772700955388814
5.009497869018190385759 836.48931605528480304 5.009497869018190385759 170.14709008553239755
6.009497869018190385759 865.74687033817428983 6.009497869018190385759 169.26812281488795975
7.009497869018204596614 890.17421375664378047 7.009497869018204596614 168.86583357561806906
8.009497869018190385759 911.10893195644916887 8.009497869018190385759 168.76455048559731154
9.009497869018204596614 929.41073250838712738 9.009497869018204596614 168.79568758621314828
10.009497869018190385759 945.62799701684855336 10.009497869018190385759 168.83802294226322260
11.009497869018190385759 960.18650070544924802 11.009497869018190385759 168.85053982201549161
12.009497869018190385759 973.35390206302179195 12.009497869018190385759 168.98061930269992104
13.009497869018190385759 985.35985284688547381 13.009497869018190385759 169.03880513654598872
14.009497869018204596614 996.40069742650916851 14.009497869018204596614 169.06723389771843813
15.009497869018190385759 1006.58489741211917590 15.009497869018190385759 169.17403640236969409
16.009497869018190385759 1016.02474899246271889 16.009497869018190385759 169.17468554353808941
17.009497869018190385759 1024.82976328539780297 17.009497869018190385759 169.05006802744460970
18.009497869018190385759 1033.05511838970983263 18.009497869018190385759 169.09453378883731034
19.009497869018204596614 1040.75205643690605939 19.009497869018204596614 169.08820123673288549
20.009497869018190385759 1047.98862378580747645 20.009497869018190385759 169.09093316203168911
21.009497869018204596614 1054.83819761458335051 21.009497869018204596614 168.99619029618472155
22.009497869018190385759 1061.31829235734858230 22.009497869018190385759 168.95258713145733509
23.009497869018190385759 1067.45450468805415767 23.009497869018190385759 169.19110246174199119
24.009497869018190385759 1073.26537198805090156 24.009497869018190385759 169.22054001689298275
25.009497869018190385759 1078.79254939335532981 25.009497869018190385759 169.21602426264794872
26.009497869018204596614 1084.08537160205742111 26.009497869018204596614 169.30010984587786993
27.009497869018190385759 1089.14943104393364592 27.009497869018190385759 169.24854388959502671
28.009497869018190385759 1093.98861992053775793 28.009497869018190385759 169.30871625061016061
29.009497869018190385759 1098.61755805174470879 29.009497869018190385759 169.50389308317318182
30.009497869018190385759 1103.04278965399021217 30.009497869018190385759 169.51459728984590924
31.009497869018190385759 1107.28693003126932126 31.009497869018190385759 169.45259645981477092
32.009497869018190385759 1111.37381815656090112 32.009497869018190385759 169.37549440435302017
33.009497869018190385759 1115.31481457992776996 33.009497869018190385759 169.30724764295877094
34.009497869018190385759 1119.11022229561922359 34.009497869018190385759 169.17385311715051444
35.009497869018190385759 1122.76303193227522570 35.009497869018190385759 169.14187940165382429
36.009497869018190385759 1126.28277770084378062 36.009497869018190385759 169.13719884645931302
37.009497869018190385759 1129.67487784869172174 37.009497869018190385759 169.07396871500250768
38.009497869018190385759 1132.94326414936313085 38.009497869018190385759 168.92421466992124124
39.009497869018190385759 1136.10133212697087401 39.009497869018190385759 168.68848365416636170
40.009497869018190385759 1139.15983409939940429 40.009497869018190385759 168.36042102047275648
41.009497869018190385759 1142.12747611300369499 41.009497869018190385759 168.17189336383418663
42.009497869018190385759 1145.00172114971996962 42.009497869018190385759 167.81671415895490895
43.009497869018190385759 1147.78459112622999783 43.009497869018190385759 167.57945739556373610
44.009497869018218807469 1150.47671910163626308 44.009497869018218807469 167.36824983186903637
46.009497869018190385759 1155.61172755124789546 46.009497869018190385759 166.79482603632411042
48.009497869018190385759 1160.41506747357357199 48.009497869018190385759 166.20879760768403344
50.009497869018190385759 1164.94104061662392269 50.009497869018190385759 165.69196089763070745
52.009497869018190385759 1169.23468715520857586 52.009497869018190385759 165.32738624001024164
54.009497869018190385759 1173.30323204913815971 54.009497869018190385759 164.98174165965744464
56.009497869018190385759 1177.15555480136390543 56.009497869018190385759 164.83072603150938562
58.009497869018218807469 1180.81857797396946808 58.009497869018218807469 164.69382393371762419
60.009497869018190385759 1184.33525324897141218 60.009497869018190385759 164.50037849464737860
62.009497869018190385759 1187.69415338111161873 62.009497869018190385759 164.27929229324928428
64.009497869018190385759 1190.90643632198157320 64.009497869018190385759 164.09927906864982106
66.009497869018190385759 1193.97957576082967535 66.009497869018190385759 163.90084592665832020
68.009497869018190385759 1196.91788174660223376 68.009497869018190385759 163.49206203110145452
70.009497869018190385759 1199.72128571608982384 70.009497869018190385759 163.17409735546758043
72.009497869018218807469 1202.40635973638222822 72.009497869018218807469 162.32438350676233085
74.009497869018190385759 1204.98602771992727867 74.009497869018190385759 161.57639149742976770
76.009497869018190385759 1207.46987466421433055 76.009497869018190385759 160.95229474034175610
78.009497869018190385759 1209.85390116421649509 78.009497869018190385759 160.13331425013495846
80.009497869018190385759 1212.13809113805064044 80.009497869018190385759 159.59370667076115069
82.009497869018218807469 1214.32468281651995312 82.009497869018218807469 159.09649593701581693
84.009497869018190385759 1216.42108853445211025 84.009497869018190385759 158.39860378519819051
86.009497869018190385759 1218.41015473702941563 86.009497869018190385759 157.63316018957024767
88.009497869018190385759 1220.31282069125313683 88.009497869018190385759 157.14113720024576537
91.009497869018218807469 1223.04022406232593312 91.009497869018218807469 156.71014946629094311
94.009497869018190385759 1225.65309188327819356 94.009497869018190385759 156.43104425949209713
97.009497869018190385759 1228.16032955272112304 97.009497869018190385759 156.42038100225821040
99.504748934509109403734 1230.16411118582755080 99.504748934509109403734 152.73048520233618319
nan nan nan nan

