Time Pressure difference Time.1 Pressure.1 difference.1
(hr) (psi) (hr) (psi)
0.000200000000006639311 0.61634871036718319 0.000200000000006639311 0.49221151915103262
0.000399999999999067768 1.23052338087965785 0.000399999999999067768 1.27992709701156460
0.000600000000005707079 1.84290188004816780 0.000600000000005707079 1.86873949701000153
0.000799999999998135536 2.45365893265194535 0.000799999999998135536 2.46588236547470929
0.001007140329434719206 3.08462790837657419 0.001007140329434719206 3.09035034596933578
0.001267914553963578328 3.87680302484861317 0.001267914553963578328 3.87878378473208318
0.001596209851982166583 4.87085041233442695 0.001596209851982166583 4.86555571604625658
0.002009509145210586212 6.11743722264264278 0.002009509145210586212 6.09917710188284357
0.002529822128138903281 7.67956685919569626 0.002529822128138903281 7.63933567909512679
0.003184857364445292660 9.63538922376477380 0.003184857364445292660 9.55913410977301226
0.004009497869020606231 12.08156574833826546 0.004009497869020606231 11.94759784230581623
0.005047658755842121536 15.13723315875182962 0.005047658755842121536 14.91238825505452681
0.006354625877804664924 18.94861580897871178 0.006354625877804664924 18.58259033291534479
0.008000000000009777068 23.69426994016743038 0.008000000000009777068 23.11133157709517860
0.010071403294347192059 29.59089710080858282 0.010071403294347192059 28.67785680856881214
0.012679145539692626699 36.89953642743999751 0.012679145539692626699 35.48839662309178777
0.015962098519750611558 45.93176692419281437 0.015962098519750611558 43.77498682077704473
0.020095091452091651263 57.05533984313297680 0.020095091452091651263 53.79105882316644482
0.025298221281346400247 70.69832690352394877 0.025298221281346400247 65.80210849243159998
0.031848573644282396344 87.35042256574959652 0.031848573644282396344 80.06938849242779099
0.040094978690191851456 107.55953715225298595 0.040094978690191851456 96.82416737632939885
0.050476587558421215363 131.92118535413132463 0.050476587558421215363 116.23212029422407454
0.063546258777947173257 161.05860524666695710 0.063546258777947173257 138.34295722161570552
0.079999999999998294697 195.58886187362469400 0.079999999999998294697 163.02942743472425491
0.100714032943542974863 236.07478411277364216 0.100714032943542974863 189.92367526435720038
0.126791455396897845276 282.96167849411602901 0.126791455396897845276 218.34836276016835654
0.159620985197506115583 336.49751445293060215 0.159620985197506115583 247.28683781032418665
0.200950914520774404082 396.65594061441220219 0.200950914520774404082 275.39090061027138745
0.252982212813464002465 463.06022145590759465 0.252982212813464002465 301.07961805367659736
0.318485736442795541734 534.95204592213428896 0.318485736442795541734 322.72592095395776823
0.400949786901819038576 611.20178732713497993 0.400949786901819038576 338.92309051714181578
0.504765875584169521062 690.40034900490331893 0.504765875584169521062 348.78695616598372453
0.635462587779443310865 771.00863778791062941 0.635462587779443310865 352.17182707931704044
0.799999999999997157829 851.54840401239732728 0.799999999999997157829 349.73783601798152176
1.007140329435330272645 930.78168197619254443 1.007140329435330272645 342.82306624545424256
1.267914553968893187630 1007.84115133269244780 1.267914553968893187630 333.14678141341380524
1.596209851975103788391 1082.27116715831903093 1.596209851975103788391 322.43739217583430445
2.009509145207687197399 1153.98532348678236303 2.009509145207687197399 312.14559374004545589
2.529822128134711078928 1223.17422142100326710 2.529822128134711078928 303.26602904027379282
3.184857364427983839050 1290.18048684126142689 3.184857364427983839050 296.30165581033588751
4.009497869018190385759 1355.39006705579799927 4.009497869018190385759 291.34126356413008807
5.009497869018190385759 1417.06637560050512548 5.009497869018190385759 288.24004758781967439
6.009497869018190385759 1466.63054290165609927 6.009497869018190385759 286.75102084165956740
7.009497869018204596614 1508.01202421787593266 7.009497869018204596614 286.06951715321599750
8.009497869018190385759 1543.47677514083397909 8.009497869018190385759 285.89793712400273762
9.009497869018204596614 1574.48119525393417462 9.009497869018204596614 285.95068536294553496
10.009497869018190385759 1601.95427805137342148 10.009497869018190385759 286.02240416246422683
11.009497869018190385759 1626.61731398046413233 11.009497869018190385759 286.04360855693033727
12.009497869018190385759 1648.92373363187743962 12.009497869018190385759 286.26397151279297759
13.009497869018190385759 1669.26258176344549611 13.009497869018190385759 286.36254203497060189
14.009497869018204596614 1687.96647828874392872 14.009497869018204596614 286.41070217376045548
15.009497869018190385759 1705.21916410911489947 15.009497869018190385759 286.59163244419704597
16.009497869018190385759 1721.21087614704856605 16.009497869018190385759 286.59273213083395149
17.009497869018190385759 1736.12713323690718425 17.009497869018190385759 286.38162209215499843
18.009497869018190385759 1750.06141060539880527 18.009497869018190385759 286.45694993451439814
19.009497869018204596614 1763.10051569905067481 19.009497869018204596614 286.44622218642876987
20.009497869018190385759 1775.35972339970135181 20.009497869018190385759 286.45085024252858830
21.009497869018204596614 1786.96333933794676341 21.009497869018204596614 286.29034977116219807
22.009497869018190385759 1797.94103408482351369 22.009497869018190385759 286.21648322269709297
23.009497869018190385759 1808.33617004232019099 23.009497869018190385759 286.62054343975466963
24.009497869018190385759 1818.18015071948343575 24.009497869018190385759 286.67041254003333961
25.009497869018190385759 1827.54354257961108488 25.009497869018190385759 286.66276256366381858
26.009497869018204596614 1836.50992175508326909 26.009497869018204596614 286.80520891698944297
27.009497869018190385759 1845.08876217944907694 27.009497869018190385759 286.71785289059249635
28.009497869018190385759 1853.28665749095648607 28.009497869018190385759 286.81978871678705900
29.009497869018190385759 1861.12837459907427728 29.009497869018190385759 287.15043074820658831
30.009497869018190385759 1868.62499982479630489 30.009497869018190385759 287.16856435859739349
31.009497869018190385759 1875.81484493881680464 31.009497869018190385759 287.06353098900120813
32.009497869018190385759 1882.73829468531539533 32.009497869018190385759 286.93291517815055158
33.009497869018190385759 1889.41459456234360914 33.009497869018190385759 286.81730080154204643
34.009497869018190385759 1895.84425786152837645 34.009497869018190385759 286.59132194731887466
35.009497869018190385759 1902.03235089896861609 35.009497869018190385759 286.53715642928568741
36.009497869018190385759 1907.99502523750243199 36.009497869018190385759 286.52922726957262967
37.009497869018190385759 1913.74145973454164960 37.009497869018190385759 286.42211138477591703
38.009497869018190385759 1919.27831506581605936 38.009497869018190385759 286.16841845909033282
39.009497869018190385759 1924.62828410550787339 39.009497869018190385759 285.76907504883894262
40.009497869018190385759 1929.80958196747610600 40.009497869018190385759 285.21331597532139313
41.009497869018190385759 1934.83695725079633121 41.009497869018190385759 284.89393807297938110
42.009497869018190385759 1939.70611208468540099 42.009497869018190385759 284.29224179439393083
43.009497869018190385759 1944.42047172525712995 43.009497869018190385759 283.89031367011023121
44.009497869018218807469 1948.98110861510076575 44.009497869018218807469 283.53251455535803416
46.009497869018190385759 1957.68014119412328000 46.009497869018190385759 282.56109798847597858
48.009497869018190385759 1965.81730608536850013 48.009497869018190385759 281.56832836735515002
50.009497869018190385759 1973.48459392131258028 50.009497869018190385759 280.69277394073515097
52.009497869018190385759 1980.75830563736258227 52.009497869018190385759 280.07516116458350552
54.009497869018190385759 1987.65068077730711593 54.009497869018190385759 279.48961714946534585
56.009497869018190385759 1994.17676178678539145 56.009497869018190385759 279.23378702141542362
58.009497869018218807469 2000.38215720704420164 58.009497869018218807469 279.00186611602390485
60.009497869018190385759 2006.33962993318891677 60.009497869018190385759 278.67415717586379742
62.009497869018190385759 2012.02982148124397099 62.009497869018190385759 278.29962301733098684
64.009497869018190385759 2017.47163413449857217 64.009497869018190385759 277.99466910716478196
66.009497869018190385759 2022.67772880030952365 66.009497869018190385759 277.65851067940747043
68.009497869018190385759 2027.65540697712071960 68.009497869018190385759 276.96600462803030496
70.009497869018190385759 2032.40455251447201590 70.009497869018190385759 276.42735214099758423
72.009497869018218807469 2036.95323955341450528 72.009497869018218807469 274.98788256168410271
74.009497869018190385759 2041.32336202782175860 74.009497869018190385759 273.72073628103402143
76.009497869018190385759 2045.53115753618044437 76.009497869018190385759 272.66347647793054421
78.009497869018190385759 2049.56985083070503606 78.009497869018190385759 271.27607117260305358
80.009497869018190385759 2053.43941466765681980 80.009497869018190385759 270.36194143768216236
82.009497869018218807469 2057.14364075310004409 82.009497869018218807469 269.51963466955652393
84.009497869018190385759 2060.69508605608098151 84.009497869018190385759 268.33736075026729395
86.009497869018190385759 2064.06469135816405469 86.009497869018190385759 267.04065036680617595
88.009497869018190385759 2067.28792911623258988 88.009497869018190385759 266.20713196936605982
91.009497869018218807469 2071.90832478138327133 91.009497869018218807469 265.47701119631938127
94.009497869018190385759 2076.33468990272240262 94.009497869018190385759 265.00418913366013385
97.009497869018190385759 2080.58211079479224281 97.009497869018190385759 264.98612489423646821
99.504748934509109403734 2083.97664497690448115 99.504748934509109403734 258.73520552541879169
nan nan nan nan

