Time Pressure difference Time.1 Pressure.1 difference.1
(hr) (psi) (hr) (psi)
0.000200000000006639311 0.30568237926566499 0.000200000000006639311 0.24411568604795145
0.000399999999999067768 0.61028652852252574 0.000399999999999067768 0.63478864110546596
0.000600000000005707079 0.91399985425569508 0.000600000000005707079 0.92681419797800624
0.000799999999998135536 1.21690901242037186 0.000799999999998135536 1.22297130794433029
0.001007140329434719206 1.52984241277975652 0.001007140329434719206 1.53268049503600490
0.001267914553963578328 1.92272710666346280 0.001267914553963578328 1.92370947814205739
0.001596209851982166583 2.41573174088823350 0.001596209851982166583 2.41310579987199825
0.002009509145210586212 3.03398503764486893 0.002009509145210586212 3.02492880524647756
0.002529822128138903281 3.80873396790298591 0.002529822128138903281 3.78878103761052110
0.003184857364445292660 4.77873751259492785 0.003184857364445292660 4.74091826468526811
0.004009497869020606231 5.99193557329984117 0.004009497869020606231 5.92549326949938049
0.005047658755842121536 7.50741482806020688 0.005047658755842121536 7.39590145264159826
0.006354625877804664924 9.39769625027515509 0.006354625877804664924 9.21616339961300035
0.008000000000009777068 11.75133603501565283 0.008000000000009777068 11.46222374713076242
0.010071403294347192059 14.67580880471369120 0.010071403294347192059 14.22298019616350828
0.012679145539692626699 18.30057871333951169 0.012679145539692626699 17.60071422816412223
0.015962098519750611558 22.78017550957271808 0.015962098519750611558 21.71050559305384553
0.020095091452091651263 28.29698795454573457 0.020095091452091651263 26.67804534626044699
0.025298221281346400247 35.06332115969921404 0.025298221281346400247 32.63500798546473192
0.031848573644282396344 43.32204245848497237 0.031848573644282396344 39.71096356497766777
0.040094978690191851456 53.34489174127911326 0.040094978690191851456 48.02061131332778388
0.050476587558421215363 65.42721861229155422 0.050476587558421215363 57.64611895993863300
0.063546258777947173257 79.87812227867041770 0.063546258777947173257 68.61214050883366156
0.079999999999998294697 97.00364039015349249 0.079999999999998294697 80.85556508891984606
0.100714032943542974863 117.08291179717075181 0.100714032943542974863 94.19395215267310562
0.126791455396897845276 140.33678933400904043 0.126791455396897845276 108.29137128806192436
0.159620985197506115583 166.88825514646694614 0.159620985197506115583 122.64360689245189917
0.200950914520774404082 196.72424008908851079 0.200950914520774404082 136.58201000617231102
0.252982212813464002465 229.65789958999189935 0.252982212813464002465 149.32250598888541049
0.318485736442795541734 265.31314406919869953 0.318485736442795541734 160.05813869414618011
0.400949786901819038576 303.12972740752786649 0.400949786901819038576 168.09123626726170642
0.504765875584169521062 342.40879842830787538 0.504765875584169521062 172.98328823326417591
0.635462587779443310865 382.38703329643010420 0.635462587779443310865 174.66203822801705314
0.799999999999997157829 422.33128393067681827 0.799999999999997157829 173.45488363155956790
1.007140329435330272645 461.62757273212781683 1.007140329435330272645 170.02545603548136910
1.267914553968893187630 499.84574621351862334 1.267914553968893187630 165.22643606487369539
1.596209851975103788391 536.75982414320947100 1.596209851975103788391 159.91504086348655278
2.009509145207687197399 572.32695288832337610 2.009509145207687197399 154.81075269048074006
2.529822128134711078928 606.64166237591530262 2.529822128134711078928 150.40687154558054317
3.184857364427983839050 639.87388026628593707 3.184857364427983839050 146.95284277385931659
4.009497869018190385759 672.21501977969489872 4.009497869018190385759 144.49270214501328269
5.009497869018190385759 702.80380892316156860 5.009497869018190385759 142.95463276592673196
6.009497869018190385759 727.38549836632000734 6.009497869018190385759 142.21613971661821552
7.009497869018204596614 747.90892845307052994 7.009497869018204596614 141.87814327814484727
8.009497869018190385759 765.49791543372896285 8.009497869018190385759 141.79304698333288570
9.009497869018204596614 780.87477069197825585 9.009497869018204596614 141.81920783499185745
10.009497869018190385759 794.50023493653020523 10.009497869018190385759 141.85477726655906849
11.009497869018190385759 806.73203712238660046 11.009497869018190385759 141.86529373173905810
12.009497869018190385759 817.79505926756178269 12.009497869018190385759 141.97458425432321860
13.009497869018190385759 827.88225079373034987 13.009497869018190385759 142.02347098230347910
14.009497869018204596614 837.15857683323145011 14.009497869018204596614 142.04735633415612028
15.009497869018190385759 845.71516494899492500 15.009497869018190385759 142.13708994536995078
16.009497869018190385759 853.64636445028816070 16.009497869018190385759 142.13763534251603460
17.009497869018190385759 861.04418467814252836 17.009497869018190385759 142.03293386780731566
18.009497869018190385759 867.95498531372891193 18.009497869018190385759 142.07029322897747647
19.009497869018204596614 874.42181910680687906 19.009497869018204596614 142.06497272857922098
20.009497869018190385759 880.50185742734504402 20.009497869018190385759 142.06726804481201043
21.009497869018204596614 886.25675050722963988 21.009497869018204596614 141.98766673286752393
22.009497869018190385759 891.70121367010108315 22.009497869018190385759 141.95103211044815339
23.009497869018190385759 896.85675279726933695 23.009497869018190385759 142.15142855233119690
24.009497869018190385759 901.73894267489220056 24.009497869018190385759 142.17616147538041105
25.009497869018190385759 906.38278122546762461 25.009497869018190385759 142.17236741701927372
26.009497869018204596614 910.82971860629470484 26.009497869018204596614 142.24301466502978997
27.009497869018190385759 915.08445347983467855 27.009497869018190385759 142.19968984331273987
28.009497869018190385759 919.15025600629633118 28.009497869018190385759 142.25024561695099123
29.009497869018190385759 923.03940950466210325 29.009497869018190385759 142.41422980504046336
30.009497869018190385759 926.75741231202823656 30.009497869018190385759 142.42322329375178924
31.009497869018190385759 930.32326541439977063 31.009497869018190385759 142.37113127217313036
32.009497869018190385759 933.75699790322914851 32.009497869018190385759 142.30635146301807481
33.009497869018190385759 937.06815471555569275 33.009497869018190385759 142.24901171828500424
34.009497869018190385759 940.25699042189012289 34.009497869018190385759 142.13693595230910205
35.009497869018190385759 943.32601769652364965 35.009497869018190385759 142.11007219134384627
36.009497869018190385759 946.28324701806047869 36.009497869018190385759 142.10613967008453074
37.009497869018190385759 949.13323070392357295 37.009497869018190385759 142.05301481077836456
38.009497869018190385759 951.87927216202194813 38.009497869018190385759 141.92719406057310039
39.009497869018190385759 954.53262607928149919 39.009497869018190385759 141.72913695144572443
40.009497869018190385759 957.10232636661885408 40.009497869018190385759 141.45350441902732541
41.009497869018190385759 959.59568769311727010 41.009497869018190385759 141.29510675317575874
42.009497869018190385759 962.01057850022129969 42.009497869018190385759 140.99669134816301153
43.009497869018190385759 964.34869756724344825 43.009497869018190385759 140.79735233234578118
44.009497869018218807469 966.61057677945689193 44.009497869018218807469 140.61989940211825001
46.009497869018190385759 970.92492177821736732 46.009497869018190385759 140.13811867892073337
48.009497869018190385759 974.96060463533115126 48.009497869018190385759 139.64574776170712767
50.009497869018190385759 978.76324873725468478 50.009497869018190385759 139.21151052586327523
52.009497869018190385759 982.37069605734416200 52.009497869018190385759 138.90520122448347706
54.009497869018190385759 985.78901688146765991 54.009497869018190385759 138.61479664555693603
56.009497869018190385759 989.02567161393130846 56.009497869018190385759 138.48791593514943088
58.009497869018218807469 992.10328012424827193 58.009497869018218807469 138.37289316805498629
60.009497869018190385759 995.05792967036870778 60.009497869018190385759 138.21036366673567386
62.009497869018190385759 997.88001927910761424 62.009497869018190385759 138.02461087651997218
64.009497869018190385759 1000.57892366778366977 64.009497869018190385759 137.87336688872863988
66.009497869018190385759 1003.16092210042302213 66.009497869018190385759 137.70664680595947971
68.009497869018190385759 1005.62963580536438712 68.009497869018190385759 137.36319366996650615
70.009497869018190385759 1007.98500717698868812 70.009497869018190385759 137.09604526669423308
72.009497869018218807469 1010.24095977851277439 72.009497869018218807469 136.38213043490532073
74.009497869018190385759 1012.40835205692519594 74.009497869018190385759 135.75368052752091330
76.009497869018190385759 1014.49523716080113900 76.009497869018190385759 135.22932526129167741
78.009497869018190385759 1016.49825485943301828 78.009497869018190385759 134.54123206404031521
80.009497869018190385759 1018.41739164110185811 80.009497869018190385759 134.08786313890433917
82.009497869018218807469 1020.25452802849167711 82.009497869018218807469 133.67011530781240936
84.009497869018190385759 1022.01589173670856781 84.009497869018190385759 133.08375843139941708
86.009497869018190385759 1023.68707064663647088 86.009497869018190385759 132.44064600402245446
88.009497869018190385759 1025.28565756708030676 88.009497869018190385759 132.02725682577724342
91.009497869018218807469 1027.57717455464808154 91.009497869018218807469 131.66514841003439074
94.009497869018190385759 1029.77246076037999956 94.009497869018190385759 131.43064905820341437
97.009497869018190385759 1031.87899834566519530 97.009497869018190385759 131.42168997450002621
99.504748934509109403734 1033.56254090498759979 99.504748934509109403734 128.32150354899479794
nan nan nan nan

