Time Pressure difference Time.1 Pressure.1 difference.1
(hr) (psi) (hr) (psi)
0.000200000000006639311 0.83564259114472539 0.000200000000006639311 0.66733798957673685
0.000399999999999067768 1.66833762960233933 0.000399999999999067768 1.73531894823939892
0.000600000000005707079 2.49859742766638382 0.000600000000005707079 2.53362794338552799
0.000799999999998135536 3.32665887634482083 0.000799999999998135536 3.34323134726085947
0.001007140329434719206 4.18212355232726907 0.001007140329434719206 4.18988200545168699
0.001267914553963578328 5.25615073180283598 0.001267914553963578328 5.25883623644268905
0.001596209851982166583 6.60387535688468130 0.001596209851982166583 6.59669683334573342
0.002009509145210586212 8.29399170617048398 0.002009509145210586212 8.26923472303792551
0.002529822128138903281 10.41191948834348935 0.002529822128138903281 10.35737424955484798
0.003184857364445292660 13.06361396106113482 0.003184857364445292660 12.96022764748200906
0.004009497869020606231 16.38012822483597830 0.004009497869020606231 16.19849518781623843
0.005047658755842121536 20.52298727453415239 0.005047658755842121536 20.21814364499306649
0.006354625877804664924 25.69044137982827891 0.006354625877804664924 25.19418581524640643
0.008000000000009777068 32.12457622615691832 0.008000000000009777068 31.33423122177594422
0.010071403294347192059 40.11919472158145084 0.010071403294347192059 38.88129912320784598
0.012679145539692626699 50.02821246092268126 0.012679145539692626699 48.11499596068779283
0.015962098519750611558 62.27406674627759031 0.015962098519750611558 59.34991474622871976
0.020095091452091651263 77.35535294095926417 0.020095091452091651263 72.92965657157067483
0.025298221281346400247 95.85244860504731435 0.025298221281346400247 89.21417943852587484
0.031848573644282396344 118.42927911205403291 0.031848573644282396344 108.55768844121611494
0.040094978690191851456 145.82869861882278428 0.040094978690191851456 131.27373636197759765
0.050476587558421215363 178.85810305425354727 0.050476587558421215363 157.58694476548438956
0.063546258777947173257 218.36247557701747724 0.063546258777947173257 187.56471019534421885
0.079999999999998294697 265.17842997960440243 0.079999999999998294697 221.03450673764501744
0.100714032943542974863 320.06904692378742538 0.100714032943542974863 257.49759746084009748
0.126791455396897845276 383.63807084242688461 0.126791455396897845276 296.03565085812584812
0.159620985197506115583 456.22169749278731388 0.159620985197506115583 335.27029492882229533
0.200950914520774404082 537.78419980875833062 0.200950914520774404082 373.37364691904718939
0.252982212813464002465 627.81480159655393436 0.252982212813464002465 408.20228539352916641
0.318485736442795541734 725.28538840655937747 0.318485736442795541734 437.55023784323651626
0.400949786901819038576 828.66441785862241431 0.400949786901819038576 459.51028175235126128
0.504765875584169521062 936.04144352955893282 0.504765875584169521062 472.88366294202108975
0.635462587779443310865 1045.32977037013210975 0.635462587779443310865 477.47285450376404015
0.799999999999997157829 1154.52519465831778689 0.799999999999997157829 474.17286123192639025
1.007140329435330272645 1261.94928850141468502 1.007140329435330272645 464.79784992308219671
1.267914553968893187630 1366.42614318152095620 1.267914553968893187630 451.67878989473626916
1.596209851975103788391 1467.33799752192567212 1.596209851975103788391 437.15905192572682836
2.009509145207687197399 1564.56770273275355976 2.009509145207687197399 423.20548153973811623
2.529822128134711078928 1658.37367486459470456 2.529822128134711078928 411.16661080123378724
3.184857364427983839050 1749.22044442359720051 3.184857364427983839050 401.72434736549581658
4.009497869018190385759 1837.63127689775296858 4.009497869018190385759 394.99907162468315391
5.009497869018190385759 1921.25171678451238222 5.009497869018190385759 390.79445805033230954
6.009497869018190385759 1988.45057433836404925 6.009497869018190385759 388.77564281227694210
7.009497869018204596614 2044.55538593420874349 7.009497869018204596614 387.85166341797207679
8.009497869018190385759 2092.63832316937850919 8.009497869018190385759 387.61903604682851210
9.009497869018204596614 2134.67396553296202910 9.009497869018204596614 387.69055185326578794
10.009497869018190385759 2171.92183789714499653 10.009497869018190385759 387.78778785369138404
11.009497869018190385759 2205.35986235087193563 11.009497869018190385759 387.81653666883011056
12.009497869018190385759 2235.60279788904108500 12.009497869018190385759 388.11530369524228945
13.009497869018190385759 2263.17810950677358051 13.009497869018190385759 388.24894513097092386
14.009497869018204596614 2288.53676166910554457 14.009497869018204596614 388.31424041348117271
15.009497869018190385759 2311.92786939861116480 15.009497869018190385759 388.55954479631031973
16.009497869018190385759 2333.60935499182050989 16.009497869018190385759 388.56103574611717022
17.009497869018190385759 2353.83274398427010965 17.009497869018190385759 388.27481377992978651
18.009497869018190385759 2372.72476963481312850 18.009497869018190385759 388.37694290312867906
19.009497869018204596614 2390.40312505828160283 19.009497869018204596614 388.36239827432251559
20.009497869018190385759 2407.02409938018809044 20.009497869018190385759 388.36867297032847546
21.009497869018204596614 2422.75622557139422497 21.009497869018204596614 388.15106720995851219
22.009497869018190385759 2437.63973084815688708 22.009497869018190385759 388.05091930193168537
23.009497869018190385759 2451.73340574470921638 23.009497869018190385759 388.59874218381833089
24.009497869018190385759 2465.07982698625392004 24.009497869018190385759 388.66635446802365550
25.009497869018190385759 2477.77466824135944989 25.009497869018190385759 388.65598266717762499
26.009497869018204596614 2489.93124162481672101 26.009497869018204596614 388.84911074190210911
27.009497869018190385759 2501.56239184976493561 27.009497869018190385759 388.73067386514293275
28.009497869018190385759 2512.67705853895131440 28.009497869018190385759 388.86887796373014226
29.009497869018190385759 2523.30882054807125314 29.009497869018190385759 389.31716082573558424
30.009497869018190385759 2533.47270865733798928 30.009497869018190385759 389.34174628672366225
31.009497869018190385759 2543.22066577958185007 31.009497869018190385759 389.19934255382111132
32.009497869018190385759 2552.60744535502317376 32.009497869018190385759 389.02225427118526113
33.009497869018190385759 2561.65914033654644300 33.009497869018190385759 388.86550486031171658
34.009497869018190385759 2570.37644664244999149 34.009497869018190385759 388.55912382614934586
35.009497869018190385759 2578.76623315951792392 35.009497869018190385759 388.48568647959757527
36.009497869018190385759 2586.85039809828504076 36.009497869018190385759 388.47493616332889133
37.009497869018190385759 2594.64138610909549243 37.009497869018190385759 388.32970896642132175
38.009497869018190385759 2602.14822770378805217 38.009497869018190385759 387.98575332863191534
39.009497869018190385759 2609.40168977107941828 39.009497869018190385759 387.44432547052826976
40.009497869018190385759 2616.42646827396310982 40.009497869018190385759 386.69083001505839547
41.009497869018190385759 2623.24255929151058808 41.009497869018190385759 386.25781900460543739
42.009497869018190385759 2629.84413579136617045 42.009497869018190385759 385.44204210938039523
43.009497869018190385759 2636.23584171914899343 43.009497869018190385759 384.89710990853222938
44.009497869018218807469 2642.41913108731978355 44.009497869018218807469 384.41200760470371733
46.009497869018190385759 2654.21323725240972635 46.009497869018190385759 383.09496573639739836
48.009497869018190385759 2665.24556593245415570 48.009497869018190385759 381.74897350075377744
50.009497869018190385759 2675.64083758064771246 50.009497869018190385759 380.56190105711533533
52.009497869018190385759 2685.50250063502244302 52.009497869018190385759 379.72454465171301763
54.009497869018190385759 2694.84714940966432550 54.009497869018190385759 378.93066691693013581
56.009497869018190385759 2703.69517837938838056 56.009497869018190385759 378.58381367054437305
58.009497869018218807469 2712.10842338313523214 58.009497869018218807469 378.26937643223732266
60.009497869018190385759 2720.18553600106224621 60.009497869018190385759 377.82507024113073157
62.009497869018190385759 2727.90027009451705453 62.009497869018190385759 377.31727864613884549
64.009497869018190385759 2735.27825328747348976 64.009497869018190385759 376.90382361429618641
66.009497869018190385759 2742.33665117669988831 66.009497869018190385759 376.44806164890013633
68.009497869018190385759 2749.08536309836017608 68.009497869018190385759 375.50916530431061346
70.009497869018190385759 2755.52423157622433791 70.009497869018190385759 374.77886287579997315
72.009497869018218807469 2761.69131939452154256 72.009497869018218807469 372.82723700411622758
74.009497869018190385759 2767.61631024257258105 74.009497869018190385759 371.10924622469036649
76.009497869018190385759 2773.32121897762453955 76.009497869018190385759 369.67581851320500164
78.009497869018190385759 2778.79685975160236922 78.009497869018190385759 367.79478113158847918
80.009497869018190385759 2784.04319562757746098 80.009497869018190385759 366.55540847211352684
82.009497869018218807469 2789.06536738223530847 82.009497869018218807469 365.41341304255234945
84.009497869018190385759 2793.88039969328474399 84.009497869018190385759 363.81049179887992295
86.009497869018190385759 2798.44889421335938096 86.009497869018190385759 362.05241815230056091
88.009497869018190385759 2802.81894432739863987 88.009497869018190385759 360.92233795307583932
91.009497869018218807469 2809.08325435319602548 91.009497869018218807469 359.93244375134401025
94.009497869018190385759 2815.08449870908179946 94.009497869018190385759 359.29139389280607020
97.009497869018190385759 2820.84313134711737803 97.009497869018190385759 359.26690248463864918
99.504748934509109403734 2825.44542432178650415 99.504748934509109403734 350.79193633230636351
nan nan nan nan

