Time Pressure difference Time.1 Pressure.1 difference.1
(hr) (psi) (hr) (psi)
0.000200000000006639311 0.49424189038877891 0.000200000000006639311 0.39469791630035633
0.000399999999999067768 0.98674044693180107 0.000399999999999067768 1.02635663439606595
0.000600000000005707079 1.47779867739711568 0.000600000000005707079 1.49851752118726522
0.000799999999998135536 1.96755669127750332 0.000799999999998135536 1.97735850061651242
0.001007140329434719206 2.47352237935857344 0.001007140329434719206 2.47811112648484455
0.001267914553963578328 3.10875714256728397 0.001267914553963578328 3.11034548775685948
0.001596209851982166583 3.90587061366439947 0.001596209851982166583 3.90162486664086616
0.002009509145210586212 4.90549211249645900 0.002009509145210586212 4.89084956283058148
0.002529822128138903281 6.15814323614749171 0.002529822128138903281 6.12588238418005382
0.003184857364445292660 7.72649135867929893 0.003184857364445292660 7.66534338991232111
0.004009497869020606231 9.68804800574294767 0.004009497869020606231 9.58062091128296522
0.005047658755842121536 12.13834734428212769 0.005047658755842121536 11.95804718565693214
0.006354625877804664924 15.19464475248292956 0.006354625877804664924 14.90113375752645375
0.008000000000009777068 19.00012212183237281 0.008000000000009777068 18.53267154767065961
0.010071403294347192059 23.72854956196914600 0.010071403294347192059 22.99639461064480273
0.012679145539692626699 29.58925090879622033 0.012679145539692626699 28.45767653738492697
0.015962098519750611558 36.83207725053197379 0.015962098519750611558 35.10258377137782304
0.020095091452091651263 45.75192345911606395 0.020095091452091651263 43.13433962235045271
0.025298221281346400247 56.69205459244845713 0.025298221281346400247 52.76584171562912218
0.031848573644282396344 70.04515017064827020 0.031848573644282396344 64.20658511185247619
0.040094978690191851456 86.25057224473117401 0.040094978690191851456 77.64202100932074302
0.050476587558421215363 105.78585618019965864 0.050476587558421215363 93.20500212272686724
0.063546258777947173257 129.15076835817635015 0.063546258777947173257 110.93539022488052126
0.079999999999998294697 156.84012508734056723 0.079999999999998294697 130.73114464105245247
0.100714032943542974863 189.30525141118641841 0.100714032943542974863 152.29728676858832159
0.126791455396897845276 226.90323275471567399 0.126791455396897845276 175.09066825107836962
0.159620985197506115583 269.83291253301035795 0.159620985197506115583 198.29604918752411891
0.200950914520774404082 318.07315992665127169 0.200950914520774404082 220.83232596106668666
0.252982212813464002465 371.32187569577490649 0.252982212813464002465 241.43176919398592872
0.318485736442795541734 428.97098022057934941 0.318485736442795541734 258.78965359515484579
0.400949786901819038576 490.11464078119314536 0.400949786901819038576 271.77794994299108566
0.504765875584169521062 553.62292137185636420 0.504765875584169521062 279.68765352932655333
0.635462587779443310865 618.26164350917372303 0.635462587779443310865 282.40193680888631889
0.799999999999997157829 682.84541831182798433 0.799999999999997157829 280.45015152385309420
1.007140329435330272645 746.38153743373925408 1.007140329435330272645 274.90528897041139089
1.267914553968893187630 808.17450814414019078 1.267914553968893187630 267.14600396358650869
1.596209851975103788391 867.85895479676526065 1.596209851975103788391 258.55828617873504527
2.009509145207687197399 925.36558958845751022 2.009509145207687197399 250.30542894248927155
2.529822128134711078928 980.84725302627623478 2.529822128134711078928 243.18502328701202941
3.184857364427983839050 1034.57869227836999926 3.184857364427983839050 237.60038437621273033
4.009497869018190385759 1086.86939339380023739 4.009497869018190385759 233.62271134859489052
5.009497869018190385759 1136.32681062304664010 5.009497869018190385759 231.13588721664785908
6.009497869018190385759 1176.07166176076202646 6.009497869018190385759 229.94185633529301072
7.009497869018204596614 1209.25492508037223160 7.009497869018204596614 229.39536752852225732
8.009497869018190385759 1237.69364044312146689 8.009497869018190385759 229.25777976924749169
9.009497869018204596614 1262.55567543947563536 9.009497869018204596614 229.30007788538085833
10.009497869018190385759 1284.58597768270510642 10.009497869018190385759 229.35758824348548046
11.009497869018190385759 1304.36294045603267477 11.009497869018190385759 229.37459176734984112
12.009497869018190385759 1322.25016376141093133 12.009497869018190385759 229.55129791120194227
13.009497869018190385759 1338.55961745181934930 13.009497869018190385759 229.63034031106133170
14.009497869018204596614 1353.55802504286066323 14.009497869018204596614 229.66895929027961643
15.009497869018190385759 1367.39272593655437049 15.009497869018190385759 229.81404488449766177
16.009497869018190385759 1380.21626860848232354 16.009497869018190385759 229.81492670868757955
17.009497869018190385759 1392.17741816167085744 17.009497869018190385759 229.64564035691671506
18.009497869018190385759 1403.35113114583873539 18.009497869018190385759 229.70604475880870154
19.009497869018204596614 1413.80701730584269171 19.009497869018204596614 229.69744231930607725
20.009497869018190385759 1423.63751404693039149 20.009497869018190385759 229.70115349636725455
21.009497869018204596614 1432.94230041250443719 21.009497869018204596614 229.57245028819610866
22.009497869018190385759 1441.74516884160379959 22.009497869018190385759 229.51321767857785972
23.009497869018190385759 1450.08089107167188558 23.009497869018190385759 229.83722822999197888
24.009497869018190385759 1457.97464916185003858 24.009497869018190385759 229.87721760285691630
25.009497869018190385759 1465.48302942704663110 25.009497869018190385759 229.87108318784365224
26.009497869018204596614 1472.67305046398200830 26.009497869018204596614 229.98530903720850915
27.009497869018190385759 1479.55230929484127955 27.009497869018190385759 229.91525939339962292
28.009497869018190385759 1486.12609327104974000 28.009497869018190385759 229.99700038610282604
29.009497869018190385759 1492.41426265020095343 29.009497869018190385759 230.26213786412790796
30.009497869018190385759 1498.42570740667611062 30.009497869018190385759 230.27667896679980686
31.009497869018190385759 1504.19114924339100980 31.009497869018190385759 230.19245409495383115
32.009497869018190385759 1509.74297215331898769 32.009497869018190385759 230.08771500134716348
33.009497869018190385759 1515.09660884716208784 33.009497869018190385759 229.99500535972708803
34.009497869018190385759 1520.25247092669746962 34.009497869018190385759 229.81379590115196265
35.009497869018190385759 1525.21462100388976069 35.009497869018190385759 229.77036128763475631
36.009497869018190385759 1529.99601080365755479 36.009497869018190385759 229.76400299918557835
37.009497869018190385759 1534.60400073052892367 37.009497869018190385759 229.67810818590524491
38.009497869018190385759 1539.04393189239976891 38.009497869018190385759 229.47467517945923987
39.009497869018190385759 1543.33400140535991341 39.009497869018190385759 229.15444697312557309
40.009497869018190385759 1547.48881572863638212 40.009497869018190385759 228.70879111228603620
41.009497869018190385759 1551.52020156903472525 41.009497869018190385759 228.45268619059666548
42.009497869018190385759 1555.42471252073823962 42.009497869018190385759 227.97019389173095760
43.009497869018190385759 1559.20509525138550089 43.009497869018190385759 227.64789303735255999
44.009497869018218807469 1562.86220973852414318 44.009497869018218807469 227.36097865288141406
46.009497869018190385759 1569.83784907075914816 46.009497869018190385759 226.58201253792887542
48.009497869018190385759 1576.36293412505983724 48.009497869018190385759 225.78592369080365643
50.009497869018190385759 1582.51123097463755585 50.009497869018190385759 225.08382816002344384
52.009497869018190385759 1588.34392433184711990 52.009497869018190385759 224.58857263197737097
54.009497869018190385759 1593.87082892519902089 54.009497869018190385759 224.11903261985429481
56.009497869018190385759 1599.10400709317696055 56.009497869018190385759 223.91388581905957267
58.009497869018218807469 1604.08003172262965563 58.009497869018218807469 223.72791150813239369
60.009497869018190385759 1608.85725041812315794 60.009497869018190385759 223.46512603724929136
62.009497869018190385759 1613.42013986703523187 62.009497869018190385759 223.16479204219939447
64.009497869018190385759 1617.78385756068269075 64.009497869018190385759 222.92025352933023896
66.009497869018190385759 1621.95855611345564284 66.009497869018190385759 222.65069252593994520
68.009497869018190385759 1625.95009050052135535 68.009497869018190385759 222.09538106964694748
70.009497869018190385759 1629.75836758235936941 70.009497869018190385759 221.66344275457353774
72.009497869018218807469 1633.40589964188893646 72.009497869018218807469 220.50915111078444397
74.009497869018190385759 1636.91024313551747582 74.009497869018190385759 219.49304324422539025
76.009497869018190385759 1640.28441877901241241 76.009497869018190385759 218.64524057192542728
78.009497869018190385759 1643.52299359065955286 78.009497869018190385759 217.53269858180433971
80.009497869018190385759 1646.62594572406442239 80.009497869018190385759 216.79967002078282690
82.009497869018218807469 1649.59631569824068720 82.009497869018218807469 216.12423534822929128
84.009497869018190385759 1652.44417278081959921 84.009497869018190385759 215.17618550728980154
86.009497869018190385759 1655.14621476833872293 86.009497869018190385759 214.13637057715590117
88.009497869018190385759 1657.73088655546962400 88.009497869018190385759 213.46798318298223762
91.009497869018218807469 1661.43592081526003312 91.009497869018218807469 212.88250897818062413
94.009497869018190385759 1664.98536454463578593 94.009497869018190385759 212.50335921095387448
97.009497869018190385759 1668.39131525997504468 97.009497869018190385759 212.48887373594433825
99.504748934509109403734 1671.11334738714026571 99.504748934509109403734 207.47634405340190256
nan nan nan nan

