Time Pressure difference Time.1 Pressure.1 difference.1
(hr) (psi) (hr) (psi)
0.000200000000006639311 0.79992426965444385 0.000200000000006639311 0.63881360234830775
0.000399999999999067768 1.59702697545432692 0.000399999999999067768 1.66114527550153190
0.000600000000005707079 2.39179853165281076 0.000600000000005707079 2.42533171916527168
0.000799999999998135536 3.18446570369787540 0.000799999999998135536 3.20032980856084270
0.001007140329434719206 4.00336479213832952 0.001007140329434719206 4.01079162152084923
0.001267914553963578328 5.03148424923074700 0.001267914553963578328 5.03405496589891666
0.001596209851982166583 6.32160235455263209 0.001596209851982166583 6.31473066651286352
0.002009509145210586212 7.93947715014132704 0.002009509145210586212 7.91577836807705992
0.002529822128138903281 9.96687720405047806 0.002529822128138903281 9.91466342179057669
0.003184857364445292660 12.50522887127422855 0.003184857364445292660 12.40626165459758923
0.004009497869020606231 15.67998357904279061 0.004009497869020606231 15.50611418078234749
0.005047658755842121536 19.64576217234233368 0.005047658755842121536 19.35394863829852952
0.006354625877804664924 24.59234100275808643 0.006354625877804664924 24.11729715713945055
0.008000000000009777068 30.75145815684802741 0.008000000000009777068 29.99489529480142380
0.010071403294347192059 38.40435836668283542 0.010071403294347192059 37.21937480680831101
0.012679145539692626699 47.88982962213573558 0.012679145539692626699 46.05839076554904921
0.015962098519750611558 59.61225276010469543 0.015962098519750611558 56.81308936443166147
0.020095091452091651263 74.04891141366181273 0.020095091452091651263 69.81238496861089970
0.025298221281346400247 91.75537575214767116 0.025298221281346400247 85.40084970109386120
0.031848573644282396344 113.36719262913322837 0.031848573644282396344 103.91754867683013686
0.040094978690191851456 139.59546398601028727 0.040094978690191851456 125.66263232264851979
0.050476587558421215363 171.21307479249119865 0.050476587558421215363 150.85112108266548603
0.063546258777947173257 209.02889063684673943 0.063546258777947173257 179.54753073371418282
0.079999999999998294697 253.84376547749405972 0.079999999999998294697 211.58670972997231274
0.100714032943542974863 306.38816320835712759 0.100714032943542974863 246.49123892126141300
0.126791455396897845276 367.24002208872474284 0.126791455396897845276 283.38203953914029398
0.159620985197506115583 436.72116767947733251 0.159620985197506115583 320.93965607997597544
0.200950914520774404082 514.79740001573986774 0.200950914520774404082 357.41433596723902610
0.252982212813464002465 600.97977528576689110 0.252982212813464002465 390.75427518287136763
0.318485736442795541734 694.28412428977799209 0.318485736442795541734 418.84779228930096906
0.400949786901819038576 793.24436818872106869 0.400949786901819038576 439.86918621025273524
0.504765875584169521062 896.03171980016429643 0.504765875584169521062 452.67094176259075766
0.635462587779443310865 1000.64867680560371355 0.635462587779443310865 457.06397503690334361
0.799999999999997157829 1105.17670224250468891 0.799999999999997157829 453.90503515541263369
1.007140329435330272645 1208.00911016586701408 1.007140329435330272645 444.93074500589278841
1.267914553968893187630 1308.02025435765881411 1.267914553968893187630 432.37244002846023250
1.596209851975103788391 1404.61877893997461797 1.596209851975103788391 418.47332704222156963
2.009509145207687197399 1497.69254247678100000 2.009509145207687197399 405.11618163297004003
2.529822128134711078928 1587.48891540219142371 2.529822128134711078928 393.59189483259257258
3.184857364427983839050 1674.45257254465605001 3.184857364427983839050 384.55322715007207535
4.009497869018190385759 1759.08441317349502242 4.009497869018190385759 378.11541349360823006
5.009497869018190385759 1839.13061954620843608 5.009497869018190385759 374.09051998257461946
6.009497869018190385759 1903.45716012708203380 6.009497869018190385759 372.15799605191119781
7.009497869018204596614 1957.16385353344276155 7.009497869018204596614 371.27351080666710459
8.009497869018190385759 2003.19155587685054343 8.009497869018190385759 371.05082675258040581
9.009497869018204596614 2043.43044613145366384 9.009497869018204596614 371.11928572037271579
10.009497869018190385759 2079.08621261923553902 10.009497869018190385759 371.21236551004454896
11.009497869018190385759 2111.09497757841882049 11.009497869018190385759 371.23988549908887080
12.009497869018190385759 2140.04522302897294139 12.009497869018190385759 371.52588216552510403
13.009497869018190385759 2166.44186824554935811 13.009497869018190385759 371.65381129336481081
14.009497869018204596614 2190.71660187609222703 14.009497869018204596614 371.71631562443570829
15.009497869018190385759 2213.10789088554929549 15.009497869018190385759 371.95113482986766940
16.009497869018190385759 2233.86263305877082530 16.009497869018190385759 371.95256205120364257
17.009497869018190385759 2253.22160283981338580 17.009497869018190385759 371.67857422472405915
18.009497869018190385759 2271.30611645956787470 18.009497869018190385759 371.77633798778617802
19.009497869018204596614 2288.22883641264934340 19.009497869018204596614 371.76241504788526981
20.009497869018190385759 2304.13937147427532182 20.009497869018190385759 371.76842154117929340
21.009497869018204596614 2319.19905091973441813 21.009497869018204596614 371.56011702106360417
22.009497869018190385759 2333.44638251170454168 22.009497869018190385759 371.46424978902604153
23.009497869018190385759 2346.93764386894144991 23.009497869018190385759 371.98865678232317578
24.009497869018190385759 2359.71359183674212545 24.009497869018190385759 372.05337907823729893
25.009497869018190385759 2371.86581065251448308 25.009497869018190385759 372.04345060486286911
26.009497869018204596614 2383.50276907027637208 26.009497869018204596614 372.22832370223829912
27.009497869018190385759 2394.63676277467584441 27.009497869018190385759 372.11494923671233437
28.009497869018190385759 2405.27634927734652592 28.009497869018190385759 372.24724600305381728
29.009497869018190385759 2415.45367215486294299 29.009497869018190385759 372.67636766916837132
30.009497869018190385759 2425.18311971870480193 30.009497869018190385759 372.69990226055159610
31.009497869018190385759 2434.51441465779089413 31.009497869018190385759 372.56358536712701834
32.009497869018190385759 2443.49997005654813620 32.009497869018190385759 372.39406646436520987
33.009497869018190385759 2452.16476356271823533 33.009497869018190385759 372.24401707801206385
34.009497869018190385759 2460.50946134858759251 34.009497869018190385759 371.95073185346109312
35.009497869018190385759 2468.54063870041363771 35.009497869018190385759 371.88043347897854574
36.009497869018190385759 2476.27925782171814717 36.009497869018190385759 371.87014266927008066
37.009497869018190385759 2483.73723143445204187 37.009497869018190385759 371.73112299668360947
38.009497869018190385759 2490.92320405442160336 38.009497869018190385759 371.40186924003234026
39.009497869018190385759 2497.86662748464141259 39.009497869018190385759 370.88358392457126911
40.009497869018190385759 2504.59114209525523620 40.009497869018190385759 370.16229553131336161
41.009497869018190385759 2511.11588926215199535 41.009497869018190385759 369.74779294377242422
42.009497869018190385759 2517.43529102095953931 42.009497869018190385759 368.96688523989399755
43.009497869018190385759 2523.55379281862860807 43.009497869018190385759 368.44524536969834116
44.009497869018218807469 2529.47278651798114879 44.009497869018218807469 367.98087805499966407
46.009497869018190385759 2540.76277084897674285 46.009497869018190385759 366.72013121684960879
48.009497869018190385759 2551.32353876039087481 48.009497869018190385759 365.43167145251078409
50.009497869018190385759 2561.27447971189212694 50.009497869018190385759 364.29533868588674750
52.009497869018190385759 2570.71462038919116821 52.009497869018190385759 363.49377385646084804
54.009497869018190385759 2579.65984580666690817 54.009497869018190385759 362.73382926541120241
56.009497869018190385759 2588.12967870710826901 56.009497869018190385759 362.40180175420897513
58.009497869018218807469 2596.18331184687804125 58.009497869018218807469 362.10080467618740840
60.009497869018190385759 2603.91518008849152466 60.009497869018190385759 361.67548970398496522
62.009497869018190385759 2611.30015914614250505 62.009497869018190385759 361.18940291871939507
64.009497869018190385759 2618.36278122846670158 64.009497869018190385759 360.79362041805887884
66.009497869018190385759 2625.11947821387911972 66.009497869018190385759 360.35733933189942491
68.009497869018190385759 2631.57972630588574248 68.009497869018190385759 359.45857473961348205
70.009497869018190385759 2637.74337475934817121 70.009497869018190385759 358.75948802126777082
72.009497869018218807469 2643.64685942040159716 72.009497869018218807469 356.89128154568976470
74.009497869018190385759 2649.31859519244289913 74.009497869018190385759 355.24672377174630356
76.009497869018190385759 2654.77965593981343773 76.009497869018190385759 353.87456583321710468
78.009497869018190385759 2660.02124845009257115 78.009497869018190385759 352.07393064584465492
80.009497869018190385759 2665.04333736516673525 80.009497869018190385759 350.88753315968716606
82.009497869018218807469 2669.85084372673236430 82.009497869018218807469 349.79435065604167221
84.009497869018190385759 2674.46006451752828070 84.009497869018190385759 348.25994393868921861
86.009497869018190385759 2678.83328541497530750 86.009497869018190385759 346.57701658117838406
88.009497869018190385759 2683.01654412254993076 88.009497869018190385759 345.49524000875948104
91.009497869018218807469 2689.01309536990811466 91.009497869018218807469 344.54765738821504328
94.009497869018190385759 2694.75782530501601286 94.009497869018190385759 343.93400826915728885
97.009497869018190385759 2700.27031360564023998 97.009497869018190385759 343.91056371044442130
99.504748934509109403734 2704.67588829212809287 99.504748934509109403734 335.79784760239664365
nan nan nan nan

