Time Pressure difference Time.1 Pressure.1 difference.1
(hr) (psi) (hr) (psi)
0.000200000000006639311 0.04734754244060571 0.000200000000006639311 0.03781139702373161
0.000399999999999067768 0.09452807642876078 0.000399999999999067768 0.09832324060600968
0.000600000000005707079 0.14157062959938754 0.000600000000005707079 0.14355546001289771
0.000799999999998135536 0.18848862420641632 0.000799999999998135536 0.18942762106746422
0.001007140329434719206 0.23695928676208183 0.001007140329434719206 0.23739888102459858
0.001267914553963578328 0.29781370945602553 0.001267914553963578328 0.29796587025569915
0.001596209851982166583 0.37417584030062312 0.001596209851982166583 0.37376910487147791
0.002009509145210586212 0.46993789985260198 0.002009509145210586212 0.46853516820393809
0.002529822128138903281 0.58993977220236471 0.002529822128138903281 0.58684923680380352
0.003184857364445292660 0.74018488646171432 0.003184857364445292660 0.73432701382353338
0.004009497869020606231 0.92809871651655129 0.004009497869020606231 0.91780738141702356
0.005047658755842121536 1.16283327499845601 0.005047658755842121536 1.14556082282763882
0.006354625877804664924 1.45562143006979339 0.006354625877804664924 1.42750357004875261
0.008000000000009777068 1.82017976629318534 0.008000000000009777068 1.77539878691971054
0.010071403294347192059 2.27315516812141372 0.010071403294347192059 2.20301595429706509
0.012679145539692626699 2.83460050722921775 0.012679145539692626699 2.72619758425368186
0.015962098519750611558 3.52845109795012224 0.015962098519750611558 3.36276852935888337
0.020095091452091651263 4.38295737339431213 0.020095091452091651263 4.13219724113273301
0.025298221281346400247 5.43100354919254080 0.025298221281346400247 5.05487895427035205
0.031848573644282396344 6.71020766340663943 0.031848573644282396344 6.15088294348838804
0.040094978690191851456 8.26265986210029624 0.040094978690191851456 7.43797512190131460
0.050476587558421215363 10.13410723070820296 0.050476587558421215363 8.92888255629484284
0.063546258777947173257 12.37242654859840485 0.063546258777947173257 10.62742393750956360
0.079999999999998294697 15.02502038651834049 0.079999999999998294697 12.52382394040334468
0.100714032943542974863 18.13512492510525220 0.100714032943542974863 14.58982411060425832
0.126791455396897845276 21.73694834793074904 0.126791455396897845276 16.77339174842263603
0.159620985197506115583 25.84953951996906341 0.159620985197506115583 18.99642824149390918
0.200950914520774404082 30.47087414423381801 0.200950914520774404082 21.15536568030386633
0.252982212813464002465 35.57201162127591942 0.252982212813464002465 23.12875772110453454
0.318485736442795541734 41.09469894550088043 0.318485736442795541734 24.79161387382155368
0.400949786901819038576 46.95215886475295974 0.400949786901819038576 26.03587083487477472
0.504765875584169521062 53.03614540873247307 0.504765875584169521062 26.79360714482624317
0.635462587779443310865 59.22842635297966041 0.635462587779443310865 27.05363092118742330
0.799999999999997157829 65.41544343491462143 0.799999999999997157829 26.86665317119264884
1.007140329435330272645 71.50209686340024007 1.007140329435330272645 26.33546465766966449
1.267914553968893187630 77.42175960372435384 1.267914553968893187630 25.59213819483098007
1.596209851975103788391 83.13942928305145585 1.596209851975103788391 24.76944926418134330
2.009509145207687197399 88.64846824628921240 2.009509145207687197399 23.97883941129729024
2.529822128134711078928 93.96351835713906553 2.529822128134711078928 23.29671651657089981
3.184857364427983839050 99.11089993254972796 3.184857364427983839050 22.76171749486407947
4.009497869018190385759 104.12026121587665273 4.009497869018190385759 22.38066310398303926
5.009497869018190385759 108.85819866472884598 5.009497869018190385759 22.14242953167886796
6.009497869018190385759 112.66568860565283217 6.009497869018190385759 22.02804338001966400
7.009497869018204596614 115.84458946148103564 7.009497869018204596614 21.97569067079961158
8.009497869018190385759 118.56897059707215192 8.009497869018190385759 21.96250999470102272
9.009497869018204596614 120.95071176479009978 9.009497869018204596614 21.96656208313732606
10.009497869018190385759 123.06117769397344830 10.009497869018190385759 21.97207147878767941
11.009497869018190385759 124.95577748906531212 11.009497869018190385759 21.97370038779653711
12.009497869018190385759 126.66934341916038420 12.009497869018190385759 21.99062853939245343
13.009497869018190385759 128.23176167185496865 13.009497869018190385759 21.99820066845461497
14.009497869018204596614 129.66858391166900333 14.009497869018204596614 22.00190030175787825
15.009497869018190385759 130.99392500568671949 15.009497869018190385759 22.01579925784263025
16.009497869018190385759 132.22239884148484634 16.009497869018190385759 22.01588373511797059
17.009497869018190385759 133.36825686590793794 17.009497869018190385759 21.99966638713319966
18.009497869018190385759 134.43867979044168237 18.009497869018190385759 22.00545302731444863
19.009497869018204596614 135.44033611165212960 19.009497869018204596614 22.00462892806797655
20.009497869018190385759 136.38208117760510163 20.009497869018190385759 22.00498445259316682
21.009497869018204596614 137.27346407313066834 21.009497869018204596614 21.99265490155828573
22.009497869018190385759 138.11676407390152121 22.009497869018190385759 21.98698051710746171
23.009497869018190385759 138.91531225392486704 23.009497869018190385759 22.01802018337738431
24.009497869018190385759 139.67152101214361437 24.009497869018190385759 22.02185109808881336
25.009497869018190385759 140.39081122242296829 25.009497869018190385759 22.02126343144048448
26.009497869018204596614 141.07960315369237492 26.009497869018204596614 22.03220607583342172
27.009497869018190385759 141.73862458790915753 27.009497869018190385759 22.02549543768702378
28.009497869018190385759 142.36838204445351153 28.009497869018190385759 22.03332608740817022
29.009497869018190385759 142.97077810262430830 29.009497869018190385759 22.05872581219376727
30.009497869018190385759 143.54666440702612817 30.009497869018190385759 22.06011882539090507
31.009497869018190385759 144.09898404516516734 31.009497869018190385759 22.05205022422246941
32.009497869018190385759 144.63083934914149609 32.009497869018190385759 22.04201639508703892
33.009497869018190385759 145.14370874670291300 33.009497869018190385759 22.03313496723436060
34.009497869018190385759 145.63763166860798037 34.009497869018190385759 22.01577540565657287
35.009497869018190385759 146.11299730625501070 35.009497869018190385759 22.01161444268097611
36.009497869018190385759 146.57104641312349713 36.009497869018190385759 22.01100532933374510
37.009497869018190385759 147.01248410359687568 37.009497869018190385759 22.00277675058251958
38.009497869018190385759 147.43782204683495252 38.009497869018190385759 21.98328821046920467
39.009497869018190385759 147.84880349597565896 39.009497869018190385759 21.95261088650110182
40.009497869018190385759 148.24682772526432473 40.009497869018190385759 21.90991780403412292
41.009497869018190385759 148.63302771333610508 41.009497869018190385759 21.88538338296472219
42.009497869018190385759 149.00707330030601838 42.009497869018190385759 21.83916143164481483
43.009497869018190385759 149.36922761231758727 43.009497869018190385759 21.80828555147747139
44.009497869018218807469 149.71957303377456583 44.009497869018218807469 21.78079963565418709
46.009497869018190385759 150.38782755803910618 46.009497869018190385759 21.70617599102848061
48.009497869018190385759 151.01291973971163429 48.009497869018190385759 21.62991201743833614
50.009497869018190385759 151.60191624462913751 50.009497869018190385759 21.56265244558208138
52.009497869018190385759 152.16067846540386199 52.009497869018190385759 21.51520779835749764
54.009497869018190385759 152.69014663653166508 54.009497869018190385759 21.47022665433898325
56.009497869018190385759 153.19147630976652863 56.009497869018190385759 21.45057393560738390
58.009497869018218807469 153.66817110620149833 58.009497869018218807469 21.43275790918243118
60.009497869018190385759 154.12582062829079632 60.009497869018190385759 21.40758350272808386
62.009497869018190385759 154.56293776877478763 62.009497869018190385759 21.37881201076532278
64.009497869018190385759 154.98097458984690888 64.009497869018190385759 21.35538563222155162
66.009497869018190385759 155.38090369490248577 66.009497869018190385759 21.32956214114046389
68.009497869018190385759 155.76328598072223031 68.009497869018190385759 21.27636423692415946
70.009497869018190385759 156.12811252469663259 70.009497869018190385759 21.23498527228687749
72.009497869018218807469 156.47753996569358037 72.009497869018218807469 21.12440607279783933
74.009497869018190385759 156.81325018273025762 74.009497869018190385759 21.02706464692579402
76.009497869018190385759 157.13649053849363213 76.009497869018190385759 20.94584657579789422
78.009497869018190385759 157.44674056246654459 78.009497869018190385759 20.83926692296276784
80.009497869018190385759 157.74399816180110179 80.009497869018190385759 20.76904401879768258
82.009497869018218807469 158.02855461310875285 82.009497869018218807469 20.70433851235137723
84.009497869018190385759 158.30137453530539915 84.009497869018190385759 20.61351693095044979
86.009497869018190385759 158.56022561646270219 86.009497869018190385759 20.51390440823174188
88.009497869018190385759 158.80783282968363324 88.009497869018190385759 20.44987401921006409
91.009497869018218807469 159.16276888482323670 91.009497869018218807469 20.39378657438032860
94.009497869018190385759 159.50279962864576078 94.009497869018190385759 20.35746466390650866
97.009497869018190385759 159.82908398288836338 97.009497869018190385759 20.35607697974592867
99.504748934509109403734 160.08985008582686760 99.504748934509109403734 19.87588506057799620
nan nan nan nan

