Time Pressure difference Time.1 Pressure.1 difference.1
(hr) (psi) (hr) (psi)
0.000200000000006639311 0.71270511252701230 0.000200000000006639311 0.56916102888353903
0.000399999999999067768 1.42289630834871494 0.000399999999999067768 1.48002351649046138
0.000600000000005707079 2.13101052975920213 0.000600000000005707079 2.16088745072046029
0.000799999999998135536 2.83724981700184520 0.000799999999998135536 2.85138419080498773
0.001007140329434719206 3.56686084283975813 0.001007140329434719206 3.57347789331764165
0.001267914553963578328 4.48288004760122671 0.001267914553963578328 4.48517046805947039
0.001596209851982166583 5.63233106978832687 0.001596209851982166583 5.62620863122329951
0.002009509145210586212 7.07380207146548212 0.002009509145210586212 7.05268726875401519
0.002529822128138903281 8.88014604473033131 0.002529822128138903281 8.83362535399409587
0.003184857364445292660 11.14173039621317507 0.003184857364445292660 11.05355399755423740
0.004009497869020606231 13.97032804861756183 0.004009497869020606231 13.81541637290888147
0.005047658755842121536 17.50370087629254456 0.005047658755842121536 17.24370501730024685
0.006354625877804664924 21.91093310526110116 0.006354625877804664924 21.48768531757595923
0.008000000000009777068 27.39849542946584293 0.008000000000009777068 26.72442384521248115
0.010071403294347192059 34.21696726751181217 0.010071403294347192059 33.16118752257687419
0.012679145539692626699 42.66819710881875238 0.012679145539692626699 41.03644784718699867
0.015962098519750611558 53.11247442177552358 0.015962098519750611558 50.61851575771792966
0.020095091452091651263 65.97504256793543220 0.020095091452091651263 62.20044268231376350
0.025298221281346400247 81.75089552995088127 0.025298221281346400247 76.08923057480635066
0.031848573644282396344 101.00628377548943604 0.031848573644282396344 92.58697483356205282
0.040094978690191851456 124.37477476635184814 0.040094978690191851456 111.96109920335662480
0.050476587558421215363 152.54498252539713121 0.050476587558421215363 134.40317953159603803
0.063546258777947173257 186.23757857363915491 0.063546258777947173257 159.97069716461763278
0.079999999999998294697 226.16609634443398136 0.079999999999998294697 188.51650773449244980
0.100714032943542974863 272.98135413579490205 0.100714032943542974863 219.61524713856937296
0.126791455396897845276 327.19827513201022384 0.126791455396897845276 252.48368631836180498
0.159620985197506115583 389.10359487953428470 0.159620985197506115583 285.94623563511879638
0.200950914520774404082 458.66684238162486054 0.200950914520774404082 318.44392550352131366
0.252982212813464002465 535.45238545710060407 0.252982212813464002465 348.14866885452084944
0.318485736442795541734 618.58336307438173662 0.318485736442795541734 373.17902989015601634
0.400949786901819038576 706.75354922733401963 0.400949786901819038576 391.90837151443082575
0.504765875584169521062 798.33355720513077358 0.504765875584169521062 403.31429702212136590
0.635462587779443310865 891.54368089222009530 0.635462587779443310865 407.22833912945282009
0.799999999999997157829 984.67456959924118109 0.799999999999997157829 404.41383194532096468
1.007140329435330272645 1076.29472120697209903 1.007140329435330272645 396.41804695229075151
1.267914553968893187630 1165.40122350869296497 1.267914553968893187630 385.22902756429795090
1.596209851975103788391 1251.46719868172181123 1.596209851975103788391 372.84539418715070269
2.009509145207687197399 1334.39273254940621882 2.009509145207687197399 360.94463534900131663
2.529822128134711078928 1414.39822369167222860 2.529822128134711078928 350.67689072311986820
3.184857364427983839050 1491.87986214259080953 3.184857364427983839050 342.62374755426981210
4.009497869018190385759 1567.28393198635399131 4.009497869018190385759 336.88787619679732188
5.009497869018190385759 1638.60235884802364126 5.009497869018190385759 333.30183400316616371
6.009497869018190385759 1695.91510216930055321 6.009497869018190385759 331.58002140450656725
7.009497869018204596614 1743.76592557808294259 7.009497869018204596614 330.79197536045728611
8.009497869018190385759 1784.77503109277017757 8.009497869018190385759 330.59357149918378127
9.009497869018204596614 1820.62650340684035655 9.009497869018204596614 330.65456609354077955
10.009497869018190385759 1852.39456949875807368 10.009497869018190385759 330.73749699648823253
11.009497869018190385759 1880.91328220382524705 11.009497869018190385759 330.76201636367420633
12.009497869018190385759 1906.70695883578264329 12.009497869018190385759 331.01682959296010722
13.009497869018190385759 1930.22546516581678588 13.009497869018190385759 331.13081006200104639
14.009497869018204596614 1951.85342098617570628 14.009497869018204596614 331.18649927909228836
15.009497869018190385759 1971.80329219086343073 15.009497869018190385759 331.39571514436801181
16.009497869018190385759 1990.29505624550870380 16.009497869018190385759 331.39698674967053194
17.009497869018190385759 2007.54323492893013281 17.009497869018190385759 331.15287298526817494
18.009497869018190385759 2023.65591684559626628 18.009497869018190385759 331.23997714799639880
19.009497869018204596614 2038.73348041750068660 19.009497869018204596614 331.22757228565484411
20.009497869018190385759 2052.90922193658161632 20.009497869018190385759 331.23292386534978959
21.009497869018204596614 2066.32688025870402271 21.009497869018204596614 331.04733167608787880
22.009497869018190385759 2079.02076448083334981 22.009497869018190385759 330.96191725751231161
23.009497869018190385759 2091.04101603276376409 23.009497869018190385759 331.42914591820692749
24.009497869018190385759 2102.42394786700378972 24.009497869018190385759 331.48681126596846980
25.009497869018190385759 2113.25115840068247053 25.009497869018190385759 331.47796533641991346
26.009497869018204596614 2123.61928957663258188 26.009497869018204596614 331.64268093096620760
27.009497869018190385759 2133.53929642852745019 27.009497869018190385759 331.54166816728888989
28.009497869018190385759 2143.01880340598472685 28.009497869018190385759 331.65954005256509163
29.009497869018190385759 2152.08644933423965995 29.009497869018190385759 332.04187275196932205
30.009497869018190385759 2160.75505370576183850 30.009497869018190385759 332.06284126641043031
31.009497869018190385759 2169.06891773248617028 31.009497869018190385759 331.94138758566452907
32.009497869018190385759 2177.07473967655050728 32.009497869018190385759 331.79035205236277761
33.009497869018190385759 2184.79477376615977846 33.009497869018190385759 331.65666319100142800
34.009497869018190385759 2192.22961353799382778 34.009497869018190385759 331.39535610619896033
35.009497869018190385759 2199.38511734678604626 35.009497869018190385759 331.33272266351360713
36.009497869018190385759 2206.27996179754336481 36.009497869018190385759 331.32355390470792145
37.009497869018190385759 2212.92476071730015974 37.009497869018190385759 331.19969214034739480
38.009497869018190385759 2219.32721607340954506 38.009497869018190385759 330.90633832601008635
39.009497869018190385759 2225.51356841310735035 39.009497869018190385759 330.44456387049024215
40.009497869018190385759 2231.50488049608384244 40.009497869018190385759 329.80192062914522921
41.009497869018190385759 2237.31820663232247171 41.009497869018190385759 329.43261302778472555
42.009497869018190385759 2242.94857704671176180 42.009497869018190385759 328.73685102370615141
43.009497869018190385759 2248.39995248014929530 43.009497869018190385759 328.27208777487140878
44.009497869018218807469 2253.67357303471180785 44.009497869018218807469 327.85835241037358401
46.009497869018190385759 2263.73256218943106433 46.009497869018190385759 326.73507018074451480
48.009497869018190385759 2273.14184450302764162 48.009497869018190385759 325.58709668354543965
50.009497869018190385759 2282.00779189283821324 50.009497869018190385759 324.57466312823555654
52.009497869018190385759 2290.41863374239483164 52.009497869018190385759 323.86049633317077223
54.009497869018190385759 2298.38852305516138586 54.009497869018190385759 323.18341174426052476
56.009497869018190385759 2305.93485392595903249 56.009497869018190385759 322.88758660966902880
58.009497869018218807469 2313.11036507229619019 58.009497869018218807469 322.61940852769345156
60.009497869018190385759 2319.99919472058809333 60.009497869018190385759 322.24046746211746495
62.009497869018190385759 2326.57895799313655516 62.009497869018190385759 321.80738079362532744
64.009497869018190385759 2332.87151224716990328 64.009497869018190385759 321.45475214817707865
66.009497869018190385759 2338.89149772326891252 66.009497869018190385759 321.06604065085122102
68.009497869018190385759 2344.64735739402885883 68.009497869018190385759 320.26527219791103107
70.009497869018190385759 2350.13895695069686553 70.009497869018190385759 319.64240988810774979
72.009497869018218807469 2355.39875948359804170 72.009497869018218807469 317.97790193790427793
74.009497869018190385759 2360.45208169793977504 74.009497869018190385759 316.51265731688300775
76.009497869018190385759 2365.31769968469370724 76.009497869018190385759 315.29011161464205770
78.009497869018190385759 2369.98777899291735594 78.009497869018190385759 313.68580736670270426
80.009497869018190385759 2374.46228811974287964 80.009497869018190385759 312.62876786190201983
82.009497869018218807469 2378.74561154468983659 82.009497869018218807469 311.65477971223651821
84.009497869018190385759 2382.85226932091291019 84.009497869018190385759 310.28767590799100162
86.009497869018190385759 2386.74865927938617460 86.009497869018190385759 308.78824530285675110
88.009497869018190385759 2390.47579943629034460 88.009497869018190385759 307.82441944705675496
91.009497869018218807469 2395.81852110839145098 91.009497869018218807469 306.98015580383020051
94.009497869018190385759 2400.93687862066781236 94.009497869018190385759 306.43341546722427893
97.009497869018190385759 2405.84831679505623470 97.009497869018190385759 306.41252716880717344
99.504748934509109403734 2409.77353287086771161 99.504748934509109403734 299.18437512238455156
nan nan nan nan

