Time Pressure difference Time.1 Pressure.1 difference.1
(hr) (psi) (hr) (psi)
0.000200000000006639311 0.15284118963283250 0.000200000000006639311 0.12205784302397572
0.000399999999999067768 0.30514326426126287 0.000399999999999067768 0.31739432055273298
0.000600000000005707079 0.45699992712784754 0.000600000000005707079 0.46340709898900312
0.000799999999998135536 0.60845450621018593 0.000799999999998135536 0.61148565397216514
0.001007140329434719206 0.76492120638987826 0.001007140329434719206 0.76634024751800245
0.001267914553963578328 0.96136355333173140 0.001267914553963578328 0.96185473907102870
0.001596209851982166583 1.20786587044411675 0.001596209851982166583 1.20655289993599912
0.002009509145210586212 1.51699251882243447 0.002009509145210586212 1.51246440262323878
0.002529822128138903281 1.90436698395149295 0.002529822128138903281 1.89439051880526055
0.003184857364445292660 2.38936875629746392 0.003184857364445292660 2.37045913234263406
0.004009497869020606231 2.99596778664992058 0.004009497869020606231 2.96274663474969024
0.005047658755842121536 3.75370741403010344 0.005047658755842121536 3.69795072632079913
0.006354625877804664924 4.69884812513757755 0.006354625877804664924 4.60808169980650018
0.008000000000009777068 5.87566801750782641 0.008000000000009777068 5.73111187356538121
0.010071403294347192059 7.33790440235684560 0.010071403294347192059 7.11149009808175414
0.012679145539692626699 9.15028935666975585 0.012679145539692626699 8.80035711408206112
0.015962098519750611558 11.39008775478635904 0.015962098519750611558 10.85525279652692276
0.020095091452091651263 14.14849397727286728 0.020095091452091651263 13.33902267313022350
0.025298221281346400247 17.53166057984960702 0.025298221281346400247 16.31750399273236596
0.031848573644282396344 21.66102122924248619 0.031848573644282396344 19.85548178248883389
0.040094978690191851456 26.67244587063955663 0.040094978690191851456 24.01030565666389194
0.050476587558421215363 32.71360930614577711 0.050476587558421215363 28.82305947996931650
0.063546258777947173257 39.93906113933520885 0.063546258777947173257 34.30607025441683078
0.079999999999998294697 48.50182019507674624 0.079999999999998294697 40.42778254445992303
0.100714032943542974863 58.54145589858537591 0.100714032943542974863 47.09697607633655281
0.126791455396897845276 70.16839466700452022 0.126791455396897845276 54.14568564403096218
0.159620985197506115583 83.44412757323347307 0.159620985197506115583 61.32180344622594959
0.200950914520774404082 98.36212004454425539 0.200950914520774404082 68.29100500308615551
0.252982212813464002465 114.82894979499594967 0.252982212813464002465 74.66125299444270524
0.318485736442795541734 132.65657203459934976 0.318485736442795541734 80.02906934707309006
0.400949786901819038576 151.56486370376393324 0.400949786901819038576 84.04561813363085321
0.504765875584169521062 171.20439921415393769 0.504765875584169521062 86.49164411663208796
0.635462587779443310865 191.19351664821505210 0.635462587779443310865 87.33101911400852657
0.799999999999997157829 211.16564196533840914 0.799999999999997157829 86.72744181577978395
1.007140329435330272645 230.81378636606390842 1.007140329435330272645 85.01272801774068455
1.267914553968893187630 249.92287310675931167 1.267914553968893187630 82.61321803243684769
1.596209851975103788391 268.37991207160473550 1.596209851975103788391 79.95752043174327639
2.009509145207687197399 286.16347644416168805 2.009509145207687197399 77.40537634524037003
2.529822128134711078928 303.32083118795765131 2.529822128134711078928 75.20343577279027159
3.184857364427983839050 319.93694013314296853 3.184857364427983839050 73.47642138692965830
4.009497869018190385759 336.10750988984744936 4.009497869018190385759 72.24635107250664134
5.009497869018190385759 351.40190446158078430 5.009497869018190385759 71.47731638296336598
6.009497869018190385759 363.69274918316000367 6.009497869018190385759 71.10806985830910776
7.009497869018204596614 373.95446422653526497 7.009497869018204596614 70.93907163907242364
8.009497869018190385759 382.74895771686448143 8.009497869018190385759 70.89652349166644285
9.009497869018204596614 390.43738534598912793 9.009497869018204596614 70.90960391749592873
10.009497869018190385759 397.25011746826510262 10.009497869018190385759 70.92738863327953425
11.009497869018190385759 403.36601856119330023 11.009497869018190385759 70.93264686586952905
12.009497869018190385759 408.89752963378089134 12.009497869018190385759 70.98729212716160930
13.009497869018190385759 413.94112539686517493 13.009497869018190385759 71.01173549115173955
14.009497869018204596614 418.57928841661572505 14.009497869018204596614 71.02367816707806014
15.009497869018190385759 422.85758247449746250 15.009497869018190385759 71.06854497268497539
16.009497869018190385759 426.82318222514408035 16.009497869018190385759 71.06881767125801730
17.009497869018190385759 430.52209233907126418 17.009497869018190385759 71.01646693390365783
18.009497869018190385759 433.97749265686445597 18.009497869018190385759 71.03514661448873824
19.009497869018204596614 437.21090955340343953 19.009497869018204596614 71.03248636428961049
20.009497869018190385759 440.25092871367252201 20.009497869018190385759 71.03363402240600522
21.009497869018204596614 443.12837525361481994 21.009497869018204596614 70.99383336643376197
22.009497869018190385759 445.85060683505054158 22.009497869018190385759 70.97551605522407669
23.009497869018190385759 448.42837639863466848 23.009497869018190385759 71.07571427616559845
24.009497869018190385759 450.86947133744610028 24.009497869018190385759 71.08808073769020552
25.009497869018190385759 453.19139061273381230 25.009497869018190385759 71.08618370850963686
26.009497869018204596614 455.41485930314735242 26.009497869018204596614 71.12150733251489498
27.009497869018190385759 457.54222673991733927 27.009497869018190385759 71.09984492165636993
28.009497869018190385759 459.57512800314816559 28.009497869018190385759 71.12512280847549562
29.009497869018190385759 461.51970475233105162 29.009497869018190385759 71.20711490252023168
30.009497869018190385759 463.37870615601411828 30.009497869018190385759 71.21161164687589462
31.009497869018190385759 465.16163270719988532 31.009497869018190385759 71.18556563608656518
32.009497869018190385759 466.87849895161457425 32.009497869018190385759 71.15317573150903740
33.009497869018190385759 468.53407735777784637 33.009497869018190385759 71.12450585914250212
34.009497869018190385759 470.12849521094506144 34.009497869018190385759 71.06846797615455102
35.009497869018190385759 471.66300884826182482 35.009497869018190385759 71.05503609567192314
36.009497869018190385759 473.14162350903023935 36.009497869018190385759 71.05306983504226537
37.009497869018190385759 474.56661535196178647 37.009497869018190385759 71.02650740538918228
38.009497869018190385759 475.93963608101097407 38.009497869018190385759 70.96359703028655019
39.009497869018190385759 477.26631303964074959 39.009497869018190385759 70.86456847572286222
40.009497869018190385759 478.55116318330942704 40.009497869018190385759 70.72675220951366271
41.009497869018190385759 479.79784384655863505 41.009497869018190385759 70.64755337658787937
42.009497869018190385759 481.00528925011064985 42.009497869018190385759 70.49834567408150576
43.009497869018190385759 482.17434878362172412 43.009497869018190385759 70.39867616617289059
44.009497869018218807469 483.30528838972844596 44.009497869018218807469 70.30994970105912500
46.009497869018190385759 485.46246088910868366 46.009497869018190385759 70.06905933946036669
48.009497869018190385759 487.48030231766557563 48.009497869018190385759 69.82287388085356383
50.009497869018190385759 489.38162436862734239 50.009497869018190385759 69.60575526293163762
52.009497869018190385759 491.18534802867208100 52.009497869018190385759 69.45260061224173853
54.009497869018190385759 492.89450844073382996 54.009497869018190385759 69.30739832277846801
56.009497869018190385759 494.51283580696565423 56.009497869018190385759 69.24395796757471544
58.009497869018218807469 496.05164006212413597 58.009497869018218807469 69.18644658402749315
60.009497869018190385759 497.52896483518435389 60.009497869018190385759 69.10518183336783693
62.009497869018190385759 498.94000963955380712 62.009497869018190385759 69.01230543825998609
64.009497869018190385759 500.28946183389183489 64.009497869018190385759 68.93668344436431994
66.009497869018190385759 501.58046105021151106 66.009497869018190385759 68.85332340297973985
68.009497869018190385759 502.81481790268219356 68.009497869018190385759 68.68159683498325307
70.009497869018190385759 503.99250358849434406 70.009497869018190385759 68.54802263334711654
72.009497869018218807469 505.12047988925638720 72.009497869018218807469 68.19106521745266036
74.009497869018190385759 506.20417602846259797 74.009497869018190385759 67.87684026376045665
76.009497869018190385759 507.24761858040056950 76.009497869018190385759 67.61466263064583870
78.009497869018190385759 508.24912742971650914 78.009497869018190385759 67.27061603202015760
80.009497869018190385759 509.20869582055092906 80.009497869018190385759 67.04393156945216958
82.009497869018218807469 510.12726401424583855 82.009497869018218807469 66.83505765390620468
84.009497869018190385759 511.00794586835428390 84.009497869018190385759 66.54187921569970854
86.009497869018190385759 511.84353532331823544 86.009497869018190385759 66.22032300201122723
88.009497869018190385759 512.64282878354015338 88.009497869018190385759 66.01362841288862171
91.009497869018218807469 513.78858727732404077 91.009497869018218807469 65.83257420501719537
94.009497869018190385759 514.88623038018999978 94.009497869018190385759 65.71532452910170718
97.009497869018190385759 515.93949917283259765 97.009497869018190385759 65.71084498725001311
99.504748934509109403734 516.78127045249379989 99.504748934509109403734 64.16075177449739897
nan nan nan nan

