Time Pressure difference Time.1 Pressure.1 difference.1
(hr) (psi) (hr) (psi)
0.000200000000006639311 0.10300167127430014 0.000200000000006639311 0.08225637247267931
0.000399999999999067768 0.20564002591519889 0.000399999999999067768 0.21389617254640700
0.000600000000005707079 0.30797821176007117 0.000600000000005707079 0.31229608844911078
0.000799999999998135536 0.41004542809816880 0.000799999999998135536 0.41208815811167654
0.001007140329434719206 0.51549037821926580 0.001007140329434719206 0.51644668854474074
0.001267914553963578328 0.64787543811486259 0.001267914553963578328 0.64820645459134540
0.001596209851982166583 0.81399656486451344 0.001596209851982166583 0.81311173691339056
0.002009509145210586212 1.02232104529337953 0.002009509145210586212 1.01926948872435652
0.002529822128138903281 1.28337775005426691 0.002529822128138903281 1.27665448006441462
0.003184857364445292660 1.61022677054829089 0.003184857364445292660 1.59748332831786199
0.004009497869020606231 2.01902176926407684 0.004009497869020606231 1.99663360167913928
0.005047658755842121536 2.52967238771593905 0.005047658755842121536 2.49209722860749494
0.006354625877804664924 3.16661504085358514 0.006354625877804664924 3.10544636291307619
0.008000000000009777068 3.95968931614657871 0.008000000000009777068 3.86227104522884357
0.010071403294347192059 4.94510948854483079 0.010071403294347192059 4.79252593566379037
0.012679145539692626699 6.16649934906005281 0.012679145539692626699 5.93067544644660671
0.015962098519750611558 7.67592870431254681 0.015962098519750611558 7.31549644983336123
0.020095091452091651263 9.53485463685780132 0.020095091452091651263 8.98934136667471684
0.025298221281346400247 11.81481473859430054 0.025298221281346400247 10.99657877771094405
0.031848573644282396344 14.59764474144602531 0.031848573644282396344 13.38086815776421190
0.040094978690191851456 17.97490917369187358 0.040094978690191851456 16.18085815992566623
0.050476587558421215363 22.04612801066345895 0.050476587558421215363 19.42423573650106050
0.063546258777947173257 26.91545424607372183 0.063546258777947173257 23.11930821493308130
0.079999999999998294697 32.68600926189954947 0.079999999999998294697 27.24480997561429163
0.100714032943542974863 39.45185071426405443 0.100714032943542974863 31.73926648622680702
0.126791455396897845276 47.28739640602478289 0.126791455396897845276 36.48948380358609000
0.159620985197506115583 56.23408597326602631 0.159620985197506115583 41.32556319202183914
0.200950914520774404082 66.28751568219286128 0.200950914520774404082 46.02219902381894201
0.252982212813464002465 77.38472703575813227 0.252982212813464002465 50.31519223538530383
0.318485736442795541734 89.39899419722999596 0.318485736442795541734 53.93263369041881816
0.400949786901819038576 102.14153858297135002 0.400949786901819038576 56.63943830744687347
0.504765875584169521062 115.37687773127764501 0.504765875584169521062 58.28784712207814778
0.635462587779443310865 128.84780469771013145 0.635462587779443310865 58.85351288117966106
0.799999999999997157829 142.30728045490195655 0.799999999999997157829 58.44675426715593858
1.007140329435330272645 155.54842124669525560 1.007140329435330272645 57.29118627282523590
1.267914553968893187630 168.42628405020735727 1.267914553968893187630 55.67412519577265329
1.596209851975103788391 180.86472335260316413 1.596209851975103788391 53.88441594313133720
2.009509145207687197399 192.84929934280461339 2.009509145207687197399 52.16449275440111677
2.529822128134711078928 204.41186449623236854 2.529822128134711078928 50.68057628166301498
3.184857364427983839050 215.60967704624854946 3.184857364427983839050 49.51671876075693746
4.009497869018190385759 226.50723492576676676 4.009497869018190385759 48.68775833147187626
5.009497869018190385759 236.81432691976098681 5.009497869018190385759 48.16949582330140345
6.009497869018190385759 245.09728749299915762 6.009497869018190385759 47.92065577407787202
7.009497869018204596614 252.01279110918679294 7.009497869018204596614 47.80676566980967834
8.009497869018190385759 257.93951498310428860 8.009497869018190385759 47.77809191829695834
9.009497869018204596614 263.12084664621005459 9.009497869018204596614 47.78690698787769264
10.009497869018190385759 267.71203568513516302 10.009497869018190385759 47.79889233981881347
11.009497869018190385759 271.83362120428239450 11.009497869018190385759 47.80243593134685653
12.009497869018190385759 275.56137866624368371 12.009497869018190385759 47.83926208569586436
13.009497869018190385759 278.96032363701783652 13.009497869018190385759 47.85573478751530274
14.009497869018204596614 282.08604219380623590 14.009497869018204596614 47.86378311259608864
15.009497869018190385759 284.96924036324827512 15.009497869018190385759 47.89401943811379425
16.009497869018190385759 287.64170976042322536 16.009497869018190385759 47.89420321323910201
17.009497869018190385759 290.13445353285237616 17.009497869018190385759 47.85892336850029238
18.009497869018190385759 292.46309287745214078 18.009497869018190385759 47.87151184889458477
19.009497869018204596614 294.64213469903273790 19.009497869018204596614 47.86971907158648065
20.009497869018190385759 296.69084326356193060 20.009497869018190385759 47.87049249336056533
21.009497869018204596614 298.62999201874043820 21.009497869018204596614 47.84367031216187627
22.009497869018190385759 300.46453938883843193 22.009497869018190385759 47.83132603721622900
23.009497869018190385759 302.20173192081898605 23.009497869018190385759 47.89885092524202292
24.009497869018190385759 303.84681764045279806 24.009497869018190385759 47.90718484496514407
25.009497869018190385759 305.41158932597272724 25.009497869018190385759 47.90590641225649193
26.009497869018204596614 306.91001387820801938 26.009497869018204596614 47.92971146321656306
27.009497869018190385759 308.34367454211815129 27.009497869018190385759 47.91511288198580587
28.009497869018190385759 309.71367321951288432 28.009497869018190385759 47.93214797962478713
29.009497869018190385759 311.02414885483182161 29.009497869018190385759 47.98740352126363717
30.009497869018190385759 312.27695414861818790 30.009497869018190385759 47.99043393593810691
31.009497869018190385759 313.47849160702600102 31.009497869018190385759 47.97288118953660074
32.009497869018190385759 314.63551016304461427 32.009497869018190385759 47.95105321036478330
33.009497869018190385759 315.75122604545896365 33.009497869018190385759 47.93173220942212254
34.009497869018190385759 316.82572503346301573 34.009497869018190385759 47.89396754914763221
35.009497869018190385759 317.85985378904598520 35.009497869018190385759 47.88491562969194604
36.009497869018190385759 318.85631149521600491 36.009497869018190385759 47.88359054100673973
37.009497869018190385759 319.81663208501777262 37.009497869018190385759 47.86568977319705454
38.009497869018190385759 320.74192866329002527 38.009497869018190385759 47.82329365084528661
39.009497869018190385759 321.63599357019268155 39.009497869018190385759 47.75655701624801708
40.009497869018190385759 322.50187084092590339 40.009497869018190385759 47.66368083684616863
41.009497869018190385759 323.34202520094169131 41.009497869018190385759 47.61030771030922182
42.009497869018190385759 324.15573840768325908 42.009497869018190385759 47.50975469340275481
43.009497869018190385759 324.94358287591899170 43.009497869018190385759 47.44258611198608122
44.009497869018218807469 325.70573782786050288 44.009497869018218807469 47.38279218984419572
46.009497869018190385759 327.15948451222544691 46.009497869018190385759 47.22045303311458753
48.009497869018190385759 328.51933417060070042 48.009497869018190385759 47.05454544144480167
50.009497869018190385759 329.80065990059671321 50.009497869018190385759 46.90822637284522756
52.009497869018190385759 331.01621280193114671 52.009497869018190385759 46.80501345607595454
54.009497869018190385759 332.16803829701626682 54.009497869018190385759 46.70715973926375142
56.009497869018190385759 333.25865021773773833 56.009497869018190385759 46.66440645640905416
58.009497869018218807469 334.29567047664892243 58.009497869018218807469 46.62564878488809228
60.009497869018190385759 335.29125891066769327 60.009497869018190385759 46.57088340944355309
62.009497869018190385759 336.24218040926450612 62.009497869018190385759 46.50829279534912075
64.009497869018190385759 337.15159384457928127 64.009497869018190385759 46.45733014728899235
66.009497869018190385759 338.02161505557734245 66.009497869018190385759 46.40115272809504887
68.009497869018190385759 338.85346423876410427 68.009497869018190385759 46.28542395401045439
70.009497869018190385759 339.64712198355056216 70.009497869018190385759 46.19540655725565870
72.009497869018218807469 340.40727992536847069 72.009497869018218807469 45.95484829871809751
74.009497869018190385759 341.13759688874654330 74.009497869018190385759 45.74308800383856521
76.009497869018190385759 341.84078643461776892 76.009497869018190385759 45.56640307717437821
78.009497869018190385759 342.51571631133072060 78.009497869018190385759 45.33454558679619595
80.009497869018190385759 343.16238196602347443 80.009497869018190385759 45.18177997071776986
82.009497869018218807469 343.78141705307871234 82.009497869018218807469 45.04101711458896062
84.009497869018190385759 344.37492004171701865 84.009497869018190385759 44.84344034101501819
86.009497869018190385759 344.93803467441011890 86.009497869018190385759 44.62673941439887670
88.009497869018190385759 345.47668896282050355 88.009497869018190385759 44.48744523477276402
91.009497869018218807469 346.24883055645756258 91.009497869018218807469 44.36543044251158818
94.009497869018190385759 346.98854656056272461 94.009497869018190385759 44.28641435656853531
97.009497869018190385759 347.69835813821327974 97.009497869018190385759 44.28339553488587654
99.504748934509109403734 348.26563878320234835 99.504748934509109403734 43.23876750020476578
nan nan nan nan

