Time Pressure difference Time.1 Pressure.1 difference.1
(hr) (psi) (hr) (psi)
0.000200000000006639311 0.33392477300216661 0.000200000000006639311 0.26666985269368609
0.000399999999999067768 0.66667169691862871 0.000399999999999067768 0.69343759164238405
0.000600000000005707079 0.99844549296410168 0.000600000000005707079 1.01244377061727842
0.000799999999998135536 1.32934082335051484 0.000799999999998135536 1.33596322226527375
0.001007140329434719206 1.67118654874310346 0.001007140329434719206 1.67428684512085302
0.001267914553963578328 2.10037037195302201 0.001267914553963578328 2.10144350601387764
0.001596209851982166583 2.63892434738334192 0.001596209851982166583 2.63605579225147579
0.002009509145210586212 3.31429887264466672 0.002009509145210586212 3.30440592312251091
0.002529822128138903281 4.16062786711141452 0.002529822128138903281 4.13883145956366771
0.003184857364445292660 5.22025130451945873 0.003184857364445292660 5.17893788696597213
0.004009497869020606231 6.54553831648515150 0.004009497869020606231 6.47295732157269299
0.005047658755842121536 8.20103467630490002 0.005047658755842121536 8.07921843467913625
0.006354625877804664924 10.26596166470275229 0.006354625877804664924 10.06765675718594011
0.008000000000009777068 12.83705729912036020 0.008000000000009777068 12.52123354985479864
0.010071403294347192059 16.03172592254049889 0.010071403294347192059 15.53705988820035344
0.012679145539692626699 19.99139305098501040 0.012679145539692626699 19.22686717315754734
0.015962098519750611558 24.88486563817454567 0.015962098519750611558 23.71636752284686267
0.020095091452091651263 30.91138358078093873 0.020095091452091651263 29.14286475325190295
0.025298221281346400247 38.30286713641055485 0.025298221281346400247 35.65019894064354133
0.031848573644282396344 47.32462246823630636 0.031848573644282396344 43.37991128565494847
0.040094978690191851456 58.27349586954946403 0.040094978690191851456 52.45729822814611509
0.050476587558421215363 71.47212467973153593 0.050476587558421215363 62.97211908123730240
0.063546258777947173257 87.25816618485191611 0.063546258777947173257 74.95130566454112397
0.079999999999998294697 105.96593325228724325 0.079999999999998294697 88.32591621126569237
0.100714032943542974863 127.90035473495284180 0.100714032943542974863 102.89665425373529217
0.126791455396897845276 153.30268834856420312 0.126791455396897845276 118.29655233098068834
0.159620985197506115583 182.30727871978180588 0.159620985197506115583 133.97480970316755133
0.200950914520774404082 214.89984922775431642 0.200950914520774404082 149.20100006109043989
0.252982212813464002465 250.87629248689330552 0.252982212813464002465 163.11860708568460154
0.318485736442795541734 289.82577151037463636 0.318485736442795541734 174.84611889958358688
0.400949786901819038576 331.13627830931034168 0.400949786901819038576 183.62140483543262803
0.504765875584169521062 374.04439393527110269 0.504765875584169521062 188.96543986351142053
0.635462587779443310865 417.71627006838286889 0.635462587779443310865 190.79929175995340529
0.799999999999997157829 461.35102211992415278 0.799999999999997157829 189.48060657577974553
1.007140329435330272645 504.27794629977000795 1.007140329435330272645 185.73432969093343559
1.267914553968893187630 546.02714667889802058 1.267914553968893187630 180.49192200565008193
1.596209851975103788391 586.35176441731027808 1.596209851975103788391 174.68980007369998475
2.009509145207687197399 625.20498657909229223 2.009509145207687197399 169.11392005862296628
2.529822128134711078928 662.69007683455970437 2.529822128134711078928 164.30315859055266969
3.184857364427983839050 698.99266268219275844 3.184857364427983839050 160.53000759535720476
4.009497869018190385759 734.32184225934065580 4.009497869018190385759 157.84257136493300777
5.009497869018190385759 767.73676953019287339 5.009497869018190385759 156.16239774973519161
6.009497869018190385759 794.58959332407778220 6.009497869018190385759 155.35567436434922683
7.009497869018204596614 817.00920988623465746 7.009497869018204596614 154.98644999406039346
8.009497869018190385759 836.22326631619307591 8.009497869018190385759 154.89349154157562793
9.009497869018204596614 853.02080928851967201 9.009497869018204596614 154.92206942844219952
10.009497869018190385759 867.90514794697060097 10.009497869018190385759 154.96092516618679724
11.009497869018190385759 881.26706229130275005 11.009497869018190385759 154.97241326130188099
12.009497869018190385759 893.35221148249968337 12.009497869018190385759 155.09180127782045133
13.009497869018190385759 904.37137179097715034 13.009497869018190385759 155.14520471436412663
14.009497869018204596614 914.50474969282356597 14.009497869018204596614 155.17129686502926234
15.009497869018190385759 923.85189214536956115 15.009497869018190385759 155.26932108162696977
16.009497869018190385759 932.51586551363004673 16.009497869018190385759 155.26991686872676723
17.009497869018190385759 940.59718000166662932 17.009497869018190385759 155.15554188820254922
18.009497869018190385759 948.14647852206257994 18.009497869018190385759 155.19635292948083816
19.009497869018204596614 955.21079152428353609 19.009497869018204596614 155.19054086111100332
20.009497869018190385759 961.85257251574103066 20.009497869018190385759 155.19304824460442660
21.009497869018204596614 968.13916767365844862 21.009497869018204596614 155.10609246362156455
22.009497869018190385759 974.08665188962129378 22.009497869018190385759 155.06607312065261794
23.009497869018190385759 979.71851800136482780 23.009497869018190385759 155.28498445118785298
24.009497869018190385759 985.05177976985487476 24.009497869018190385759 155.31200248125793451
25.009497869018190385759 990.12466862129883793 25.009497869018190385759 155.30785788489603760
26.009497869018204596614 994.98246434709380992 26.009497869018204596614 155.38503232429886225
27.009497869018190385759 999.63029972525418998 27.009497869018190385759 155.33770466579269964
28.009497869018190385759 1004.07174705035629358 28.009497869018190385759 155.39293135329972984
29.009497869018190385759 1008.32022451324496615 29.009497869018190385759 155.57206625441921233
30.009497869018190385759 1012.38173844955269942 30.009497869018190385759 155.58189066328321815
31.009497869018190385759 1016.27704537116505890 31.009497869018190385759 155.52498579188480221
32.009497869018190385759 1020.02802488341887965 32.009497869018190385759 155.45422089166646629
33.009497869018190385759 1023.64510379253636074 33.009497869018190385759 155.39158345312654319
34.009497869018190385759 1027.12856018912998479 34.009497869018190385759 155.26915286094637736
35.009497869018190385759 1030.48113889674573329 35.009497869018190385759 155.23980712206582666
36.009497869018190385759 1033.71159049255538775 36.009497869018190385759 155.23551127003798911
37.009497869018190385759 1036.82488788852515427 37.009497869018190385759 155.17747813568723814
38.009497869018190385759 1039.82463969873037968 38.009497869018190385759 155.04003264225650582
39.009497869018190385759 1042.72314044530207866 39.009497869018190385759 154.82367677848145604
40.009497869018190385759 1045.53025869396947201 40.009497869018190385759 154.52257819687224583
41.009497869018190385759 1048.25398492563363106 41.009497869018190385759 154.34954596406700489
42.009497869018190385759 1050.89199064426361474 42.009497869018190385759 154.02355957054766122
43.009497869018190385759 1053.44613158160836974 43.009497869018190385759 153.80580336305163769
44.009497869018218807469 1055.91698876451550859 44.009497869018218807469 153.61195532514005890
46.009497869018190385759 1060.62994172511798752 46.009497869018190385759 153.08566225251666992
48.009497869018190385759 1065.03848658533456728 48.009497869018190385759 152.54780054403877898
50.009497869018190385759 1069.19246193580534054 50.009497869018190385759 152.07344356357887705
52.009497869018190385759 1073.13320601916393571 52.009497869018190385759 151.73883394631076271
54.009497869018190385759 1076.86734996290761046 54.009497869018190385759 151.42159850954863032
56.009497869018190385759 1080.40304344782703083 56.009497869018190385759 151.28299512480998601
58.009497869018218807469 1083.76499622268420353 58.009497869018218807469 151.15734525423397372
60.009497869018190385759 1086.99262969426149539 60.009497869018190385759 150.97979944029279409
62.009497869018190385759 1090.07545584293802676 62.009497869018190385759 150.77688470750280203
64.009497869018190385759 1093.02371552839417745 64.009497869018190385759 150.61166709040463729
66.009497869018190385759 1095.84426816404902638 66.009497869018190385759 150.42954352172748145
68.009497869018190385759 1098.54106954825124376 68.009497869018190385759 150.05435830251775542
70.009497869018190385759 1101.11405675312357744 70.009497869018190385759 149.76252770981270146
72.009497869018218807469 1103.57843975804939873 72.009497869018218807469 148.98265335552159172
74.009497869018190385759 1105.94608023609771408 74.009497869018190385759 148.29614014147665557
76.009497869018190385759 1108.22577537674465020 76.009497869018190385759 147.72333900825884712
78.009497869018190385759 1110.41385449318499923 78.009497869018190385759 146.97167198300058999
80.009497869018190385759 1112.51030282533406535 80.009497869018190385759 146.47641571152050233
82.009497869018218807469 1114.51717463981981382 82.009497869018218807469 146.02007161342550035
84.009497869018190385759 1116.44127303846971699 84.009497869018190385759 145.37954046038740330
86.009497869018190385759 1118.26685434768432970 86.009497869018190385759 144.67701003700281603
88.009497869018190385759 1120.01313679882150609 88.009497869018190385759 144.22542729337624223
91.009497869018218807469 1122.51637002980601210 91.009497869018218807469 143.82986320878757169
94.009497869018190385759 1124.91448159150195352 94.009497869018190385759 143.57369815597220963
97.009497869018190385759 1127.21564493194955503 97.009497869018190385759 143.56391133083968725
99.504748934509109403734 1129.05473218425254345 99.504748934509109403734 140.17729463776061039
nan nan nan nan

