Time Pressure difference Time.1 Pressure.1 difference.1
(hr) (psi) (hr) (psi)
0.000200000000006639311 0.19769675615551158 0.000200000000006639311 0.15787916652014253
0.000399999999999067768 0.39469617877272045 0.000399999999999067768 0.41054265375842636
0.000600000000005707079 0.59111947095884632 0.000600000000005707079 0.59940700847490613
0.000799999999998135536 0.78702267651100144 0.000799999999998135536 0.79094340024660503
0.001007140329434719206 0.98940895174342935 0.001007140329434719206 0.99124445059393784
0.001267914553963578328 1.24350285702691354 0.001267914553963578328 1.24413819510274348
0.001596209851982166583 1.56234824546575957 0.001596209851982166583 1.56064994665634638
0.002009509145210586212 1.96219684499858338 0.002009509145210586212 1.95633982513223281
0.002529822128138903281 2.46325729445899677 0.002529822128138903281 2.45035295367202188
0.003184857364445292660 3.09059654347171975 0.003184857364445292660 3.06613735596492853
0.004009497869020606231 3.87521920229717987 0.004009497869020606231 3.83224836451318662
0.005047658755842121536 4.85533893771285108 0.005047658755842121536 4.78321887426277215
0.006354625877804664924 6.07785790099317147 0.006354625877804664924 5.96045350301058185
0.008000000000009777068 7.60004884873294895 0.008000000000009777068 7.41306861906826420
0.010071403294347192059 9.49141982478765911 0.010071403294347192059 9.19855784425792145
0.012679145539692626699 11.83570036351848742 0.012679145539692626699 11.38307061495397221
0.015962098519750611558 14.73283090021279129 0.015962098519750611558 14.04103350855112708
0.020095091452091651263 18.30076938364642558 0.020095091452091651263 17.25373584894018109
0.025298221281346400247 22.67682183697938214 0.025298221281346400247 21.10633668625164816
0.031848573644282396344 28.01806006825930595 0.031848573644282396344 25.68263404474098976
0.040094978690191851456 34.50022889789246960 0.040094978690191851456 31.05680840372829365
0.050476587558421215363 42.31434247207985777 0.050476587558421215363 37.28200084909074263
0.063546258777947173257 51.66030734327053153 0.063546258777947173257 44.37415608995220140
0.079999999999998294697 62.73605003493623400 0.079999999999998294697 52.29245785642098809
0.100714032943542974863 75.72210056447455884 0.100714032943542974863 60.91891470743532722
0.126791455396897845276 90.76129310188628097 0.126791455396897845276 70.03626730043136206
0.159620985197506115583 107.93316501320414602 0.159620985197506115583 79.31841967500965040
0.200950914520774404082 127.22926397066049731 0.200950914520774404082 88.33293038442666045
0.252982212813464002465 148.52875027830998533 0.252982212813464002465 96.57270767759436580
0.318485736442795541734 171.58839208823172839 0.318485736442795541734 103.51586143806193263
0.400949786901819038576 196.04585631247729793 0.400949786901819038576 108.71117997719642290
0.504765875584169521062 221.44916854874259116 0.504765875584169521062 111.87506141173062701
0.635462587779443310865 247.30465740366946648 0.635462587779443310865 112.96077472355450766
0.799999999999997157829 273.13816732473117099 0.799999999999997157829 112.18006060954122916
1.007140329435330272645 298.55261497349573574 1.007140329435330272645 109.96211558816457909
1.267914553968893187630 323.26980325765606494 1.267914553968893187630 106.85840158543462053
1.596209851975103788391 347.14358191870610426 1.596209851975103788391 103.42331447149402379
2.009509145207687197399 370.14623583538303819 2.009509145207687197399 100.12217157699569725
2.529822128134711078928 392.33890121051047117 2.529822128134711078928 97.27400931480481461
3.184857364427983839050 413.83147691134797697 3.184857364427983839050 95.04015375048510350
4.009497869018190385759 434.74775735752007222 4.009497869018190385759 93.44908453943794768
5.009497869018190385759 454.53072424921867878 5.009497869018190385759 92.45435488665914647
6.009497869018190385759 470.42866470430482195 6.009497869018190385759 91.97674253411720713
7.009497869018204596614 483.70197003214883580 7.009497869018204596614 91.75814701140890861
8.009497869018190385759 495.07745617724862086 8.009497869018190385759 91.70311190769899667
9.009497869018204596614 505.02227017579025414 9.009497869018204596614 91.72003115415235186
10.009497869018190385759 513.83439107308208804 10.009497869018190385759 91.74303529739418650
11.009497869018190385759 521.74517618241304717 11.009497869018190385759 91.74983670693993076
12.009497869018190385759 528.90006550456439527 12.009497869018190385759 91.82051916448077122
13.009497869018190385759 535.42384698072783067 13.009497869018190385759 91.85213612442453268
14.009497869018204596614 541.42321001714424256 14.009497869018204596614 91.86758371611185225
15.009497869018190385759 546.95709037462177093 15.009497869018190385759 91.92561795379906187
16.009497869018190385759 552.08650744339297489 16.009497869018190385759 91.92597068347504319
17.009497869018190385759 556.87096726466836571 17.009497869018190385759 91.85825614276669171
18.009497869018190385759 561.34045245833556237 18.009497869018190385759 91.88241790352348914
19.009497869018204596614 565.52280692233705395 19.009497869018204596614 91.87897692772243374
20.009497869018190385759 569.45500561877213386 20.009497869018190385759 91.88046139854689898
21.009497869018204596614 573.17692016500177488 21.009497869018204596614 91.82898011527845483
22.009497869018190385759 576.69806753664147436 22.009497869018190385759 91.80528707143113820
23.009497869018190385759 580.03235642866877697 23.009497869018190385759 91.93489129199679155
24.009497869018190385759 583.18985966474008364 24.009497869018190385759 91.95088704114276368
25.009497869018190385759 586.19321177081872065 25.009497869018190385759 91.94843327513744669
26.009497869018204596614 589.06922018559271237 26.009497869018204596614 91.99412361488339229
27.009497869018190385759 591.82092371793658003 27.009497869018190385759 91.96610375735986054
28.009497869018190385759 594.45043730841996421 28.009497869018190385759 91.99880015444112757
29.009497869018190385759 596.96570506008049506 29.009497869018190385759 92.10485514565115750
30.009497869018190385759 599.37028296267044425 30.009497869018190385759 92.11067158671991706
31.009497869018190385759 601.67645969735633571 31.009497869018190385759 92.07698163798153246
32.009497869018190385759 603.89718886132754960 32.009497869018190385759 92.03508600053886823
33.009497869018190385759 606.03864353886490335 33.009497869018190385759 91.99800214389082953
34.009497869018190385759 608.10098837067903332 34.009497869018190385759 91.92551836046078506
35.009497869018190385759 610.08584840155594975 35.009497869018190385759 91.90814451505389115
36.009497869018190385759 611.99840432146311286 36.009497869018190385759 91.90560119967423702
37.009497869018190385759 613.84160029221152399 37.009497869018190385759 91.87124327436208659
38.009497869018190385759 615.61757275695981662 38.009497869018190385759 91.78987007178368174
39.009497869018190385759 617.33360056214394262 39.009497869018190385759 91.66177878925022071
40.009497869018190385759 618.99552629145455285 40.009497869018190385759 91.48351644491441448
41.009497869018190385759 620.60808062761395831 41.009497869018190385759 91.38107447623866619
42.009497869018190385759 622.16988500829529585 42.009497869018190385759 91.18807755669239157
43.009497869018190385759 623.68203810055410941 43.009497869018190385759 91.05915721494100978
44.009497869018218807469 625.14488389540963453 44.009497869018218807469 90.94439146115256278
46.009497869018190385759 627.93513962830365926 46.009497869018190385759 90.63280501517155585
48.009497869018190385759 630.54517365002391216 48.009497869018190385759 90.31436947632145973
50.009497869018190385759 633.00449238985493139 50.009497869018190385759 90.03353126400938322
52.009497869018190385759 635.33756973273887070 52.009497869018190385759 89.83542905279095692
54.009497869018190385759 637.54833157007965383 54.009497869018190385759 89.64761304794171792
56.009497869018190385759 639.64160283727073875 56.009497869018190385759 89.56555432762381486
58.009497869018218807469 641.63201268905186225 58.009497869018218807469 89.49116460325296885
60.009497869018190385759 643.54290016724928591 60.009497869018190385759 89.38605041489971370
62.009497869018190385759 645.36805594681413822 62.009497869018190385759 89.26591681687975210
64.009497869018190385759 647.11354302427309904 64.009497869018190385759 89.16810141173209558
66.009497869018190385759 648.78342244538237082 66.009497869018190385759 89.06027701037596955
68.009497869018190385759 650.38003620020856488 68.009497869018190385759 88.83815242785877331
70.009497869018190385759 651.90334703294388419 70.009497869018190385759 88.66537710182940657
72.009497869018218807469 653.36235985675557458 72.009497869018218807469 88.20366044431376906
74.009497869018190385759 654.76409725420705854 74.009497869018190385759 87.79721729769015326
76.009497869018190385759 656.11376751160503318 76.009497869018190385759 87.45809622877017375
78.009497869018190385759 657.40919743626386662 78.009497869018190385759 87.01307943272173873
80.009497869018190385759 658.65037828962567801 80.009497869018190385759 86.71986800831314213
82.009497869018218807469 659.83852627929627488 82.009497869018218807469 86.44969413929170798
84.009497869018190385759 660.97766911232781695 84.009497869018190385759 86.07047420291591777
86.009497869018190385759 662.05848590733546644 86.009497869018190385759 85.65454823086236047
88.009497869018190385759 663.09235462218782686 88.009497869018190385759 85.38719327319289221
91.009497869018218807469 664.57436832610403599 91.009497869018218807469 85.15300359127225249
94.009497869018190385759 665.99414581785424616 94.009497869018190385759 85.00134368438155263
97.009497869018190385759 667.35652610399006335 97.009497869018190385759 84.99554949437774098
99.504748934509109403734 668.44533895485608355 99.504748934509109403734 82.99053762136075818
nan nan nan nan

