Time Pressure difference Time.1 Pressure.1 difference.1
(hr) (psi) (hr) (psi)
0.000200000000006639311 0.34804596987041742 0.000200000000006639311 0.27794693601655346
0.000399999999999067768 0.69486428111668019 0.000399999999999067768 0.72276206691084310
0.000600000000005707079 1.04066831231830492 0.000600000000005707079 1.05525855693691462
0.000799999999998135536 1.38555672881558656 0.000799999999998135536 1.39245917942574571
0.001007140329434719206 1.74185861672477693 0.001007140329434719206 1.74509002016327708
0.001267914553963578328 2.18919200459780150 0.001267914553963578328 2.19031051994978787
0.001596209851982166583 2.75052065063089612 0.001596209851982166583 2.74753078844121479
0.002009509145210586212 3.45445579014456516 0.002009509145210586212 3.44414448206052759
0.002529822128138903281 4.33657481671562817 0.002529822128138903281 4.31385667054023969
0.003184857364445292660 5.44100820048172462 0.003184857364445292660 5.39794769810632413
0.004009497869020606231 6.82233968807780755 0.004009497869020606231 6.74668934760934924
0.005047658755842121536 8.54784460042724525 0.005047658755842121536 8.42087692569790569
0.006354625877804664924 10.70009437191654911 0.006354625877804664924 10.49340343597241088
0.008000000000009777068 13.37991793117271300 0.008000000000009777068 13.05073845121681764
0.010071403294347192059 16.70968448145390539 0.010071403294347192059 16.19409973421877780
0.012679145539692626699 20.83680021980775976 0.012679145539692626699 20.03994364565425812
0.015962098519750611558 25.93721070247546123 0.015962098519750611558 24.71929848774337302
0.020095091452091651263 32.21858139389853903 0.020095091452091651263 30.37527445674762916
0.025298221281346400247 39.92264012476622526 0.025298221281346400247 37.15779441823294604
0.031848573644282396344 49.32591247311196980 0.031848573644282396344 45.21438514599358882
0.040094978690191851456 60.73779793368463231 0.040094978690191851456 54.67564168555527715
0.050476587558421215363 74.49457771345151968 0.050476587558421215363 65.63511914188664775
0.063546258777947173257 90.94818813794266532 0.063546258777947173257 78.12088824239485518
0.079999999999998294697 110.44707968335411863 0.079999999999998294697 92.06109177243862973
0.100714032943542974863 133.30907620384385837 0.100714032943542974863 107.24800530426638545
0.126791455396897845276 159.78563785584182710 0.126791455396897845276 123.29914285244007033
0.159620985197506115583 190.01679050643923574 0.159620985197506115583 139.64041110852539873
0.200950914520774404082 223.98765379708720502 0.200950914520774404082 155.51049508854947589
0.252982212813464002465 261.48548893534405124 0.252982212813464002465 170.01665763408419707
0.318485736442795541734 302.08208523096260478 0.318485736442795541734 182.24010900230229026
0.400949786901819038576 345.13955376020157928 0.400949786901819038576 191.38648911951807463
0.504765875584169521062 389.86219168875271635 0.504765875584169521062 196.95651567863504283
0.635462587779443310865 435.38088845435925123 0.635462587779443310865 198.86791852592159557
0.799999999999997157829 480.86089121454779161 0.799999999999997157829 197.49346804788982013
1.007140329435330272645 525.60313308359116036 1.007140329435330272645 193.58876651865946883
1.267914553968893187630 569.11784691158777605 1.267914553968893187630 188.12466497603827520
1.596209851975103788391 611.14773455436079530 1.596209851975103788391 182.07717967880671495
2.009509145207687197399 651.64400342447686398 2.009509145207687197399 176.26550374269410781
2.529822128134711078928 690.71428406388190524 2.529822128134711078928 171.25130211303871874
3.184857364427983839050 728.55205389014633965 3.184857364427983839050 167.31859000610612043
4.009497869018190385759 765.37525349916347750 4.009497869018190385759 164.51750597489285610
5.009497869018190385759 800.20324983370846894 5.009497869018190385759 162.76628024163940722
6.009497869018190385759 828.19164080295672647 6.009497869018190385759 161.92544168821476092
7.009497869018204596614 851.55935060281660753 7.009497869018204596614 161.54060335201819498
8.009497869018190385759 871.58594175742507559 8.009497869018190385759 161.44371382069698484
9.009497869018204596614 889.09382858679032324 9.009497869018204596614 161.47350022516735635
10.009497869018190385759 904.60760445219068515 10.009497869018190385759 161.51399911600069004
11.009497869018190385759 918.53457487576088170 11.009497869018190385759 161.52597302608333507
12.009497869018190385759 931.13078758996846318 12.009497869018190385759 161.65040978956909612
13.009497869018190385759 942.61593228960055058 13.009497869018190385759 161.70607158039445039
14.009497869018204596614 953.17783612261951021 14.009497869018204596614 161.73326713046580494
15.009497869018190385759 962.92025574355670869 15.009497869018190385759 161.83543664975547927
16.009497869018190385759 971.95061604530098975 16.009497869018190385759 161.83605763183211934
17.009497869018190385759 980.37367766342879349 17.009497869018190385759 161.71684589840020863
18.009497869018190385759 988.24222512622930026 18.009497869018190385759 161.75938277973253321
19.009497869018204596614 995.60527773302180776 19.009497869018204596614 161.75332492737686607
20.009497869018190385759 1002.52793005993908082 20.009497869018190385759 161.75593834450063468
21.009497869018204596614 1009.08037625687302352 21.009497869018204596614 161.66530532899861328
22.009497869018190385759 1015.27937099938151277 22.009497869018190385759 161.62359362575483601
23.009497869018190385759 1021.14940060341268691 23.009497869018190385759 161.85176240061619524
24.009497869018190385759 1026.70819831733638239 24.009497869018190385759 161.87992298419672466
25.009497869018190385759 1031.99561231921438775 25.009497869018190385759 161.87560311883441955
26.009497869018204596614 1037.05883721749296456 26.009497869018204596614 161.95604115393336997
27.009497869018190385759 1041.90322284796388885 27.009497869018190385759 161.90671207703269374
28.009497869018190385759 1046.53249257238621794 28.009497869018190385759 161.96427422147408492
29.009497869018190385759 1050.96063201753668181 29.009497869018190385759 162.15098447910855839
30.009497869018190385759 1055.19390151831476032 30.009497869018190385759 162.16122434804890418
31.009497869018190385759 1059.25393534954741881 31.009497869018190385759 162.10191305174060972
32.009497869018190385759 1063.16353837351380207 32.009497869018190385759 162.02815560599069045
33.009497869018190385759 1066.93357833102686527 33.009497869018190385759 161.96286932054732688
34.009497869018190385759 1070.56434507274980206 34.009497869018190385759 161.83526131526500080
35.009497869018190385759 1074.05869949685711617 35.009497869018190385759 161.80467458742683107
36.009497869018190385759 1077.42576222980255807 36.009497869018190385759 161.80019707001471829
37.009497869018190385759 1080.67071648082605861 37.009497869018190385759 161.73970979814168913
38.009497869018190385759 1083.79732346708487967 38.009497869018190385759 161.59645193309819433
39.009497869018190385759 1086.81839762831236840 39.009497869018190385759 161.37094669199933605
40.009497869018190385759 1089.74422485764489466 40.009497869018190385759 161.05711508579472024
41.009497869018190385759 1092.58313354189181155 41.009497869018190385759 160.87676556951262796
42.009497869018190385759 1095.33269671628454489 42.009497869018190385759 160.53699368173994344
43.009497869018190385759 1097.99484858879077365 43.009497869018190385759 160.31002887840458015
44.009497869018218807469 1100.57019475704464639 44.009497869018218807469 160.10798328665094914
46.009497869018190385759 1105.48245169856818393 46.009497869018190385759 159.55943403931462399
48.009497869018190385759 1110.07742756033644582 48.009497869018190385759 158.99882693520461885
50.009497869018190385759 1114.40706853508072527 50.009497869018190385759 158.50441008243669216
52.009497869018190385759 1118.51446100007387940 52.009497869018190385759 158.15565030722441975
54.009497869018190385759 1122.40651650362769942 54.009497869018190385759 157.82499944154446325
56.009497869018190385759 1126.09172936477511939 56.009497869018190385759 157.68053471964026357
58.009497869018218807469 1129.59585427190222617 58.009497869018218807469 157.54957129732349586
60.009497869018190385759 1132.95997970620783235 60.009497869018190385759 157.36451732707135420
62.009497869018190385759 1136.17317412485340355 62.009497869018190385759 157.15302162299420274
64.009497869018190385759 1139.24611145869926077 64.009497869018190385759 156.98081719124266442
66.009497869018190385759 1142.18594119586191482 66.009497869018190385759 156.79099187961148232
68.009497869018190385759 1144.99678641969489945 68.009497869018190385759 156.39994061879338005
70.009497869018190385759 1147.67858154119085157 70.009497869018190385759 156.09576893137196407
72.009497869018218807469 1150.24717974781765406 72.009497869018218807469 155.28291481582971301
74.009497869018190385759 1152.71494432568397315 74.009497869018190385759 154.56736994845451250
76.009497869018190385759 1155.09104448471634896 76.009497869018190385759 153.97034588174241776
78.009497869018190385759 1157.37165431006110339 78.009497869018190385759 153.18689194248068475
80.009497869018190385759 1159.55675841745051002 80.009497869018190385759 152.67069199782858391
82.009497869018218807469 1161.64849794548376849 82.009497869018218807469 152.19504976623207426
84.009497869018190385759 1163.65396368935012106 84.009497869018190385759 151.52743147488141062
86.009497869018190385759 1165.55674619820842963 86.009497869018190385759 150.79519205349296840
88.009497869018190385759 1167.37687641469210575 88.009497869018190385759 150.32451252717572743
91.009497869018218807469 1169.98596776738486369 91.009497869018218807469 149.91222060816417638
94.009497869018190385759 1172.48549200706293050 94.009497869018190385759 149.64522270485659305
97.009497869018190385759 1174.88396822509184858 97.009497869018190385759 149.63502200900956041
99.504748934509109403734 1176.80082782388512896 99.504748934509109403734 146.10519018214350240
nan nan nan nan

