Time Pressure difference Time.1 Pressure.1 difference.1
(hr) (psi) (hr) (psi)
0.000200000000006639311 0.64108175620051910 0.000200000000006639311 0.50625855631416083
0.000399999999999067768 1.16360289460967037 0.000399999999999067768 1.00142310428485004
0.000600000000005707079 1.62836463925421548 0.000600000000005707079 1.34123076458733870
0.000799999999998135536 2.05400805956452004 0.000799999999998135536 1.64661912927541199
0.001007140329434719206 2.46393865624917385 0.001007140329434719206 1.93515983694281979
0.001267914553963578328 2.94517287729187638 0.001267914553963578328 2.26645322956513873
0.001596209851982166583 3.50766535124308332 0.001596209851982166583 2.64309872570361826
0.002009509145224797066 4.16234488126346847 0.002009509145224797066 3.06949233005525057
0.002529822128138903281 4.92118966699444282 0.002529822128138903281 3.55040449778088929
0.003184857364431081805 5.79732416058318556 0.003184857364431081805 4.09108591683123013
0.004009497869020606231 6.80514285342690961 0.004009497869020606231 4.69739437739538879
0.005047658755842121536 7.96046534706328135 0.005047658755842121536 5.37593802436299661
0.006354625877790454069 9.28072581290315668 0.006354625877790454069 6.13422962766877422
0.008000000000009777068 10.78519868756113453 0.008000000000009777068 6.98084718421885331
0.010071403294347192059 12.49526150011742054 0.010071403294347192059 7.92559774644180592
0.012679145539706837553 14.43469517730223473 0.012679145539706837553 8.97968160802499149
0.015962098519750611558 16.63002130077558149 0.015962098519750611558 10.15584923624107283
0.020095091452091651263 19.11087301786918502 0.020095091452091651263 11.46853738620273688
0.025298221281360611101 21.91039263677092563 0.025298221281360611101 12.93398970603765008
0.031848573644296607199 25.06565477740456771 0.031848573644296607199 14.57044079919067237
0.040094978690177640601 28.61814407727160159 0.040094978690177640601 16.39851254838402284
0.050476587558421215363 32.61435426310718100 0.050476587558421215363 18.44182755873387336
0.063546258777961384112 37.10653898883848001 0.063546258777961384112 20.72732621383867624
0.079999999999998294697 42.15344373372385434 0.079999999999998294697 23.28417389805056814
0.100714032943542974863 47.82053538748046861 0.100714032943542974863 26.14024769262574566
0.126791455396897845276 54.17909267461788403 0.126791455396897845276 29.31634932202733168
0.159620985197506115583 61.30374131738838628 0.159620985197506115583 32.82015753868363106
0.200950914520760193227 69.26872359584714900 0.200950914520760193227 36.64287388532044076
0.252982212813478213320 78.14384460445303660 0.252982212813478213320 40.76122708883695367
0.318485736442795541734 87.99160702236200393 0.318485736442795541734 45.14164278338358827
0.400949786901833249431 98.86500342087053639 0.400949786901833249431 49.75373719506038839
0.504765875584155310207 110.81074823167386967 0.504765875584155310207 54.57483099774061941
0.635462587779443310865 123.86900767813085622 0.635462587779443310865 59.59610513768686957
0.799999999999997157829 138.07924989662012649 0.799999999999997157829 64.83150489622514101
1.007140329435344483500 153.48377568125948756 1.007140329435344483500 70.32885485673860160
1.267914553968893187630 170.13820557198647521 1.267914553968893187630 76.10763600656302685
1.596209851975103788391 188.08618005656259697 1.596209851975103788391 82.28165968627698135
2.009509145207672986544 207.42465205874515277 2.009509145207672986544 88.90130084324688653
2.529822128134711078928 228.20652972556291616 2.529822128134711078928 96.08028439736014548
3.184857364427998049905 250.56088382772608725 3.184857364427998049905 103.97620043042446980
4.009497869018190385759 274.58641095388418307 4.009497869018190385759 112.62844112939751540
5.009497869018204596614 299.51727429950727810 5.009497869018204596614 121.76730918598900644
6.009497869018204596614 321.19267954477584226 6.009497869018204596614 129.79006288668566071
7.009497869018204596614 340.45520305910258685 7.009497869018204596614 136.93543444421953836
8.009497869018204596614 357.83362969976116119 8.009497869018204596614 143.33878117552876574
9.009497869018204596614 373.68546097508379944 9.009497869018204596614 149.11925337942216174
10.009497869018190385759 388.26660203177590347 10.009497869018190385759 154.35545825527401576
11.009497869018190385759 401.76834982907604399 11.009497869018190385759 159.07952495228829548
12.009497869018190385759 414.33871714851130719 12.009497869018190385759 163.39479761078499109
13.009497869018190385759 426.09473604651867618 13.009497869018190385759 167.34690644215527300
14.009497869018190385759 437.13232335026464170 14.009497869018190385759 170.96912227663298722
15.009497869018190385759 447.52882790852243033 15.009497869018190385759 174.30119952824432517
16.009497869018204596614 457.34844874073655774 16.009497869018204596614 177.37760359148580847
17.009497869018204596614 466.64750643225590920 17.009497869018204596614 180.23010370218526077
18.009497869018204596614 475.47479949364668528 18.009497869018204596614 182.89268195531818151
19.009497869018204596614 483.87178089908309175 19.009497869018204596614 185.37243003988933765
20.009497869018204596614 491.87593417670535700 20.009497869018204596614 187.68278172203895338
21.009497869018204596614 499.51787141558878602 21.009497869018204596614 189.83454703306634315
22.009497869018190385759 506.82374442746481691 22.009497869018190385759 191.84691260084090914
23.009497869018190385759 513.81754888513910373 23.009497869018190385759 193.72625817682154548
24.009497869018190385759 520.52144572934173539 24.009497869018190385759 195.49388629435441089
25.009497869018190385759 526.95626701073149434 25.009497869018190385759 197.15890113520683258
26.009497869018190385759 533.14033964549366829 26.009497869018190385759 198.73053501168692492
27.009497869018204596614 539.09038513333723586 27.009497869018204596614 200.22068810861688348
28.009497869018190385759 544.82089630906500588 28.009497869018190385759 201.63229064392263012
29.009497869018190385759 550.34486076381369912 29.009497869018190385759 202.95835404581097805
30.009497869018190385759 555.67434005093059568 30.009497869018190385759 204.22782893142974103
31.009497869018190385759 560.82038354011763204 31.009497869018190385759 205.43021773139193442
32.009497869018190385759 565.79316760932704256 32.009497869018190385759 206.57042421571088653
33.009497869018218807469 570.60215559389018836 33.009497869018218807469 207.64521860916272544
34.009497869018190385759 575.25637378813883061 34.009497869018190385759 208.68029026082297150
35.009497869018218807469 579.76388277979322083 35.009497869018218807469 209.66241203928018422
36.009497869018190385759 584.13213629086453693 36.009497869018190385759 210.60869605006232064
37.009497869018218807469 588.36803961212876857 37.009497869018218807469 211.51633111394787079
38.009497869018190385759 592.47816554652297327 38.009497869018190385759 212.38919223494130506
39.009497869018190385759 596.46852946331864587 39.009497869018190385759 213.23120975828993551
40.009497869018190385759 600.34476361558745339 40.009497869018190385759 214.03789396313288762
41.009497869018190385759 604.11227326744915445 41.009497869018190385759 214.82156135364894567
42.009497869018190385759 607.77600988985102504 42.009497869018190385759 215.56310851868187228
43.009497869018190385759 611.34064603594140408 43.009497869018190385759 216.29283618075368167
44.009497869018218807469 614.81068199564731458 44.009497869018218807469 216.96948658814326905
46.009497869018218807469 621.48366526358563533 46.009497869018218807469 218.26155797614643461
48.009497869018218807469 627.82367843511917727 48.009497869018218807469 219.44797975073677776
50.009497869018218807469 633.85357739064613725 50.009497869018218807469 220.47198469962418699
52.009497869018190385759 639.59615314294649124 52.009497869018190385759 221.38089978653209755
54.009497869018190385759 645.07308894945754218 54.009497869018190385759 222.19357515506413847
56.009497869018190385759 650.30156717117677090 56.009497869018190385759 222.91327547624297267
58.009497869018190385759 655.29640328815503381 58.009497869018190385759 223.54391468167810331
60.009497869018190385759 660.07234331163294883 60.009497869018190385759 224.20376258877226405
62.009497869018190385759 664.64178520843609022 62.009497869018190385759 224.83375651331505196
64.009497869018190385759 669.01772338088312608 64.009497869018190385759 225.43373013629116031
66.009497869018218807469 673.21767755838334324 66.009497869018218807469 226.06744160679642164
68.009497869018218807469 677.25681448441366683 68.009497869018218807469 226.70302161878885272
70.009497869018218807469 681.14414646137424825 70.009497869018218807469 227.22745354981253740
72.009497869018218807469 684.88909688122942043 72.009497869018218807469 227.58544883737761211
74.009497869018190385759 688.50040398682392606 74.009497869018190385759 227.90988765178636299
76.009497869018190385759 691.98510697050949148 76.009497869018190385759 228.19266852529375456
78.009497869018190385759 695.35224201777168673 78.009497869018190385759 228.54018741625836242
80.009497869018190385759 698.60740137507525560 80.009497869018190385759 228.71326479567025558
82.009497869018190385759 701.75049533556091319 82.009497869018190385759 228.94731875390922937
84.009497869018190385759 704.78294791502048611 84.009497869018190385759 229.13075285269948722
86.009497869018190385759 707.70726907716618825 86.009497869018190385759 229.08255644434376563
88.009497869018218807469 710.53080232933280058 88.009497869018218807469 229.10589345936330119
91.009497869018190385759 714.58379117780020806 91.009497869018190385759 229.01793308700527518
94.009497869018218807469 718.43235539684701507 94.009497869018218807469 229.09441100440142236
97.009497869018190385759 722.10422958097399260 97.009497869018190385759 229.44508976291939462
99.504748934509109403734 725.04355891874547524 99.504748934509109403734 229.61756940240363178
nan nan nan nan

