Time Pressure difference Time.1 Pressure.1 difference.1
(hr) (psi) (hr) (psi)
0.000200000000006639311 0.64742910032131629 0.000200000000006639311 0.51127101726776647
0.000399999999999067768 1.17512371534837978 0.000399999999999067768 1.01133818452529423
0.000600000000005707079 1.64448706142504930 0.000600000000005707079 1.35451027710800531
0.000799999999998135536 2.07434477302555509 0.000799999999998135536 1.66292228897120831
0.001007140329434719206 2.48833408848926485 0.001007140329434719206 1.95431983532839237
0.001267914553963578328 2.97433300478981577 0.001267914553963578328 2.28889336055093207
0.001596209851982166583 3.54239471115638116 0.001596209851982166583 2.66926802001751540
0.002009509145224797066 4.20355621672152235 0.002009509145224797066 3.09988334322411463
0.002529822128138903281 4.96991431716270426 0.002529822128138903281 3.58555701756089773
0.003184857364431081805 5.85472340969787020 0.003184857364431081805 4.13159171798797420
0.004009497869020606231 6.87252050544103810 0.004009497869020606231 4.74390323261712599
0.005047658755842121536 8.03928183564806709 0.005047658755842121536 5.42916513351510588
0.006354625877790454069 9.37261418728833640 0.006354625877790454069 6.19496457447737647
0.008000000000009777068 10.89198283298253322 0.008000000000009777068 7.04996448307250478
0.010071403294347192059 12.61897696051462248 0.010071403294347192059 8.00406901125806236
0.012679145539706837553 14.57761295133492929 0.012679145539706837553 9.06858934671830674
0.015962098519750611558 16.79467497702088252 0.015962098519750611558 10.25640219897613292
0.020095091452091651263 19.30008958240254202 0.020095091452091651263 11.58208726131365474
0.025298221281360611101 22.12732721733301489 0.025298221281360611101 13.06204901005782659
0.031848573644296607199 25.31382957718085081 0.031848573644296607199 14.71470258928166785
0.040094978690177640601 28.90149203843270698 0.040094978690177640601 16.56087405876406038
0.050476587558421215363 32.93726866175180845 0.050476587558421215363 18.62441991080054393
0.063546258777961384112 37.47393046397549909 0.063546258777961384112 20.93254726546084044
0.079999999999998294697 42.57080456277062552 0.079999999999998294697 23.51471027327879071
0.100714032943542974863 48.29400603488125654 0.100714032943542974863 26.39906202621610021
0.126791455396897845276 54.71551933476261098 0.126791455396897845276 29.60661020640383967
0.159620985197506115583 61.91070905320411555 0.159620985197506115583 33.14510959352208630
0.200950914520760193227 69.95455254234067866 0.200950914520760193227 37.00567461685827197
0.252982212813478213320 78.91754603618028341 0.252982212813478213320 41.16480359466702055
0.318485736442795541734 88.86281105228638921 0.318485736442795541734 45.58858974163491240
0.400949786901833249431 99.84386484087914937 0.400949786901833249431 50.24634845441742215
0.504765875584155310207 111.90788435277954704 0.504765875584155310207 55.11517585910438299
0.635462587779443310865 125.09543349672620138 0.635462587779443310865 60.18616558459466148
0.799999999999997157829 139.44637118272527232 0.799999999999997157829 65.47340098430657918
1.007140329435344483500 155.00341702463828142 1.007140329435344483500 71.02518015234987558
1.267914553968893187630 171.82274226081801771 1.267914553968893187630 76.86117695712306386
1.596209851975103788391 189.94841946306326008 1.596209851975103788391 83.09632958416089821
2.009509145207672986544 209.47836148506937093 2.009509145207672986544 89.78151174268496959
2.529822128134711078928 230.46600031690510946 2.529822128134711078928 97.03157434188847219
3.184857364427998049905 253.04168465770359830 3.184857364427998049905 105.00566776141877767
4.009497869018190385759 277.30508829006129190 4.009497869018190385759 113.74357420988660294
5.009497869018204596614 302.48279186682913178 5.009497869018204596614 122.97292610862255913
6.009497869018204596614 324.37280508482308505 6.009497869018204596614 131.07511301427661010
7.009497869018204596614 343.82604665374719843 7.009497869018204596614 138.29123082485537566
8.009497869018204596614 361.37653692451124243 8.009497869018204596614 144.75797702875183859
9.009497869018204596614 377.38531702434198678 9.009497869018204596614 150.59568163070358082
10.009497869018190385759 392.11082581426882143 10.009497869018190385759 155.88373011918761790
11.009497869018190385759 405.74625428282928397 11.009497869018190385759 160.65456975379609617
12.009497869018190385759 418.44108068463521022 12.009497869018190385759 165.01256788415906840
13.009497869018190385759 430.31349580935545873 13.009497869018190385759 169.00380650593899645
14.009497869018190385759 441.46036615571279071 14.009497869018190385759 172.66188586353035817
15.009497869018190385759 451.95980640266623141 15.009497869018190385759 176.02695397901902652
16.009497869018204596614 461.87665120351607584 16.009497869018204596614 179.13381748843121954
17.009497869018204596614 471.26777877316931153 17.009497869018204596614 182.01456017448410307
18.009497869018204596614 480.18247077576199899 18.009497869018204596614 184.70350058853912856
19.009497869018204596614 488.66259061095524885 19.009497869018204596614 187.20780063434366980
20.009497869018204596614 496.74599293093012875 20.009497869018204596614 189.54102708562351154
21.009497869018204596614 504.46359291475295095 21.009497869018204596614 191.71409700369076745
22.009497869018190385759 511.84180130298426548 22.009497869018190385759 193.74638698302746320
23.009497869018190385759 518.90485134934840517 23.009497869018190385759 195.64433994094852665
24.009497869018190385759 525.67512340983034846 24.009497869018190385759 197.42946932697176976
25.009497869018190385759 532.17365579301599610 25.009497869018190385759 199.11096946327819524
26.009497869018190385759 538.41895686970644874 26.009497869018190385759 200.69816407120859481
27.009497869018204596614 544.42791369901397047 27.009497869018204596614 202.20307115919723628
28.009497869018190385759 550.21516260915461771 28.009497869018190385759 203.62864995722881645
29.009497869018190385759 555.79381978127719321 29.009497869018190385759 204.96784269972991410
30.009497869018190385759 561.17606619004891400 30.009497869018190385759 206.24988664362211921
31.009497869018190385759 566.37306060487128434 31.009497869018190385759 207.46418028318788629
32.009497869018190385759 571.39508015991430057 32.009497869018190385759 208.61567594061887121
33.009497869018218807469 576.25168188689906401 33.009497869018218807469 209.70111186271881820
34.009497869018190385759 580.95198144940741258 34.009497869018190385759 210.74643174855393113
35.009497869018218807469 585.50411924295951849 35.009497869018218807469 211.73827750501564537
36.009497869018190385759 589.91562278879393943 36.009497869018190385759 212.69393066441935503
37.009497869018218807469 594.19346574690234775 37.009497869018218807469 213.61055221408594207
38.009497869018190385759 598.34428599747866429 38.009497869018190385759 214.49205552439619282
39.009497869018190385759 602.37415846790599971 39.009497869018190385759 215.34240985490666276
40.009497869018190385759 606.28877117613785686 40.009497869018190385759 216.15708103207478530
41.009497869018190385759 610.09358290376053446 41.009497869018190385759 216.94850750566524766
42.009497869018190385759 613.79359414618613755 42.009497869018190385759 217.69739672183715129
43.009497869018190385759 617.39352371946563380 43.009497869018190385759 218.43434941026609408
44.009497869018218807469 620.89791647085166915 44.009497869018218807469 219.11769932663975169
46.009497869018218807469 627.63696888005688379 46.009497869018218807469 220.42256350066270443
48.009497869018218807469 634.03975445922935705 48.009497869018218807469 221.62073202549655093
50.009497869018218807469 640.12935538461294982 50.009497869018218807469 222.65487563724423126
52.009497869018190385759 645.92878832257974864 52.009497869018190385759 223.57278988342844173
54.009497869018190385759 651.45995121628379820 54.009497869018190385759 224.39351154273805378
56.009497869018190385759 656.74019654910921417 56.009497869018190385759 225.12033760967113949
58.009497869018190385759 661.78448648902792684 58.009497869018190385759 225.75722076763528889
60.009497869018190385759 666.60771304739159859 60.009497869018190385759 226.42360182232445709
62.009497869018190385759 671.22239694317295289 62.009497869018190385759 227.05983331047659135
64.009497869018190385759 675.64166123613938453 64.009497869018190385759 227.66574726635346337
66.009497869018218807469 679.88319911836731535 66.009497869018218807469 228.30573310785382546
68.009497869018218807469 683.96232749911087012 68.009497869018218807469 228.94760599125208955
70.009497869018218807469 687.88814791148695349 70.009497869018218807469 229.47723031763246127
72.009497869018218807469 691.67017704837030578 72.009497869018218807469 229.83877011299520632
74.009497869018190385759 695.31723966986180585 74.009497869018190385759 230.16642119289318202
76.009497869018190385759 698.83644466328678391 76.009497869018190385759 230.45200187702931771
78.009497869018190385759 702.23691768131391200 78.009497869018190385759 230.80296154909260054
80.009497869018190385759 705.52430633918481817 80.009497869018190385759 230.97775256592444748
82.009497869018190385759 708.69852004185361238 82.009497869018190385759 231.21412389008654031
84.009497869018190385759 711.76099690427804489 84.009497869018190385759 231.39937416807273962
86.009497869018190385759 714.71427174129655668 86.009497869018190385759 231.35070056755509427
88.009497869018218807469 717.56576076823705534 88.009497869018218807469 231.37426864212926603
91.009497869018190385759 721.65887821916453504 91.009497869018190385759 231.28543737499541066
94.009497869018218807469 725.54554703443943708 94.009497869018218807469 231.36267249949452207
97.009497869018190385759 729.25377640850842909 97.009497869018190385759 231.71682332492846967
99.504748934509109403734 732.22220801695084447 99.504748934509109403734 231.89101068361557623
nan nan nan nan

