Time Pressure difference Time.1 Pressure.1 difference.1
(hr) (psi) (hr) (psi)
0.000200000000006639311 0.11425219417434994 0.000200000000006639311 0.09022429716489996
0.000399999999999067768 0.20737477329677292 0.000399999999999067768 0.17847144432799308
0.000600000000005707079 0.29020359907500870 0.000600000000005707079 0.23903122537200092
0.000799999999998135536 0.36606084229862734 0.000799999999998135536 0.29345687452433084
0.001007140329434719206 0.43911778032163501 0.001007140329434719206 0.34487997094030454
0.001267914553963578328 0.52488229496290861 0.001267914553963578328 0.40392235774428215
0.001596209851982166583 0.62512847843936137 0.001596209851982166583 0.47104729765014974
0.002009509145224797066 0.74180403824497454 0.002009509145224797066 0.54703823703954957
0.002529822128138903281 0.87704370302871260 0.002529822128138903281 0.63274535604015836
0.003184857364431081805 1.03318648406433011 0.003184857364431081805 0.72910442082140736
0.004009497869020606231 1.21279773625430076 0.004009497869020606231 0.83715939399125749
0.005047658755842121536 1.41869679452612929 0.005047658755842121536 0.95808796473795987
0.006354625877790454069 1.65399073893323578 0.006354625877790454069 1.09322904255483100
0.008000000000009777068 1.92211461758515267 0.008000000000009777068 1.24411137936573613
0.010071403294347192059 2.22687828714963931 0.010071403294347192059 1.41248276669259920
0.012679145539706837553 2.57251993258851686 0.012679145539706837553 1.60033929647970119
0.015962098519750611558 2.96376617241545004 0.015962098519750611558 1.80995332923108210
0.020095091452091651263 3.40589816160044911 0.020095091452091651263 2.04389775199652712
0.025298221281360611101 3.90482245011759010 0.025298221281360611101 2.30506747236314613
0.031848573644296607199 4.46714639597309038 0.031848573644296607199 2.59671222163794191
0.040094978690177640601 5.10026330089988988 0.040094978690177640601 2.92250718684071664
0.050476587558421215363 5.81245917560325953 0.050476587558421215363 3.28666233720009648
0.063546258777961384112 6.61304655246626449 0.063546258777961384112 3.69397892919897242
0.079999999999998294697 7.51249492284187426 0.079999999999998294697 4.14965475410802132
0.100714032943542974863 8.52247165321434075 0.100714032943542974863 4.65865800462637125
0.126791455396897845276 9.65567988260516685 0.126791455396897845276 5.22469591877714823
0.159620985197506115583 10.92541924468308068 0.159620985197506115583 5.84913698709213303
0.200950914520760193227 12.34492103688364928 0.200950914520760193227 6.53041316768087121
0.252982212813478213320 13.92662577109063804 0.252982212813478213320 7.26437710494123934
0.318485736442795541734 15.68167253863877519 0.318485736442795541734 8.04504524852380776
0.400949786901833249431 17.61950556015514380 0.400949786901833249431 8.86700266842660412
0.504765875584155310207 19.74845017990227447 0.504765875584155310207 9.72620750454783334
0.635462587779443310865 22.07566473471638702 0.635462587779443310865 10.62108804434023313
0.799999999999997157829 24.60818314989269595 0.799999999999997157829 11.55412958546586744
1.007140329435344483500 27.35354418081852046 1.007140329435344483500 12.53385532100291755
1.267914553968893187630 30.32166039896788234 1.267914553968893187630 13.56373711008053995
1.596209851975103788391 33.52030931701115435 1.596209851975103788391 14.66405816191074685
2.009509145207672986544 36.96676967383577050 2.009509145207672986544 15.84379618988558391
2.529822128134711078928 40.67047064415972102 2.529822128134711078928 17.12321900150972809
3.184857364427998049905 44.65441493959475849 3.184857364427998049905 18.53041195789743156
4.009497869018190385759 48.93619205118729099 4.009497869018190385759 20.07239544880351900
5.009497869018204596614 53.37931621179338038 5.009497869018204596614 21.70110460740398040
6.009497869018204596614 57.24225972085113767 6.009497869018204596614 23.13090229663704633
7.009497869018204596614 60.67518470360244009 7.009497869018204596614 24.40433485144506776
8.009497869018204596614 63.77233004550198103 8.009497869018204596614 25.54552535801503055
9.009497869018204596614 66.59740888664859426 9.009497869018204596614 26.57570852306533382
10.009497869018190385759 69.19602808487096013 10.009497869018190385759 27.50889355044487772
11.009497869018190385759 71.60228016755809222 11.009497869018190385759 28.35080642714049048
12.009497869018190385759 73.84254365022974298 12.009497869018190385759 29.11986492073395638
13.009497869018190385759 75.93767573106272550 13.009497869018190385759 29.82420114810688005
14.009497869018190385759 77.90477049806696641 14.009497869018190385759 30.46974456415241406
15.009497869018190385759 79.75761289458816350 15.009497869018190385759 31.06358011394453555
16.009497869018204596614 81.50764433003224951 16.009497869018204596614 31.61185014501726798
17.009497869018204596614 83.16490213644165408 17.009497869018204596614 32.12021650137954509
18.009497869018204596614 84.73808307807564688 18.009497869018204596614 32.59473539797749453
19.009497869018204596614 86.23457481369797506 19.009497869018204596614 33.03667070017829843
20.009497869018204596614 87.66105757604650250 20.009497869018204596614 33.44841654452179824
21.009497869018204596614 89.02298698495640394 21.009497869018204596614 33.83189947123954511
22.009497869018190385759 90.32502375935017369 22.009497869018190385759 34.19053887935778846
23.009497869018190385759 91.57144435576736896 23.009497869018190385759 34.52547175428502868
24.009497869018190385759 92.76619824879357168 24.009497869018190385759 34.84049458711267278
25.009497869018190385759 93.91299808112047742 25.009497869018190385759 35.13722990528438572
26.009497869018190385759 95.01511003583054560 26.009497869018190385759 35.41732307138974534
27.009497869018204596614 96.07551418217893513 27.009497869018204596614 35.68289491044657780
28.009497869018190385759 97.09679340161552830 28.009497869018190385759 35.93446763951096301
29.009497869018190385759 98.08126231434302156 29.009497869018190385759 36.17079577054057182
30.009497869018190385759 99.03107050412626222 30.009497869018190385759 36.39703881946272901
31.009497869018190385759 99.94818716556551408 31.009497869018190385759 36.61132593232726862
32.009497869018190385759 100.83442591057311688 32.009497869018190385759 36.81453104834450585
33.009497869018218807469 101.69147327415865334 33.009497869018218807469 37.00607856400920070
34.009497869018190385759 102.52093790283662145 34.009497869018190385759 37.19054677915657692
35.009497869018218807469 103.32425633699284617 35.009497869018218807469 37.36557838323805214
36.009497869018190385759 104.10275696272833557 36.009497869018190385759 37.53422305842694584
37.009497869018218807469 104.85767042592394205 37.009497869018218807469 37.69597980248575908
38.009497869018190385759 105.59016811720212559 38.009497869018190385759 37.85153921018756051
39.009497869018190385759 106.30132208257165871 39.009497869018190385759 38.00160173910117578
40.009497869018190385759 106.99213608990667979 40.009497869018190385759 38.14536724095437137
41.009497869018190385759 107.66357345360479769 41.009497869018190385759 38.28503073629386932
42.009497869018190385759 108.31651661403286369 42.009497869018190385759 38.41718765679479475
43.009497869018190385759 108.95179830343511185 43.009497869018190385759 38.54723813122343046
44.009497869018218807469 109.57022055367970381 44.009497869018218807469 38.66782929293643178
46.009497869018218807469 110.75946509648061067 46.009497869018218807469 38.89809944129341801
48.009497869018218807469 111.88936843398164456 48.009497869018218807469 39.10954094567586026
50.009497869018218807469 112.96400389140228526 50.009497869018218807469 39.29203687716074711
52.009497869018190385759 113.98743323339641620 52.009497869018190385759 39.45402174413442964
54.009497869018190385759 114.96352080287360309 54.009497869018190385759 39.59885497813024813
56.009497869018190385759 115.89532880278397897 56.009497869018190385759 39.72711840170666875
58.009497869018190385759 116.78549761571080978 58.009497869018190385759 39.83950954722975268
60.009497869018190385759 117.63665524365734427 60.009497869018190385759 39.95710620393960966
62.009497869018190385759 118.45101122526583026 62.009497869018190385759 40.06938234890763795
64.009497869018190385759 119.23088139461283674 64.009497869018190385759 40.17630834112119942
66.009497869018218807469 119.97938807971188169 66.009497869018218807469 40.28924701903302719
68.009497869018218807469 120.69923426454897708 68.009497869018218807469 40.40251870433860404
70.009497869018218807469 121.39202610202708854 70.009497869018218807469 40.49598182075866504
72.009497869018218807469 122.05944300853595053 72.009497869018218807469 40.55978296111679526
74.009497869018190385759 122.70304229468149515 74.009497869018190385759 40.61760373992232331
76.009497869018190385759 123.32407846999178958 76.009497869018190385759 40.66800033124046365
78.009497869018190385759 123.92416194376127692 78.009497869018190385759 40.72993439101634294
80.009497869018190385759 124.50428935397380314 80.009497869018190385759 40.76077986457489999
82.009497869018190385759 125.06444471326828705 82.009497869018190385759 40.80249245119174617
84.009497869018190385759 125.60488180663730873 84.009497869018190385759 40.83518367671871374
86.009497869018190385759 126.12604795434644700 86.009497869018190385759 40.82659421780383724
88.009497869018218807469 126.62925190027712574 88.009497869018218807469 40.83075328978751628
91.009497869018190385759 127.35156674455843984 91.009497869018190385759 40.81507718382271577
94.009497869018218807469 128.03744947666581311 94.009497869018218807469 40.82870691167550348
97.009497869018190385759 128.69184289561914625 97.009497869018190385759 40.89120411616384843
99.504748934509109403734 129.21568376769721453 99.504748934509109403734 40.92194306181451680
nan nan nan nan

