Time Pressure difference Time.1 Pressure.1 difference.1
(hr) (psi) (hr) (psi)
0.000200000000006639311 0.27293579719428041 0.000200000000006639311 0.21553582100503876
0.000399999999999067768 0.49539529176451319 0.000399999999999067768 0.42634845033909458
0.000600000000005707079 0.69326415334585412 0.000600000000005707079 0.57101903838866885
0.000799999999998135536 0.87447867882449870 0.000799999999998135536 0.70103586691923481
0.001007140329434719206 1.04900358632390578 0.001007140329434719206 0.82387993057961639
0.001267914553963578328 1.25388548241139297 0.001267914553963578328 0.96492563238911844
0.001596209851982166583 1.49336247627180763 0.001596209851982166583 1.12527965549757991
0.002009509145224797066 1.77208742469632807 0.002009509145224797066 1.30681356626114620
0.002529822128138903281 2.09515995723525794 0.002529822128138903281 1.51155835054037846
0.003184857364431081805 2.46816771193145534 0.003184857364431081805 1.74174944974002854
0.004009497869020606231 2.89723903660749604 0.004009497869020606231 1.99988077453467072
0.005047658755842121536 3.38910900914575342 0.005047658755842121536 2.28876569354068193
0.006354625877790454069 3.95120009856273002 0.006354625877790454069 2.61160271276987421
0.008000000000009777068 4.59171825312008686 0.008000000000009777068 2.97204385070703658
0.010071403294347192059 5.31976479707969396 0.010071403294347192059 3.37426438709898724
0.012679145539706837553 6.14546428340590190 0.012679145539706837553 3.82303276381261981
0.015962098519750611558 7.08010807854801882 0.015962098519750611558 4.32377739760758573
0.020095091452091651263 8.13631227493440612 0.020095091452091651263 4.88264462976948188
0.025298221281360611101 9.32818696416979876 0.025298221281360611101 5.50655007286751541
0.031848573644296607199 10.67151639038016242 0.031848573644296607199 6.20325697391286024
0.040094978690177640601 12.18396232992751216 0.040094978690177640601 6.98154494634171208
0.050476587558421215363 13.88531914171889881 0.050476587558421215363 7.85147113886689674
0.063546258777961384112 15.79783343089163061 0.063546258777961384112 8.82450521975309954
0.079999999999998294697 17.94651564901114327 0.079999999999998294697 9.91306413481360771
0.100714032943542974863 20.35923783823425737 0.100714032943542974863 11.12901634438521725
0.126791455396897845276 23.06634638622345435 0.126791455396897845276 12.48121802818985593
0.159620985197506115583 26.09961264007624493 0.159620985197506115583 13.97293835805342788
0.200950914520760193227 29.49064469922205234 0.200950914520760193227 15.60043145612652715
0.252982212813478213320 33.26916156427208193 0.252982212813478213320 17.35378975069296104
0.318485736442795541734 37.46177328674818341 0.318485736442795541734 19.21871920480687734
0.400949786901833249431 42.09104106037062110 0.400949786901833249431 21.18228415235244455
0.504765875584155310207 47.17685320754431899 0.504765875584155310207 23.23482903864204729
0.635462587779443310865 52.73631019960026123 0.635462587779443310865 25.37259921703500609
0.799999999999997157829 58.78621530252144112 0.799999999999997157829 27.60153178750179492
1.007140329435344483500 65.34457776528869033 1.007140329435344483500 29.94198771128474590
1.267914553968893187630 72.43507761975661197 1.267914553968893187630 32.40226087408129274
1.596209851975103788391 80.07629447952666624 1.596209851975103788391 35.03080560900900764
2.009509145207672986544 88.30950533194101126 2.009509145207672986544 37.84906867583778478
2.529822128134711078928 97.15723542771489463 2.529822128134711078928 40.90546761471768633
3.184857364427998049905 106.67443568903190965 3.184857364427998049905 44.26709523275497560
4.009497869018190385759 116.90312545561407376 4.009497869018190385759 47.95072246103062241
5.009497869018204596614 127.51725539483972227 5.009497869018204596614 51.84152767324284383
6.009497869018204596614 136.74539822203325912 6.009497869018204596614 55.25715548641072417
7.009497869018204596614 144.94627456971693391 7.009497869018204596614 58.29924436734099658
8.009497869018204596614 152.34501066425474392 8.009497869018204596614 61.02542168859146443
9.009497869018204596614 159.09381011810498308 9.009497869018204596614 63.48641480510051593
10.009497869018190385759 165.30162264719172072 10.009497869018190385759 65.71569014828499178
11.009497869018190385759 171.04989151138877901 11.009497869018190385759 67.72692646483561418
12.009497869018190385759 176.40163205332660823 12.009497869018190385759 69.56412175508667417
13.009497869018190385759 181.40666980198318470 13.009497869018190385759 71.24670274269976744
14.009497869018190385759 186.10584063427108958 14.009497869018190385759 72.78883423658632523
15.009497869018190385759 190.53207524818282081 15.009497869018190385759 74.20744138331194506
16.009497869018204596614 194.71270589952149521 16.009497869018204596614 75.51719756865236377
17.009497869018204596614 198.67171065927726659 17.009497869018204596614 76.73162830885114261
18.009497869018204596614 202.42986513095848977 18.009497869018204596614 77.86520122850180314
19.009497869018204596614 206.00481761050073715 19.009497869018204596614 78.92093556153704981
20.009497869018204596614 209.41252643166663461 20.009497869018204596614 79.90455063413540415
21.009497869018204596614 212.66602446406253080 21.009497869018204596614 80.82064873685003192
22.009497869018190385759 215.77644564733651578 22.009497869018190385759 81.67739843402138433
23.009497869018190385759 218.75400596099981954 23.009497869018190385759 82.47751585745868397
24.009497869018190385759 221.60814026100686647 24.009497869018190385759 83.23007040254692868
25.009497869018190385759 224.34771763823223978 25.009497869018190385759 83.93893810706825320
26.009497869018190385759 226.98054064115075334 26.009497869018190385759 84.60804955943106620
27.009497869018204596614 229.51372832409410307 27.009497869018204596614 85.24247117495569626
28.009497869018190385759 231.95345090385933418 28.009497869018190385759 85.84345047216508817
29.009497869018190385759 234.30523775093055860 29.009497869018190385759 86.40801211851358232
30.009497869018190385759 236.57422398207941683 30.009497869018190385759 86.94848162427206262
31.009497869018190385759 238.76511378440650901 31.009497869018190385759 87.46038972722625715
32.009497869018190385759 240.88223967525803459 32.009497869018190385759 87.94582417104523131
33.009497869018218807469 242.92963059937895309 33.009497869018218807469 88.40340990291086598
34.009497869018190385759 244.91112943455416939 34.009497869018190385759 88.84408397242958699
35.009497869018218807469 246.83016791614957697 35.009497869018218807469 89.26221502662424712
36.009497869018190385759 248.68991941096211917 36.009497869018190385759 89.66508841735326030
37.009497869018218807469 250.49332379526276782 37.009497869018218807469 90.05150730593818764
38.009497869018190385759 252.24317939109394615 38.009497869018190385759 90.42312144655917905
39.009497869018190385759 253.94204719725451014 39.009497869018190385759 90.78160415451947074
40.009497869018190385759 255.59232510366595648 40.009497869018190385759 91.12504396450211175
41.009497869018190385759 257.19631436138922709 41.009497869018190385759 91.45868453670202314
42.009497869018190385759 258.75612302241182761 42.009497869018190385759 91.77439273567644307
43.009497869018190385759 260.27374039153943386 43.009497869018190385759 92.08506886903374777
44.009497869018218807469 261.75108243379042960 44.009497869018218807469 92.37314775534812838
46.009497869018218807469 264.59205550825925002 46.009497869018218807469 92.92323755420095210
48.009497869018218807469 267.29126903673392235 48.009497869018218807469 93.42834781467010430
50.009497869018218807469 269.85845374057214485 50.009497869018218807469 93.86431031766177568
52.009497869018190385759 272.30331272422478150 52.009497869018190385759 94.25127416654335377
54.009497869018190385759 274.63507747353139621 54.009497869018190385759 94.59726466997780392
56.009497869018190385759 276.86106325109506088 56.009497869018190385759 94.90367173741039153
58.009497869018190385759 278.98757763753133077 58.009497869018190385759 95.17216169615997501
60.009497869018190385759 281.02089863762586219 60.009497869018190385759 95.45308704274462741
62.009497869018190385759 282.96630459369055188 62.009497869018190385759 95.72130227794602320
64.009497869018190385759 284.82932777601956786 64.009497869018190385759 95.97673659267842083
66.009497869018218807469 286.61742707931171026 66.009497869018218807469 96.24653454546778164
68.009497869018218807469 288.33705963197809297 68.009497869018218807469 96.51712801591999380
70.009497869018218807469 289.99206235484251692 70.009497869018218807469 96.74040101625682553
72.009497869018218807469 291.58644718705807009 72.009497869018218807469 96.89281485155680684
74.009497869018190385759 293.12393437062803514 74.009497869018190385759 97.03094226759222352
76.009497869018190385759 294.60752078942488197 76.009497869018190385759 97.15133412463001150
78.009497869018190385759 296.04105353231864228 78.009497869018190385759 97.29928771187236691
80.009497869018190385759 297.42691345671516956 80.009497869018190385759 97.37297412092893012
82.009497869018190385759 298.76506237058538318 82.009497869018190385759 97.47262085562472578
84.009497869018190385759 300.05610653807798371 84.009497869018190385759 97.55071656105026534
86.009497869018190385759 301.30111455760538774 86.009497869018190385759 97.53019729808694649
88.009497869018218807469 302.50321287288426220 88.009497869018218807469 97.54013285893685747
91.009497869018190385759 304.22874277866742432 91.009497869018190385759 97.50268438357649359
94.009497869018218807469 305.86724041647937611 94.009497869018218807469 97.53524428900257703
97.009497869018190385759 307.43051358397906370 97.009497869018190385759 97.68454316639140700
99.504748934509109403734 308.68191122283224104 99.504748934509109403734 97.75797509211244574
nan nan nan nan

