Time Pressure difference Time.1 Pressure.1 difference.1
(hr) (psi) (hr) (psi)
0.000200000000006639311 0.31736720603986096 0.000200000000006639311 0.25062304768027766
0.000399999999999067768 0.57604103693548037 0.000399999999999067768 0.49575401202220298
0.000600000000005707079 0.80612110854169083 0.000600000000005707079 0.66397562603333593
0.000799999999998135536 1.01683567305174272 0.000799999999998135536 0.81515798478980794
0.001007140329434719206 1.21977161200454165 0.001007140329434719206 0.95799991927862371
0.001267914553963578328 1.45800637489696872 0.001267914553963578328 1.12200654928967269
0.001596209851982166583 1.73646799566489274 0.001596209851982166583 1.30846471569486056
0.002009509145224797066 2.06056677290270729 0.002009509145224797066 1.51955065844319326
0.002529822128138903281 2.43623250841309069 0.002529822128138903281 1.75762598900043998
0.003184857364431081805 2.86996245573425002 0.003184857364431081805 2.02529005783724259
0.004009497869020606231 3.36888260070639101 0.004009497869020606231 2.32544276108682624
0.005047658755842121536 3.94082442923924869 0.005047658755842121536 2.66135545760544368
0.006354625877790454069 4.59441871925898759 0.006354625877790454069 3.03674734043008643
0.008000000000009777068 5.33920727106986881 0.008000000000009777068 3.45586494268260092
0.010071403294347192059 6.18577301986010930 0.010071403294347192059 3.92356324081277608
0.012679145539706837553 7.14588870163476919 0.012679145539706837553 4.44538693466583723
0.015962098519750611558 8.23268381226513846 0.015962098519750611558 5.02764813675300637
0.020095091452091651263 9.46082822666791579 0.020095091452091651263 5.67749375554590952
0.025298221281360611101 10.84672902810441819 0.025298221281360611101 6.40296520100873856
0.031848573644296607199 12.40873998881414231 0.031848573644296607199 7.21308950454983755
0.040094978690177640601 14.16739805805524810 0.040094978690177640601 8.11807551900199087
0.050476587558421215363 16.14571993223127677 0.050476587558421215363 9.12961760333360139
0.063546258777961384112 18.36957375685073401 0.063546258777961384112 10.26105258110825602
0.079999999999998294697 20.86804145233854157 0.079999999999998294697 11.52681876141117101
0.100714032943542974863 23.67353237003983324 0.100714032943542974863 12.94071667951769555
0.126791455396897845276 26.82133300723657499 0.126791455396897845276 14.51304421882541362
0.159620985197506115583 30.34838679078632850 0.159620985197506115583 16.24760274192258791
0.200950914520760193227 34.29144732467680967 0.200950914520760193227 18.14003657689131188
0.252982212813478213320 38.68507158636288068 0.252982212813478213320 20.17882529150343984
0.318485736442795541734 43.56020149621881643 0.318485736442795541734 22.34734791256613207
0.400949786901833249431 48.94307100043096170 0.400949786901833249431 24.63056296785167731
0.504765875584155310207 54.85680605528409615 0.504765875584155310207 27.01724306818842436
0.635462587779443310865 61.32129092976774132 0.635462587779443310865 29.50302234538954238
0.799999999999997157829 68.35606430525749033 0.799999999999997157829 32.09480440407185142
1.007140329435344483500 75.98206716894034685 1.007140329435344483500 34.81626478056366381
1.267914553968893187630 84.22683444157745214 1.267914553968893187630 37.67704752800149492
1.596209851975103788391 93.11197032503099535 1.596209851975103788391 40.73349489419651803
2.009509145207672986544 102.68547131621048152 2.009509145207672986544 44.01054497190439463
2.529822128134711078928 112.97352956711036143 2.529822128134711078928 47.56449722641591649
3.184857364427998049905 124.04004149887431652 3.184857364427998049905 51.47336654971508096
4.009497869018190385759 135.93386680885356554 4.009497869018190385759 55.75665402445421392
5.009497869018204596614 148.27587836609271221 5.009497869018204596614 60.28084613167772687
6.009497869018204596614 159.00627700236427131 6.009497869018204596614 64.25250637954734145
7.009497869018204596614 168.54217973222898763 7.009497869018204596614 67.78981903179185053
8.009497869018204596614 177.14536123750551155 8.009497869018204596614 70.95979266115286066
9.009497869018204596614 184.99280246291277763 9.009497869018204596614 73.82141256407038554
10.009497869018190385759 192.21118912464154960 10.009497869018190385759 76.41359319568020680
11.009497869018190385759 198.89522268766140201 11.009497869018190385759 78.75224007539024740
12.009497869018190385759 205.11817680619373050 12.009497869018190385759 80.88851366870544268
13.009497869018190385759 210.93798814184091839 13.009497869018190385759 82.84500318918578898
14.009497869018190385759 216.40214027240824635 14.009497869018190385759 84.63817934486782235
15.009497869018190385759 221.54892470718931463 15.009497869018190385759 86.28772253873481191
16.009497869018204596614 226.41012313897849140 16.009497869018204596614 87.81069484727019869
17.009497869018204596614 231.01361704567125344 17.009497869018204596614 89.22282361494319503
18.009497869018204596614 235.38356410576568578 18.009497869018204596614 90.54093166104860302
19.009497869018204596614 239.54048559360546733 19.009497869018204596614 91.76852972271748854
20.009497869018204596614 243.50293771124026421 20.009497869018204596614 92.91226817922721182
21.009497869018204596614 247.28607495821225370 21.009497869018204596614 93.97749853122095942
22.009497869018190385759 250.90284377597268417 22.009497869018190385759 94.97371910932719175
23.009497869018190385759 254.36512321046492957 23.009497869018190385759 95.90408820634731057
24.009497869018190385759 257.68388402442661800 24.009497869018190385759 96.77915163086852601
25.009497869018190385759 260.86943911422355313 25.009497869018190385759 97.60341640356773496
26.009497869018190385759 263.93086121064038707 26.009497869018190385759 98.38145297608264173
27.009497869018204596614 266.87642828383036431 27.009497869018204596614 99.11915252901825113
28.009497869018190385759 269.71331500448758334 28.009497869018190385759 99.81796566530823611
29.009497869018190385759 272.44795087317510252 29.009497869018190385759 100.47443269594603521
30.009497869018190385759 275.08630695590625237 30.009497869018190385759 101.10288560961868143
31.009497869018190385759 277.63385323768198987 31.009497869018190385759 101.69812758979797707
32.009497869018190385759 280.09562752936977859 32.009497869018190385759 102.26258624540142250
33.009497869018218807469 282.47631465044065635 33.009497869018218807469 102.79466267780334476
34.009497869018190385759 284.78038306343506747 34.009497869018190385759 103.30707438654603436
35.009497869018218807469 287.01182315831346159 35.009497869018218807469 103.79327328677237574
36.009497869018190385759 289.17432489646762406 36.009497869018190385759 104.26173071785262891
37.009497869018218807469 291.27130673867759469 37.009497869018218807469 104.71105500690488554
38.009497869018190385759 293.30602254778364113 38.009497869018190385759 105.14316447274322286
39.009497869018190385759 295.28145022936570285 39.009497869018190385759 105.56000483083660413
40.009497869018190385759 297.20037802751852496 40.009497869018190385759 105.95935344709546655
41.009497869018190385759 299.06548181556888721 41.009497869018190385759 106.34730760081630763
42.009497869018190385759 300.87921281675789942 42.009497869018190385759 106.71441015776331085
43.009497869018190385759 302.64388417620864402 43.009497869018190385759 107.07566147562063463
44.009497869018218807469 304.36172376022142316 44.009497869018218807469 107.41063692482340741
46.009497869018218807469 307.66518082355730712 46.009497869018218807469 108.05027622581505398
48.009497869018218807469 310.80380120550455558 48.009497869018218807469 108.63761373798850229
50.009497869018218807469 313.78889969833971918 50.009497869018218807469 109.14454688100207136
52.009497869018190385759 316.63175898165673061 52.009497869018190385759 109.59450484481787669
54.009497869018190385759 319.34311334131558624 54.009497869018190385759 109.99681938369511158
56.009497869018190385759 321.93146889662216381 56.009497869018190385759 110.35310667140741714
58.009497869018190385759 324.40416004364112723 58.009497869018190385759 110.66530429786044465
60.009497869018190385759 326.76848678793703584 60.009497869018190385759 110.99196167761003551
62.009497869018190385759 329.03058673684950008 62.009497869018190385759 111.30383985807675629
64.009497869018190385759 331.19689276281343382 64.009497869018190385759 111.60085650311444283
66.009497869018218807469 333.27607799919962872 66.009497869018218807469 111.91457505286950891
68.009497869018218807469 335.27565073485828862 68.009497869018218807469 112.22921862316279373
70.009497869018218807469 337.20007250563082835 70.009497869018218807469 112.48883839099629256
72.009497869018218807469 339.05400835704426754 72.009497869018218807469 112.66606378087999474
74.009497869018190385759 340.84178415189307998 74.009497869018190385759 112.82667705533980040
76.009497869018190385759 342.56688463886609952 76.009497869018190385759 112.96666758677908149
78.009497869018190385759 344.23378317711467389 78.009497869018190385759 113.13870664171206215
80.009497869018190385759 345.84524820548278967 80.009497869018190385759 113.22438851270804605
82.009497869018190385759 347.40123531463410700 82.009497869018190385759 113.34025680886595921
84.009497869018190385759 348.90244946288140682 84.009497869018190385759 113.43106576866310320
86.009497869018190385759 350.35013320651790991 86.009497869018190385759 113.40720616056621850
88.009497869018218807469 351.74792194521427291 88.009497869018218807469 113.41875913829866818
91.009497869018190385759 353.75435206821794054 91.009497869018190385759 113.37521439950755564
94.009497869018218807469 355.65958187962723969 94.009497869018218807469 113.41307475465417554
97.009497869018190385759 357.47734137671983490 97.009497869018190385759 113.58667810045513136
99.504748934509109403734 358.93245491027005301 99.504748934509109403734 113.67206406059587209
nan nan nan nan

