Time Pressure difference Time.1 Pressure.1 difference.1
(hr) (psi) (hr) (psi)
0.000200000000006639311 0.34910392664384704 0.000200000000006639311 0.27568535244830544
0.000399999999999067768 0.63364514062902844 0.000399999999999067768 0.54532941322442330
0.000600000000005707079 0.88673321939585992 0.000600000000005707079 0.73037318863666956
0.000799999999998135536 1.11851924035691686 0.000799999999998135536 0.89667378326878866
0.001007140329434719206 1.34174877320499575 0.001007140329434719206 1.05379991120648597
0.001267914553963578328 1.60380701238666545 0.001267914553963578328 1.23420720421863983
0.001596209851982166583 1.91011479523138195 0.001596209851982166583 1.43931118726434670
0.002009509145224797066 2.26662345019297762 0.002009509145224797066 1.67150572428751265
0.002529822128138903281 2.67985575925439923 0.002529822128138903281 1.93338858790048396
0.003184857364431081805 3.15695870130767542 0.003184857364431081805 2.22781906362096693
0.004009497869020606231 3.70577086077702988 0.004009497869020606231 2.55798703719550913
0.005047658755842121536 4.33490687216317294 0.005047658755842121536 2.92749100336598822
0.006354625877790454069 5.05386059118488706 0.006354625877790454069 3.34042207447309503
0.008000000000009777068 5.87312799817685605 0.008000000000009777068 3.80145143695086007
0.010071403294347192059 6.80435032184611988 0.010071403294347192059 4.31591956489405337
0.012679145539706837553 7.86047757179824647 0.012679145539706837553 4.88992562813241971
0.015962098519750611558 9.05595219349165248 0.015962098519750611558 5.53041295042830683
0.020095091452091651263 10.40691104933470612 0.020095091452091651263 6.24524313110049967
0.025298221281360611101 11.93140193091486090 0.025298221281360611101 7.04326172110961224
0.031848573644296607199 13.64961398769555423 0.031848573644296607199 7.93439845500482210
0.040094978690177640601 15.58413786386077504 0.040094978690177640601 8.92988307090219102
0.050476587558421215363 17.76029192545440338 0.050476587558421215363 10.04257936366695958
0.063546258777961384112 20.20653113253580813 0.063546258777961384112 11.28715783921908056
0.079999999999998294697 22.95484559757239396 0.079999999999998294697 12.67950063755228918
0.100714032943542974863 26.04088560704381550 0.100714032943542974863 14.23478834746946475
0.126791455396897845276 29.50346630796023106 0.126791455396897845276 15.96434864070795356
0.159620985197506115583 33.38322546986496775 0.159620985197506115583 17.87236301611484990
0.200950914520760193227 37.72059205714448638 0.200950914520760193227 19.95404023458043952
0.252982212813478213320 42.55357874499917159 0.252982212813478213320 22.19670782065378845
0.318485736442795541734 47.91622164584070021 0.318485736442795541734 24.58208270382274563
0.400949786901833249431 53.83737810047405503 0.400949786901833249431 27.09361926463684611
0.504765875584155310207 60.34248666081249723 0.504765875584155310207 29.71896737500727070
0.635462587779443310865 67.45342002274452398 0.635462587779443310865 32.45332457992849839
0.799999999999997157829 75.19167073578323368 0.799999999999997157829 35.30428484447904225
1.007140329435344483500 83.58027388583437300 1.007140329435344483500 38.29789125862002663
1.267914553968893187630 92.64951788573520730 1.267914553968893187630 41.44475228080165152
1.596209851975103788391 102.42316735753409773 1.596209851975103788391 44.80684438361617339
2.009509145207672986544 112.95401844783152967 2.009509145207672986544 48.41159946909483835
2.529822128134711078928 124.27088252382139899 2.529822128134711078928 52.32094694905750742
3.184857364427998049905 136.44404564876174391 3.184857364427998049905 56.62070320468659190
4.009497869018190385759 149.52725348973893915 4.009497869018190385759 61.33231942689963034
5.009497869018204596614 163.10346620270198059 5.009497869018204596614 66.30893074484549743
6.009497869018204596614 174.90690470260068423 6.009497869018204596614 70.67775701750208839
7.009497869018204596614 185.39639770545190345 7.009497869018204596614 74.56880093497103701
8.009497869018204596614 194.85989736125605987 8.009497869018204596614 78.05577192726815383
9.009497869018204596614 203.49208270920405539 9.009497869018204596614 81.20355382047740989
10.009497869018190385759 211.43230803710571308 10.009497869018190385759 84.05495251524824596
11.009497869018190385759 218.78474495642751663 11.009497869018190385759 86.62746408292926503
12.009497869018190385759 225.62999448681310355 12.009497869018190385759 88.97736503557597132
13.009497869018190385759 232.03178695602500170 13.009497869018190385759 91.12950350810434941
14.009497869018190385759 238.04235429964907667 14.009497869018190385759 93.10199727935460601
15.009497869018190385759 243.70381717790823473 15.009497869018190385759 94.91649479260830446
16.009497869018204596614 249.05113545287630927 16.009497869018204596614 96.59176433199722567
17.009497869018204596614 254.11497875023837878 17.009497869018204596614 98.14510597643750600
18.009497869018204596614 258.92192051634225436 18.009497869018204596614 99.59502482715346616
19.009497869018204596614 263.49453415296602543 19.009497869018204596614 100.94538269498923455
20.009497869018204596614 267.85323148236426505 20.009497869018204596614 102.20349499714993158
21.009497869018204596614 272.01468245403350465 21.009497869018204596614 103.37524838434305252
22.009497869018190385759 275.99312815356995543 22.009497869018190385759 104.47109102025990524
23.009497869018190385759 279.80163553151140832 23.009497869018190385759 105.49449702698203168
24.009497869018190385759 283.45227242686928548 24.009497869018190385759 106.45706679395537719
25.009497869018190385759 286.95638302564594824 25.009497869018190385759 107.36375804392451982
26.009497869018190385759 290.32394733170440304 26.009497869018190385759 108.21959827369090590
27.009497869018204596614 293.56407111221341211 27.009497869018204596614 109.03106778192008619
28.009497869018190385759 296.68464650493632462 28.009497869018190385759 109.79976223183905404
29.009497869018190385759 299.69274596049262982 29.009497869018190385759 110.52187596554063020
30.009497869018190385759 302.59493765149687761 30.009497869018190385759 111.21317417058055810
31.009497869018190385759 305.39723856145019454 31.009497869018190385759 111.86794034877776483
32.009497869018190385759 308.10519028230675076 32.009497869018190385759 112.48884486994155907
33.009497869018218807469 310.72394611548475041 33.009497869018218807469 113.07412894558366645
34.009497869018190385759 313.25842136977854580 34.009497869018190385759 113.63778182520063353
35.009497869018218807469 315.71300547414477933 35.009497869018218807469 114.17260061544961047
36.009497869018190385759 318.09175738611435236 36.009497869018190385759 114.68790378963788612
37.009497869018218807469 320.39843741254537690 37.009497869018218807469 115.18216050759536984
38.009497869018190385759 322.63662480256203935 38.009497869018190385759 115.65748092001754799
39.009497869018190385759 324.80959525230230156 39.009497869018190385759 116.11600531392025459
40.009497869018190385759 326.92041583027037177 40.009497869018190385759 116.55528879180501178
41.009497869018190385759 328.97202999712578730 41.009497869018190385759 116.98203836089793128
42.009497869018190385759 330.96713409843374620 42.009497869018190385759 117.38585117353964904
43.009497869018190385759 332.90827259382950842 43.009497869018190385759 117.78322762318269668
44.009497869018218807469 334.79789613624353706 44.009497869018218807469 118.15170061730574957
46.009497869018218807469 338.43169890591298099 46.009497869018218807469 118.85530384839655937
48.009497869018218807469 341.88418132605505662 48.009497869018218807469 119.50137511178735394
50.009497869018218807469 345.16778966817366836 50.009497869018218807469 120.05900156910227849
52.009497869018190385759 348.29493487982239230 52.009497869018190385759 120.55395532929965441
54.009497869018190385759 351.27742467544715055 54.009497869018190385759 120.99650132206463127
56.009497869018190385759 354.12461578628438019 56.009497869018190385759 121.38841733854815175
58.009497869018190385759 356.84457604800525132 58.009497869018190385759 121.73183472764648627
60.009497869018190385759 359.44533546673079627 60.009497869018190385759 122.09115784537104332
62.009497869018190385759 361.93364541053443872 62.009497869018190385759 122.43422384388443902
64.009497869018190385759 364.31658203909478289 64.009497869018190385759 122.76094215342590132
66.009497869018218807469 366.60368579911965981 66.009497869018218807469 123.10603255815647117
68.009497869018218807469 368.80321580834407769 68.009497869018218807469 123.45214048547907737
70.009497869018218807469 370.92007975619395665 70.009497869018218807469 123.73772223009592608
72.009497869018218807469 372.95940919274869430 72.009497869018218807469 123.93267015896799421
74.009497869018190385759 374.92596256708236524 74.009497869018190385759 124.10934476087376765
76.009497869018190385759 376.82357310275273221 76.009497869018190385759 124.26333434545696832
78.009497869018190385759 378.65716149482614128 78.009497869018190385759 124.45257730588326694
80.009497869018190385759 380.42977302603105727 80.009497869018190385759 124.54682736397886345
82.009497869018190385759 382.14135884609748928 82.009497869018190385759 124.67428248975255656
84.009497869018190385759 383.79269440916954181 84.009497869018190385759 124.77417234552940783
86.009497869018190385759 385.38514652716969522 86.009497869018190385759 124.74792677662284746
88.009497869018218807469 386.92271413973566041 88.009497869018218807469 124.76063505212853499
91.009497869018190385759 389.12978727503974596 91.009497869018190385759 124.71273583945830410
94.009497869018218807469 391.22554006758991818 94.009497869018218807469 124.75438223011960304
97.009497869018190385759 393.22507551439184681 97.009497869018190385759 124.94534591050064876
99.504748934509109403734 394.82570040129701283 99.504748934509109403734 125.03927046665545220
nan nan nan nan

