Time Pressure difference Time.1 Pressure.1 difference.1
(hr) (psi) (hr) (psi)
0.000200000000006639311 0.39988267961022472 0.000200000000006639311 0.31578504007714980
0.000399999999999067768 0.72581170653870530 0.000399999999999067768 0.62465005514797578
0.000600000000005707079 1.01571259676253045 0.000600000000005707079 0.83660928880200336
0.000799999999998135536 1.28121294804519570 0.000799999999998135536 1.02709906083515801
0.001007140329434719206 1.53691223112572239 0.001007140329434719206 1.20707989829106599
0.001267914553963578328 1.83708803237018037 0.001267914553963578328 1.41372825210498743
0.001596209851982166583 2.18794967453776446 0.001596209851982166583 1.64866554177552427
0.002009509145224797066 2.59631413385741094 0.002009509145224797066 1.91463382963842355
0.002529822128138903281 3.06965296060049386 0.002529822128138903281 2.21460874614055481
0.003184857364431081805 3.61615269422515517 0.003184857364431081805 2.55186547287492571
0.004009497869020606231 4.24479207689005289 0.004009497869020606231 2.93005787896940095
0.005047658755842121536 4.96543878084145263 0.005047658755842121536 3.35330787658285923
0.006354625877790454069 5.78896758626632479 0.006354625877790454069 3.82630164894190905
0.008000000000009777068 6.72740116154803403 0.008000000000009777068 4.35438982778007677
0.010071403294347192059 7.79407400502373804 0.010071403294347192059 4.94368968342409687
0.012679145539706837553 9.00381976405981099 0.012679145539706837553 5.60118753767895416
0.015962098519750611558 10.37318160345407492 0.015962098519750611558 6.33483665230878756
0.020095091452091651263 11.92064356560157279 0.020095091452091651263 7.15364213198784515
0.025298221281360611101 13.66687857541156603 0.025298221281360611101 8.06773615327101012
0.031848573644296607199 15.63501238590582076 0.031848573644296607199 9.08849277573279579
0.040094978690177640601 17.85092155314961104 0.040094978690177640601 10.22877515394250736
0.050476587558421215363 20.34360711461140880 0.050476587558421215363 11.50331818020033658
0.063546258777961384112 23.14566293363192528 0.063546258777961384112 12.92892625219640301
0.079999999999998294697 26.29373222994655990 0.079999999999998294697 14.52379163937807682
0.100714032943542974863 29.82865078625018995 0.100714032943542974863 16.30530301619229760
0.126791455396897845276 33.79487958911808221 0.126791455396897845276 18.28643571572002102
0.159620985197506115583 38.23896735639078059 0.159620985197506115583 20.47197945482246695
0.200950914520760193227 43.20722362909277336 0.200950914520760193227 22.85644608688305368
0.252982212813478213320 48.74319019881723847 0.252982212813478213320 25.42531986729433768
0.318485736442795541734 54.88585388523571140 0.318485736442795541734 28.15765836983333159
0.400949786901833249431 61.66826946054301573 0.400949786901833249431 31.03450933949311263
0.504765875584155310207 69.11957562965795887 0.504765875584155310207 34.04172626591741846
0.635462587779443310865 77.26482657150737055 0.635462587779443310865 37.17380815519081949
0.799999999999997157829 86.12864102462442872 0.799999999999997157829 40.43945354913054047
1.007140329435344483500 95.73740463286482338 1.007140329435344483500 43.86849362351021142
1.267914553968893187630 106.12581139638758998 1.267914553968893187630 47.47307988528189071
1.596209851975103788391 117.32108260953906154 1.596209851975103788391 51.32420356668762196
2.009509145207672986544 129.38369385842520387 2.009509145207672986544 55.45328666459953837
2.529822128134711078928 142.34664725455903067 2.529822128134711078928 59.93126650528405008
3.184857364427998049905 156.29045228858163341 3.184857364427998049905 64.85644185264099804
4.009497869018190385759 171.27667217915549713 4.009497869018190385759 70.25338407081230230
5.009497869018204596614 186.82760674127683842 5.009497869018204596614 75.95386612591393316
6.009497869018204596614 200.34790902297896764 6.009497869018204596614 80.95815803822965506
7.009497869018204596614 212.36314646260854033 7.009497869018204596614 85.41517198005773537
8.009497869018204596614 223.20315515925693717 8.009497869018204596614 89.40933875305262291
9.009497869018204596614 233.09093110327006571 9.009497869018204596614 93.01497983072867726
10.009497869018190385759 242.18609829704837466 10.009497869018190385759 96.28112742655706313
11.009497869018190385759 250.60798058645337960 11.009497869018190385759 99.22782249499171314
12.009497869018190385759 258.44890277580412885 12.009497869018190385759 101.91952722256883135
13.009497869018190385759 265.78186505871957479 13.009497869018190385759 104.38470401837408019
14.009497869018190385759 272.66669674323441086 14.009497869018190385759 106.64410597453345986
15.009497869018190385759 279.15164513105850119 15.009497869018190385759 108.72253039880587266
16.009497869018204596614 285.27675515511288040 16.009497869018204596614 110.64147550756044325
17.009497869018204596614 291.07715747754576796 17.009497869018204596614 112.42075775482841493
18.009497869018204596614 296.58329077326476408 18.009497869018204596614 114.08157389292124151
19.009497869018204596614 301.82101184794288429 19.009497869018204596614 115.62834745062403385
20.009497869018204596614 306.81370151616272324 20.009497869018204596614 117.06945790582629741
21.009497869018204596614 311.58045444734744933 21.009497869018204596614 118.41164814933841853
22.009497869018190385759 316.13758315772560081 22.009497869018190385759 119.66688607775225250
23.009497869018190385759 320.50005524518576294 23.009497869018190385759 120.83915113999761104
24.009497869018190385759 324.68169387077750798 24.009497869018190385759 121.94173105489433340
25.009497869018190385759 328.69549328392167808 25.009497869018190385759 122.98030466849536424
26.009497869018190385759 332.55288512540687407 26.009497869018190385759 123.96063074986412289
27.009497869018204596614 336.26429963762626585 27.009497869018204596614 124.89013218656300808
28.009497869018190385759 339.83877690565435614 28.009497869018190385759 125.77063673828837409
29.009497869018190385759 343.28441810020063940 29.009497869018190385759 126.59778519689199072
30.009497869018190385759 346.60874676444188935 30.009497869018190385759 127.38963586811954087
31.009497869018190385759 349.81865507947929927 31.009497869018190385759 128.13964076314545082
32.009497869018190385759 352.92049068700595171 32.009497869018190385759 128.85085866920579178
33.009497869018218807469 355.92015645955530090 33.009497869018218807469 129.52127497403219536
34.009497869018190385759 358.82328265992816796 34.009497869018190385759 130.16691372704801211
35.009497869018218807469 361.63489717947493318 35.009497869018218807469 130.77952434133320025
36.009497869018190385759 364.35964936954917448 36.009497869018190385759 131.36978070449430334
37.009497869018218807469 367.00184649073378296 37.009497869018218807469 131.93592930870016744
38.009497869018190385759 369.56558841020739692 38.009497869018190385759 132.48038723565647956
39.009497869018190385759 372.05462728900079128 39.009497869018190385759 133.00560608685412944
40.009497869018190385759 374.47247631467337214 40.009497869018190385759 133.50878534334029268
41.009497869018190385759 376.82250708761682745 41.009497869018190385759 133.99760757702853198
42.009497869018190385759 379.10780814911498737 42.009497869018190385759 134.46015679878178162
43.009497869018190385759 381.33129406202289147 43.009497869018190385759 134.91533345928198173
44.009497869018218807469 383.49577193787899887 44.009497869018218807469 135.33740252527749703
46.009497869018218807469 387.65812783768211602 46.009497869018218807469 136.14334804452695948
48.009497869018218807469 391.61278951893575595 48.009497869018218807469 136.88339330986551090
50.009497869018218807469 395.37401361990799842 50.009497869018218807469 137.52212907006261844
52.009497869018190385759 398.95601631688748512 52.009497869018190385759 138.08907610447050729
54.009497869018190385759 402.37232281005759660 54.009497869018190385759 138.59599242345586845
56.009497869018190385759 405.63365080974392640 56.009497869018190385759 139.04491440597334417
58.009497869018190385759 408.74924165498782713 58.009497869018190385759 139.43828341530414150
60.009497869018190385759 411.72829335280067653 60.009497869018190385759 139.84987171378864446
62.009497869018190385759 414.57853928843036329 62.009497869018190385759 140.24283822117672571
64.009497869018190385759 417.30808488114490729 64.009497869018190385759 140.61707919392421218
66.009497869018218807469 419.92785827899155038 66.009497869018218807469 141.01236456661558805
68.009497869018218807469 422.44731992592141978 68.009497869018218807469 141.40881546518511414
70.009497869018218807469 424.87209135709485963 70.009497869018218807469 141.73593637265534539
72.009497869018218807469 427.20805052987577710 72.009497869018218807469 141.95924036390880474
74.009497869018190385759 429.46064803138523303 74.009497869018190385759 142.16161308972812094
76.009497869018190385759 431.63427464497124220 76.009497869018190385759 142.33800115934164410
78.009497869018190385759 433.73456680316451184 78.009497869018190385759 142.55477036855720030
80.009497869018190385759 435.76501273890829680 80.009497869018190385759 142.66272952601215707
82.009497869018190385759 437.72555649643896913 82.009497869018190385759 142.80872357917110094
84.009497869018190385759 439.61708632323058055 84.009497869018190385759 142.92314286851549809
86.009497869018190385759 441.44116784021258582 86.009497869018190385759 142.89307976231344810
88.009497869018218807469 443.20238165096998273 88.009497869018218807469 142.90763651425632474
91.009497869018190385759 445.73048360595458917 91.009497869018190385759 142.85277014337953005
94.009497869018218807469 448.13107316833026061 94.009497869018218807469 142.90047419086425862
97.009497869018190385759 450.42145013466699766 97.009497869018190385759 143.11921440657349081
99.504748934509109403734 452.25489318694025087 99.504748934509109403734 143.22680071635079457
nan nan nan nan

