Time Pressure difference Time.1 Pressure.1 difference.1
(hr) (psi) (hr) (psi)
0.000200000000006639311 0.54587159438856081 0.000200000000006639311 0.43107164201007753
0.000399999999999067768 0.99079058352902638 0.000399999999999067768 0.85269690067818915
0.000600000000005707079 1.38652830669170823 0.000600000000005707079 1.14203807677733771
0.000799999999998135536 1.74895735764899740 0.000799999999998135536 1.40207173383846961
0.001007140329434719206 2.09800717264781156 0.001007140329434719206 1.64775986115923279
0.001267914553963578328 2.50777096482278594 0.001267914553963578328 1.92985126477823687
0.001596209851982166583 2.98672495254361525 0.001596209851982166583 2.25055931099515982
0.002009509145224797066 3.54417484939265615 0.002009509145224797066 2.61362713252229240
0.002529822128138903281 4.19031991447051588 0.002529822128138903281 3.02311670108075692
0.003184857364431081805 4.93633542386291069 0.003184857364431081805 3.48349889948005709
0.004009497869020606231 5.79447807321499209 0.004009497869020606231 3.99976154906934145
0.005047658755842121536 6.77821801829150683 0.005047658755842121536 4.57753138708136387
0.006354625877790454069 7.90240019712546005 0.006354625877790454069 5.22320542553974843
0.008000000000009777068 9.18343650624017371 0.008000000000009777068 5.94408770141407317
0.010071403294347192059 10.63952959415938793 0.010071403294347192059 6.74852877419797448
0.012679145539706837553 12.29092856681180379 0.012679145539706837553 7.64606552762523961
0.015962098519750611558 14.16021615709603765 0.015962098519750611558 8.64755479521517145
0.020095091452091651263 16.27262454986881224 0.020095091452091651263 9.76528925953896376
0.025298221281360611101 18.65637392833959751 0.025298221281360611101 11.01310014573503082
0.031848573644296607199 21.34303278076032484 0.031848573644296607199 12.40651394782572048
0.040094978690177640601 24.36792465985502432 0.040094978690177640601 13.96308989268342415
0.050476587558421215363 27.77063828343779761 0.050476587558421215363 15.70294227773379347
0.063546258777961384112 31.59566686178326123 0.063546258777961384112 17.64901043950619908
0.079999999999998294697 35.89303129802228653 0.079999999999998294697 19.82612826962721542
0.100714032943542974863 40.71847567646851473 0.100714032943542974863 22.25803268877043450
0.126791455396897845276 46.13269277244690869 0.126791455396897845276 24.96243605637971186
0.159620985197506115583 52.19922528015248986 0.159620985197506115583 27.94587671610685575
0.200950914520760193227 58.98128939844410468 0.200950914520760193227 31.20086291225305430
0.252982212813478213320 66.53832312854416386 0.252982212813478213320 34.70757950138592207
0.318485736442795541734 74.92354657349636682 0.318485736442795541734 38.43743840961375469
0.400949786901833249431 84.18208212074124219 0.400949786901833249431 42.36456830470488910
0.504765875584155310207 94.35370641508863798 0.504765875584155310207 46.46965807728409459
0.635462587779443310865 105.47262039920052246 0.635462587779443310865 50.74519843407001218
0.799999999999997157829 117.57243060504288223 0.799999999999997157829 55.20306357500358985
1.007140329435344483500 130.68915553057738066 1.007140329435344483500 59.88397542256949180
1.267914553968893187630 144.87015523951322393 1.267914553968893187630 64.80452174816258548
1.596209851975103788391 160.15258895905333247 1.596209851975103788391 70.06161121801801528
2.009509145207672986544 176.61901066388202253 2.009509145207672986544 75.69813735167556956
2.529822128134711078928 194.31447085542978925 2.529822128134711078928 81.81093522943537266
3.184857364427998049905 213.34887137806381929 3.184857364427998049905 88.53419046550995120
4.009497869018190385759 233.80625091122814752 4.009497869018190385759 95.90144492206124482
5.009497869018204596614 255.03451078967944454 5.009497869018204596614 103.68305534648568766
6.009497869018204596614 273.49079644406651823 6.009497869018204596614 110.51431097282144833
7.009497869018204596614 289.89254913943386782 7.009497869018204596614 116.59848873468199315
8.009497869018204596614 304.69002132850948783 8.009497869018204596614 122.05084337718292886
9.009497869018204596614 318.18762023620996615 9.009497869018204596614 126.97282961020103187
10.009497869018190385759 330.60324529438344143 10.009497869018190385759 131.43138029656998356
11.009497869018190385759 342.09978302277755802 11.009497869018190385759 135.45385292967122837
12.009497869018190385759 352.80326410665321646 12.009497869018190385759 139.12824351017334834
13.009497869018190385759 362.81333960396636940 13.009497869018190385759 142.49340548539953488
14.009497869018190385759 372.21168126854217917 14.009497869018190385759 145.57766847317265047
15.009497869018190385759 381.06415049636564163 15.009497869018190385759 148.41488276662389012
16.009497869018204596614 389.42541179904299042 16.009497869018204596614 151.03439513730472754
17.009497869018204596614 397.34342131855453317 17.009497869018204596614 153.46325661770228521
18.009497869018204596614 404.85973026191697954 18.009497869018204596614 155.73040245700360629
19.009497869018204596614 412.00963522100147429 19.009497869018204596614 157.84187112307409961
20.009497869018204596614 418.82505286333326922 20.009497869018204596614 159.80910126827080830
21.009497869018204596614 425.33204892812506159 21.009497869018204596614 161.64129747370006385
22.009497869018190385759 431.55289129467303155 22.009497869018190385759 163.35479686804276866
23.009497869018190385759 437.50801192199963907 23.009497869018190385759 164.95503171491736794
24.009497869018190385759 443.21628052201373293 24.009497869018190385759 166.46014080509385735
25.009497869018190385759 448.69543527646447956 25.009497869018190385759 167.87787621413650641
26.009497869018190385759 453.96108128230150669 26.009497869018190385759 169.21609911886213240
27.009497869018204596614 459.02745664818820615 27.009497869018204596614 170.48494234991139251
28.009497869018190385759 463.90690180771866835 28.009497869018190385759 171.68690094433017634
29.009497869018190385759 468.61047550186111721 29.009497869018190385759 172.81602423702716465
30.009497869018190385759 473.14844796415883366 30.009497869018190385759 173.89696324854412524
31.009497869018190385759 477.53022756881301802 31.009497869018190385759 174.92077945445251430
32.009497869018190385759 481.76447935051606919 32.009497869018190385759 175.89164834209046262
33.009497869018218807469 485.85926119875790619 33.009497869018218807469 176.80681980582173196
34.009497869018190385759 489.82225886910833879 34.009497869018190385759 177.68816794485917399
35.009497869018218807469 493.66033583229915394 35.009497869018218807469 178.52443005324849423
36.009497869018190385759 497.37983882192423835 36.009497869018190385759 179.33017683470652059
37.009497869018218807469 500.98664759052553563 37.009497869018218807469 180.10301461187637528
38.009497869018190385759 504.48635878218789230 38.009497869018190385759 180.84624289311835810
39.009497869018190385759 507.88409439450902028 39.009497869018190385759 181.56320830903894148
40.009497869018190385759 511.18465020733191295 40.009497869018190385759 182.25008792900422350
41.009497869018190385759 514.39262872277845418 41.009497869018190385759 182.91736907340404628
42.009497869018190385759 517.51224604482365521 42.009497869018190385759 183.54878547135288613
43.009497869018190385759 520.54748078307886772 43.009497869018190385759 184.17013773806749555
44.009497869018218807469 523.50216486758085921 44.009497869018218807469 184.74629551069625677
46.009497869018218807469 529.18411101651850004 46.009497869018218807469 185.84647510840190421
48.009497869018218807469 534.58253807346784470 48.009497869018218807469 186.85669562934020860
50.009497869018218807469 539.71690748114428970 50.009497869018218807469 187.72862063532355137
52.009497869018190385759 544.60662544844956301 52.009497869018190385759 188.50254833308670754
54.009497869018190385759 549.27015494706279242 54.009497869018190385759 189.19452933995560784
56.009497869018190385759 553.72212650219012176 56.009497869018190385759 189.80734347482078306
58.009497869018190385759 557.97515527506266153 58.009497869018190385759 190.34432339231995002
60.009497869018190385759 562.04179727525172439 60.009497869018190385759 190.90617408548925482
62.009497869018190385759 565.93260918738110377 62.009497869018190385759 191.44260455589204639
64.009497869018190385759 569.65865555203913573 64.009497869018190385759 191.95347318535684167
66.009497869018218807469 573.23485415862342052 66.009497869018218807469 192.49306909093556328
68.009497869018218807469 576.67411926395618593 68.009497869018218807469 193.03425603183998760
70.009497869018218807469 579.98412470968503385 70.009497869018218807469 193.48080203251365106
72.009497869018218807469 583.17289437411614017 72.009497869018218807469 193.78562970311361369
74.009497869018190385759 586.24786874125607028 74.009497869018190385759 194.06188453518444703
76.009497869018190385759 589.21504157884976394 76.009497869018190385759 194.30266824926002300
78.009497869018190385759 592.08210706463728457 78.009497869018190385759 194.59857542374473383
80.009497869018190385759 594.85382691343033912 80.009497869018190385759 194.74594824185786024
82.009497869018190385759 597.53012474117076636 82.009497869018190385759 194.94524171124945155
84.009497869018190385759 600.11221307615596743 84.009497869018190385759 195.10143312210053068
86.009497869018190385759 602.60222911521077549 86.009497869018190385759 195.06039459617389298
88.009497869018218807469 605.00642574576852439 88.009497869018218807469 195.08026571787371495
91.009497869018190385759 608.45748555733484864 91.009497869018190385759 195.00536876715298717
94.009497869018218807469 611.73448083295875222 94.009497869018218807469 195.07048857800515407
97.009497869018190385759 614.86102716795812739 97.009497869018190385759 195.36908633278281400
99.504748934509109403734 617.36382244566448207 99.504748934509109403734 195.51595018422489147
nan nan nan nan

