Time Pressure difference Time.1 Pressure.1 difference.1
(hr) (psi) (hr) (psi)
0.000200000000006639311 0.60934503559653297 0.000200000000006639311 0.48119625154613310
0.000399999999999067768 1.10599879091612241 0.000399999999999067768 0.95184770308262967
0.000600000000005707079 1.54775252840004640 0.000600000000005707079 1.27483320198400518
0.000799999999998135536 1.95232449225934568 0.000799999999998135536 1.56510333079643105
0.001007140329434719206 2.34196149504871975 0.001007140329434719206 1.83935984501495753
0.001267914553963578328 2.79937223980217986 0.001267914553963578328 2.15425257463617159
0.001596209851982166583 3.33401855167659411 0.001596209851982166583 2.51225225413413211
0.002009509145224797066 3.95628820397319769 0.002009509145224797066 2.91753726421093118
0.002529822128138903281 4.67756641615313384 0.002529822128138903281 3.37464189888084487
0.003184857364431081805 5.51032791500976060 0.003184857364431081805 3.88855691104750578
0.004009497869020606231 6.46825459335627073 0.004009497869020606231 4.46485010128670634
0.005047658755842121536 7.56638290413935621 0.005047658755842121536 5.10980247860245207
0.006354625877790454069 8.82128394097725810 0.006354625877790454069 5.83055489362576562
0.008000000000009777068 10.25127796045414819 0.008000000000009777068 6.63526068995059326
0.010071403294347192059 11.87668419813140908 0.010071403294347192059 7.53324142236052907
0.012679145539706837553 13.72010630713875834 0.012679145539706837553 8.53514291455840635
0.015962098519750611558 15.80675291954906569 0.015962098519750611558 9.65308442256577237
0.020095091452091651263 18.16479019520239646 0.020095091452091651263 10.90078801064814584
0.025298221281360611101 20.82571973396048293 0.025298221281360611101 12.29369318593677818
0.031848573644296607199 23.82478077852315224 0.031848573644296607199 13.84913184873568781
0.040094978690177640601 27.20140427146607465 0.040094978690177640601 15.58670499648382268
0.050476587558421215363 30.99978226988405439 0.050476587558421215363 17.52886579840051340
0.063546258777961384112 35.26958161315341300 0.063546258777961384112 19.70122095572784815
0.079999999999998294697 40.06663958848999130 0.079999999999998294697 22.13149202190944820
0.100714032943542974863 45.45318215047647925 0.100714032943542974863 24.84617602467397646
0.126791455396897845276 51.49695937389422085 0.126791455396897845276 27.86504490014479174
0.159620985197506115583 58.26890263830975414 0.159620985197506115583 31.19539726449137618
0.200950914520760193227 65.83957886337947230 0.200950914520760193227 34.82887022763131313
0.252982212813478213320 74.27533744581674569 0.252982212813478213320 38.74334455968661217
0.318485736442795541734 83.63558687274013437 0.318485736442795541734 42.90690799212698181
0.400949786901833249431 93.97069632082744306 0.400949786901833249431 47.29068089827521959
0.504765875584155310207 105.32506762614545437 0.504765875584155310207 51.87310669092177307
0.635462587779443310865 117.73687858515407356 0.635462587779443310865 56.64580290314791711
0.799999999999997157829 131.24364346609439735 0.799999999999997157829 61.62202445581796439
1.007140329435344483500 145.88556896436546140 1.007140329435344483500 66.84722837868223166
1.267914553968893187630 161.71552212782870583 1.267914553968893187630 72.33993125376288447
1.596209851975103788391 178.77498302405950881 1.596209851975103788391 78.20831019685732599
2.009509145207672986544 197.15610492712409041 2.009509145207672986544 84.50024634605644280
2.529822128134711078928 216.90917676885186438 2.529822128134711078928 91.32383467471855454
3.184857364427998049905 238.15687967783870249 3.184857364427998049905 98.82886377545295886
4.009497869018190385759 260.99302427299886631 4.009497869018190385759 107.05277572695207766
5.009497869018204596614 284.68968646289795288 5.009497869018204596614 115.73922457282124299
6.009497869018204596614 305.29205184453940092 6.009497869018204596614 123.36481224873091378
7.009497869018204596614 323.60098508587969945 7.009497869018204596614 130.15645254104035189
8.009497869018204596614 340.11909357601058446 8.009497869018204596614 136.24280190941351520
9.009497869018204596614 355.18618072879252168 9.009497869018204596614 141.73711212301512319
10.009497869018190385759 369.04548311931176841 10.009497869018190385759 146.71409893570600502
11.009497869018190385759 381.87882756030990095 11.009497869018190385759 151.20430094474926364
12.009497869018190385759 393.82689946789196256 12.009497869018190385759 155.30594624391443404
13.009497869018190385759 405.00093723233453602 13.009497869018190385759 159.06240612323668415
14.009497869018190385759 415.49210932302383981 14.009497869018190385759 162.50530434214621778
15.009497869018190385759 425.37393543780348182 15.009497869018190385759 165.67242727437084682
16.009497869018204596614 434.70743642683868302 16.009497869018204596614 168.59653410675878149
17.009497869018204596614 443.54614472768878386 17.009497869018204596614 171.30782134069093559
18.009497869018204596614 451.93644308307011670 18.009497869018204596614 173.83858878921330415
19.009497869018204596614 459.91773233972253365 19.009497869018204596614 176.19557706761756322
20.009497869018204596614 467.52564040558132774 20.009497869018204596614 178.39155490411624783
21.009497869018204596614 474.78926391976756349 21.009497869018204596614 180.43679717994425005
22.009497869018190385759 481.73346004986757407 22.009497869018190385759 182.34954068990819565
23.009497869018190385759 488.38103656409259656 23.009497869018190385759 184.13584935618683858
24.009497869018190385759 494.75305732689912475 24.009497869018190385759 185.81597113126755971
25.009497869018190385759 500.86932309930926976 25.009497869018190385759 187.39855949485007613
26.009497869018190385759 506.74725352442959547 26.009497869018190385759 188.89238971407866075
27.009497869018204596614 512.40274230495435859 27.009497869018204596614 190.30877285571503421
28.009497869018190385759 517.84956480861615091 28.009497869018190385759 191.65049407739181220
29.009497869018190385759 523.10006567649622866 29.009497869018190385759 192.91091077621635463
30.009497869018190385759 528.16570935534002729 30.009497869018190385759 194.11754037046787857
31.009497869018190385759 533.05699821634937052 31.009497869018190385759 195.26040497241211824
32.009497869018190385759 537.78360485639007038 32.009497869018190385759 196.34416559117073575
33.009497869018218807469 542.35452412884615114 33.009497869018218807469 197.36575234138240376
34.009497869018190385759 546.77833548179535228 34.009497869018190385759 198.34958282216837233
35.009497869018218807469 551.06270046396184625 35.009497869018218807469 199.28308471060293527
36.009497869018190385759 555.21470380121786548 36.009497869018190385759 200.18252297827703501
37.009497869018218807469 559.24090893826098636 37.009497869018218807469 201.04522561325737229
38.009497869018190385759 563.14756329174463190 38.009497869018190385759 201.87487578766700835
39.009497869018190385759 566.94038444038210400 39.009497869018190385759 202.67520927520627083
40.009497869018190385759 570.62472581283554973 40.009497869018190385759 203.44195861842331396
41.009497869018190385759 574.20572508589225436 41.009497869018190385759 204.18683059356732201
42.009497869018190385759 577.68808860817523509 42.009497869018190385759 204.89166750290553409
43.009497869018190385759 581.07625761832059652 43.009497869018190385759 205.58527003319161963
44.009497869018218807469 584.37450961962508700 44.009497869018218807469 206.22842289566094109
46.009497869018218807469 590.71714718122996146 46.009497869018218807469 207.45653035356491500
48.009497869018218807469 596.74329831456884676 48.009497869018218807469 208.58421837693794032
50.009497869018218807469 602.47468742081218807 50.009497869018218807469 209.55753001152396564
52.009497869018190385759 607.93297724478088639 52.009497869018190385759 210.42144930205031983
54.009497869018190385759 613.13877761532592103 54.009497869018190385759 211.19389321669461879
56.009497869018190385759 618.10842028151455452 56.009497869018190385759 211.87796480910222385
58.009497869018190385759 622.85598728379102340 58.009497869018190385759 212.47738425189203326
60.009497869018190385759 627.39549463283924524 60.009497869018190385759 213.10456642101127045
62.009497869018190385759 631.73872653475098105 62.009497869018190385759 213.70337252750738344
64.009497869018190385759 635.89803410460183386 64.009497869018190385759 214.27364448597973023
66.009497869018218807469 639.89006975846336900 66.009497869018218807469 214.87598410150948780
68.009497869018218807469 643.72924941092787776 68.009497869018218807469 215.48009975647255487
70.009497869018218807469 647.42413921081117678 70.009497869018218807469 215.97856971071288967
72.009497869018218807469 650.98369604552499368 72.009497869018218807469 216.31884245928958421
74.009497869018190385759 654.41622557163464080 74.009497869018190385759 216.62721994625240995
76.009497869018190385759 657.72841850662280194 76.009497869018190385759 216.89600176661585351
78.009497869018190385759 660.92886370006021934 78.009497869018190385759 217.22631675208714341
80.009497869018190385759 664.02287655452687432 80.009497869018190385759 217.39082594439946661
82.009497869018190385759 667.01037180409741723 82.009497869018190385759 217.61329307302264624
84.009497869018190385759 669.89270296873223742 84.009497869018190385759 217.78764627583316837
86.009497869018190385759 672.67225575651434610 86.009497869018190385759 217.74183582828715089
88.009497869018218807469 675.35601013481129939 88.009497869018218807469 217.76401754553344858
91.009497869018190385759 679.20835597097845948 91.009497869018190385759 217.68041164705448409
94.009497869018218807469 682.86639720888433658 94.009497869018218807469 217.75310352893600907
97.009497869018190385759 686.35649544330215122 97.009497869018190385759 218.08642195287384880
99.504748934509109403734 689.15031342771851541 99.504748934509109403734 218.25036299634405168
nan nan nan nan

