Time Pressure difference Time.1 Pressure.1 difference.1
(hr) (psi) (hr) (psi)
0.000200000000006639311 0.62203972383812733 0.000200000000006639311 0.49122117345334415
0.000399999999999067768 1.12904043239354146 0.000399999999999067768 0.97167786356351793
0.000600000000005707079 1.57999737274171403 0.000600000000005707079 1.30139222702533841
0.000799999999998135536 1.99299791918141533 0.000799999999998135536 1.59770965018802369
0.001007140329434719206 2.39075235952890131 0.001007140329434719206 1.87767984178610248
0.001267914553963578328 2.85769249479805865 0.001267914553963578328 2.19913283660775827
0.001596209851982166583 3.40347727150318979 0.001596209851982166583 2.56459084276192639
0.002009509145224797066 4.03871087488930591 0.002009509145224797066 2.97831929054865885
0.002529822128138903281 4.77501571648965761 0.002529822128138903281 3.44494693844086264
0.003184857364431081805 5.62512641323913076 0.003184857364431081805 3.96956851336099570
0.004009497869020606231 6.60300989738452593 0.004009497869020606231 4.55786781173017985
0.005047658755842121536 7.72401588130892680 0.005047658755842121536 5.21625669690666971
0.006354625877790454069 9.00506068974761753 0.006354625877790454069 5.95202478724296835
0.008000000000009777068 10.46484625129694201 0.008000000000009777068 6.77349528765789710
0.010071403294347192059 12.12411511892581295 0.010071403294347192059 7.69018395199304106
0.012679145539706837553 14.00594185520414747 0.012679145539706837553 8.71295839194504040
0.015962098519750611558 16.13606027203967130 0.015962098519750611558 9.85419034803589255
0.020095091452091651263 18.54322332426911402 0.020095091452091651263 11.12788776086998155
0.025298221281360611101 21.25958889508465788 0.025298221281360611101 12.54981179397712587
0.031848573644296607199 24.32113037807571843 0.031848573644296607199 14.13765542891768057
0.040094978690177640601 27.76810019378828542 0.040094978690177640601 15.91142801724390310
0.050476587558421215363 31.64561106717330219 0.050476587558421215363 17.89405050253385809
0.063546258777961384112 36.00436456342744407 0.063546258777961384112 20.11166305897218365
0.079999999999998294697 40.90136124658353367 0.079999999999998294697 22.59256477236589689
0.100714032943542974863 46.40012344527807642 0.100714032943542974863 25.36380469185468201
0.126791455396897845276 52.56981269418368896 0.126791455396897845276 28.44556666889780772
0.159620985197506115583 59.48283810994121268 0.159620985197506115583 31.84530137416827600
0.200950914520760193227 67.21123675636654582 0.200950914520760193227 35.55447169070696845
0.252982212813478213320 75.82274030927126773 0.252982212813478213320 39.55049757134675303
0.318485736442795541734 85.37799493258887651 0.318485736442795541734 43.80080190862962297
0.400949786901833249431 95.92841916084466902 0.400949786901833249431 48.27590341698928711
0.504765875584155310207 107.51933986835682333 0.504765875584155310207 52.95379641364931445
0.635462587779443310865 120.18973022234477810 0.635462587779443310865 57.82592379696349383
0.799999999999997157829 133.97788603830466059 0.799999999999997157829 62.90581663198083362
1.007140329435344483500 148.92485165112304912 1.007140329435344483500 68.23987896990477964
1.267914553968893187630 165.08459550549181927 1.267914553968893187630 73.84701315488294426
1.596209851975103788391 182.49946183706074976 1.596209851975103788391 79.83764999262517392
2.009509145207672986544 201.26352377977252672 2.009509145207672986544 86.26066814493260893
2.529822128134711078928 221.42811795153627941 2.529822128134711078928 93.22641456377519376
3.184857364427998049905 243.11848133779366776 3.184857364427998049905 100.88779843744157461
4.009497869018190385759 266.43037894535297028 4.009497869018190385759 109.28304188793026697
5.009497869018204596614 290.62072159754171707 5.009497869018204596614 118.15045841808834837
6.009497869018204596614 311.65230292463394335 6.009497869018204596614 125.93491250391279834
7.009497869018204596614 330.34267227516880894 7.009497869018204596614 132.86804530231202648
8.009497869018204596614 347.20490802551074694 8.009497869018204596614 139.08119361585960405
9.009497869018204596614 362.58589282730901004 9.009497869018204596614 144.68996862557793293
10.009497869018190385759 376.73393068429743380 10.009497869018190385759 149.77064266353323774
11.009497869018190385759 389.83463646781632406 11.009497869018190385759 154.35439054776489343
12.009497869018190385759 402.03162654013971178 12.009497869018190385759 158.54148679066264549
13.009497869018190385759 413.43845675800815798 13.009497869018190385759 162.37620625080413106
14.009497869018190385759 424.14819493392013783 14.009497869018190385759 165.89083151594093124
15.009497869018190385759 434.23589242609108396 15.009497869018190385759 169.12393617592024953
16.009497869018204596614 443.76384135239783291 16.009497869018204596614 172.10896190064960365
17.009497869018204596614 452.78668940951564537 17.009497869018204596614 174.87673428528867703
18.009497869018204596614 461.35178564730074413 18.009497869018204596614 177.46022605565525510
19.009497869018204596614 469.49935176346673416 19.009497869018204596614 179.86631825652628436
20.009497869018204596614 477.26575791403092808 20.009497869018204596614 182.10804563128533573
21.009497869018204596614 484.68070691809600703 21.009497869018204596614 184.19589712119309866
22.009497869018190385759 491.76957380090652805 22.009497869018190385759 186.14848945428127536
23.009497869018190385759 498.55564149251125627 23.009497869018190385759 187.97201288444071565
24.009497869018190385759 505.06041268787618037 24.009497869018190385759 189.68713719650230587
25.009497869018190385759 511.30410066387815959 25.009497869018190385759 191.30269615099277303
26.009497869018190385759 517.30448797285521323 26.009497869018190385759 192.82764783312197210
27.009497869018204596614 523.07779943630748676 27.009497869018204596614 194.27353895687576824
28.009497869018190385759 528.63809740879571564 28.009497869018190385759 195.64321270400415642
29.009497869018190385759 533.99798371142321685 29.009497869018190385759 196.92988808405419832
30.009497869018190385759 539.16916163357632286 30.009497869018190385759 198.16165579485263493
31.009497869018190385759 544.16235234585667513 31.009497869018190385759 199.32833007600405040
32.009497869018190385759 548.98742995756481378 32.009497869018190385759 200.43466904098676196
33.009497869018218807469 553.65357671486367508 33.009497869018218807469 201.47753884849456085
34.009497869018190385759 558.16955080433274361 34.009497869018190385759 202.48186579763023474
35.009497869018218807469 562.54317339029432787 35.009497869018218807469 203.43481564207385759
36.009497869018190385759 566.78167679707655680 36.009497869018190385759 204.35299220699116063
37.009497869018218807469 570.89176120780814472 37.009497869018218807469 205.23366781353357169
38.009497869018190385759 574.87980419365601392 38.009497869018190385759 206.08060236657675546
39.009497869018190385759 578.75164244955669801 39.009497869018190385759 206.89760946843972533
40.009497869018190385759 582.51274093393635667 40.009497869018190385759 207.68033275630713774
41.009497869018190385759 586.16834435851501439 41.009497869018190385759 208.44072289759998284
42.009497869018190385759 589.72325712084557381 42.009497869018190385759 209.16024390921606368
43.009497869018190385759 593.18201298536894228 43.009497869018190385759 209.86829649221644445
44.009497869018218807469 596.54897857003402351 44.009497869018218807469 210.52484837265390638
46.009497869018218807469 603.02375441417223101 46.009497869018218807469 211.77854140259751148
48.009497869018218807469 609.17545036278897896 48.009497869018218807469 212.92972292645745824
50.009497869018218807469 615.02624340874581321 50.009497869018218807469 213.92331188676405418
52.009497869018190385759 620.59824760404717381 52.009497869018190385759 214.80522949584303660
54.009497869018190385759 625.91250214897854676 54.009497869018190385759 215.59376599204244940
56.009497869018190385759 630.98567903737944107 56.009497869018190385759 216.29208907595852907
58.009497869018190385759 635.83215368553658209 58.009497869018190385759 216.90399642380646128
60.009497869018190385759 640.46623410435665846 60.009497869018190385759 217.54424488811568494
62.009497869018190385759 644.89995000422504745 62.009497869018190385759 218.15552612183046222
64.009497869018190385759 649.14590981511435075 64.009497869018190385759 218.73767874610430795
66.009497869018218807469 653.22111287843131322 66.009497869018218807469 219.35256710362426702
68.009497869018218807469 657.14027544032217065 68.009497869018218807469 219.96926850139908538
70.009497869018218807469 660.91214211103647358 70.009497869018218807469 220.47812324635273740
72.009497869018218807469 664.54585637980676438 72.009497869018218807469 220.82548501052480105
74.009497869018190385759 668.04989693771040038 74.009497869018190385759 221.14028702846599117
76.009497869018190385759 671.43109389217750049 76.009497869018190385759 221.41466847008700825
78.009497869018190385759 674.69821502714478356 78.009497869018190385759 221.75186501775561965
80.009497869018190385759 677.85668648274622683 80.009497869018190385759 221.91980148490779357
82.009497869018190385759 680.90642121668281561 82.009497869018190385759 222.14690334537726812
84.009497869018190385759 683.84880094724758237 84.009497869018190385759 222.32488890657967318
86.009497869018190385759 686.68626108477508296 86.009497869018190385759 222.27812407470977973
88.009497869018218807469 689.42592701261992261 88.009497869018218807469 222.30076791106537826
91.009497869018190385759 693.35853005370711344 91.009497869018190385759 222.21542022303478348
94.009497869018218807469 697.09278048406929429 94.009497869018218807469 222.28962651912218007
97.009497869018190385759 700.65558909837091051 97.009497869018190385759 222.62988907689205575
99.504748934509109403734 703.50761162412925387 99.504748934509109403734 222.79724555876788372
nan nan nan nan

