Time Pressure difference Time.1 Pressure.1 difference.1
(hr) (psi) (hr) (psi)
0.000200000000006639311 0.50842226407585722 0.000200000000006639311 0.40149812238380483
0.000399999999999067768 0.92281774117063964 0.000399999999999067768 0.79419792725956917
0.000600000000005707079 1.29140601588378878 0.000600000000005707079 1.06368895290540411
0.000799999999998135536 1.62897074822889154 0.000799999999998135536 1.30588309163327243
0.001007140329434719206 1.95407412243127587 0.001007140329434719206 1.53471587068435511
0.001267914553963578328 2.33572621258494362 0.001267914553963578328 1.79745449196205564
0.001596209851982166583 2.78182172905515834 0.001596209851982166583 2.09616047454316634
0.002009509145224797066 3.30102797019013661 0.002009509145224797066 2.43432015482599606
0.002529822128138903281 3.90284447847777072 0.002529822128138903281 2.81571683437870490
0.003184857364431081805 4.59767985408626867 0.003184857364431081805 3.24451467265526272
0.004009497869020606231 5.39694992633163828 0.004009497869020606231 3.72535930326109588
0.005047658755842121536 6.31320073564127604 0.005047658755842121536 4.26349144308392081
0.006354625877790454069 7.36025878825289936 0.006354625877790454069 4.86486923936899807
0.008000000000009777068 8.55341004825392837 0.008000000000009777068 5.53629563817752679
0.010071403294347192059 9.90960837781589454 0.010071403294347192059 6.28554831178206630
0.012679145539706837553 11.44771370001890176 0.012679145539706837553 7.12150986933466967
0.015962098519750611558 13.18875946724875092 0.015962098519750611558 8.05429231507831567
0.020095091452091651263 15.15624681912199812 0.020095091452091651263 9.09534499638454541
0.025298221281360611101 17.37645990302327803 0.025298221281360611101 10.25755025201599935
0.031848573644296607199 19.87880146208025423 0.031848573644296607199 11.55536938628883981
0.040094978690177640601 22.69617168900450821 0.040094978690177640601 13.00515698144118915
0.050476587558421215363 25.86544333143450558 0.050476587558421215363 14.62564740054042822
0.063546258777961384112 29.42805715847487846 0.063546258777961384112 16.43820623493542499
0.079999999999998294697 33.43060240664633653 0.079999999999998294697 18.46596365578069765
0.100714032943542974863 37.92499885680381766 0.100714032943542974863 20.73102812058735012
0.126791455396897845276 42.96777547759299409 0.126791455396897845276 23.24989683855831046
0.159620985197506115583 48.61811563883970422 0.159620985197506115583 26.02865959255999329
0.200950914520760193227 54.93489861413224418 0.200950914520760193227 29.06033859617988213
0.252982212813478213320 61.97348468135334798 0.252982212813478213320 32.32647811698851825
0.318485736442795541734 69.78344279694253771 0.318485736442795541734 35.80045135593094585
0.400949786901833249431 78.40679974269039576 0.400949786901833249431 39.45816187449839418
0.504765875584155310207 87.88060330056512726 0.504765875584155310207 43.28162339523785818
0.635462587779443310865 98.23670806948793199 0.635462587779443310865 47.26384179731404345
0.799999999999997157829 109.50641501702250480 0.799999999999997157829 51.41587665532311746
1.007140329435344483500 121.72327160464243434 1.007140329435344483500 55.77565617846298807
1.267914553968893187630 134.93138877540710041 1.267914553968893187630 60.35863013985840553
1.596209851975103788391 149.16537646069966172 1.596209851975103788391 65.25505882050282480
2.009509145207672986544 164.50212504856918372 2.009509145207672986544 70.50489304499085108
2.529822128134711078928 180.98359436651077203 2.529822128134711078928 76.19832455671829052
3.184857364427998049905 198.71214648119666890 3.184857364427998049905 82.46033321264356175
4.009497869018190385759 217.76605462778343281 4.009497869018190385759 89.32215974717564677
5.009497869018204596614 237.53795714248053628 5.009497869018204596614 96.56991550294772253
6.009497869018204596614 254.72805575778755838 6.009497869018204596614 102.93251522003485832
7.009497869018204596614 270.00457193103085274 7.009497869018204596614 108.59929008893054458
8.009497869018204596614 283.78686870248378682 8.009497869018204596614 113.67758784316689002
9.009497869018204596614 296.35846954558621746 9.009497869018204596614 118.26190292764074741
10.009497869018190385759 307.92232497767577115 10.009497869018190385759 122.41457629947970531
11.009497869018190385759 318.63014674563351036 11.009497869018190385759 126.16108860077515885
12.009497869018190385759 328.59931924352235910 12.009497869018190385759 129.58339889726607908
13.009497869018190385759 337.92265700322917610 13.009497869018190385759 132.71769510907560630
14.009497869018190385759 346.67622871639798632 14.009497869018190385759 135.59036331047823865
15.009497869018190385759 354.92137738091730625 15.009497869018190385759 138.23293150705316634
16.009497869018204596614 362.70901726864349257 16.009497869018204596614 140.67273314532687323
17.009497869018204596614 370.08381450716535710 17.009497869018204596614 142.93496343113898206
18.009497869018204596614 377.08446969743664567 18.009497869018204596614 145.04657252099985953
19.009497869018204596614 383.74385792095603165 19.009497869018204596614 147.01318461579342056
20.009497869018204596614 390.09170621340689422 20.009497869018204596614 148.84545362312198336
21.009497869018204596614 396.15229208305601105 21.009497869018204596614 150.55195264701598035
22.009497869018190385759 401.94635572910823385 22.009497869018190385759 152.14789801314216788
23.009497869018190385759 407.49292738316478335 23.009497869018190385759 153.63834930656838651
24.009497869018190385759 412.80958220713142737 24.009497869018190385759 155.04020091265135761
25.009497869018190385759 417.91284146098615793 25.009497869018190385759 156.36067307851550368
26.009497869018190385759 422.81723965944593147 26.009497869018190385759 157.60708766768439659
27.009497869018204596614 427.53603811069626772 27.009497869018204596614 158.78888235148724561
28.009497869018190385759 432.08073063718910589 28.009497869018190385759 159.90838099582379073
29.009497869018190385759 436.46161729882646796 29.009497869018190385759 160.96004117890552720
30.009497869018190385759 440.68826374336185836 30.009497869018190385759 161.96682274660915368
31.009497869018190385759 444.76943288676653765 31.009497869018190385759 162.92040039885637270
32.009497869018190385759 448.71319530205039428 32.009497869018190385759 163.82466316513307447
33.009497869018218807469 452.52705607000592636 33.009497869018218807469 164.67704960984096374
34.009497869018190385759 456.21817366762292068 34.009497869018190385759 165.49793316724677084
35.009497869018218807469 459.79294069961815694 35.009497869018218807469 166.27682380540935014
36.009497869018190385759 463.25726848414109327 36.009497869018190385759 167.02729260999990402
37.009497869018218807469 466.61663339536147532 37.009497869018218807469 167.74711012106160979
38.009497869018190385759 469.87624812154939491 38.009497869018190385759 168.43934948533464535
39.009497869018190385759 473.04088326744385995 39.009497869018190385759 169.10712773900024786
40.009497869018190385759 476.11500560008471439 40.009497869018190385759 169.74688422224696183
41.009497869018190385759 479.10290186854138028 41.009497869018190385759 170.36838677650771956
42.009497869018190385759 482.00849893244622990 42.009497869018190385759 170.95648507273679684
43.009497869018190385759 484.83550245028629888 43.009497869018190385759 171.53520968394425950
44.009497869018218807469 487.58748146387472389 44.009497869018218807469 172.07184035356709728
46.009497869018218807469 492.87961967933870255 46.009497869018218807469 173.09654251375570766
48.009497869018218807469 497.90768953121829554 48.009497869018218807469 174.03745720825756393
50.009497869018218807469 502.68981731674017510 50.009497869018218807469 174.84956410336531007
52.009497869018190385759 507.24407788861407198 52.009497869018190385759 175.57039676139822859
54.009497869018190385759 511.58766757278755222 54.009497869018190385759 176.21490465267956438
56.009497869018190385759 515.73421317238864958 56.009497869018190385759 176.78567688759468979
58.009497869018190385759 519.69546438991312698 58.009497869018190385759 177.28581748517243000
60.009497869018190385759 523.48311583427516780 60.009497869018190385759 177.80912260753126475
62.009497869018190385759 527.10699995243282956 62.009497869018190385759 178.30875145263897252
64.009497869018190385759 530.57742220602710859 64.009497869018190385759 178.78457211798934168
66.009497869018218807469 533.90827695471784864 66.009497869018218807469 179.28714923469695464
68.009497869018218807469 537.11159247724287980 68.009497869018218807469 179.79120823430679366
70.009497869018218807469 540.19451615402056177 70.009497869018218807469 180.20711910237605480
72.009497869018218807469 543.16452138798501892 72.009497869018218807469 180.49103417696974816
74.009497869018190385759 546.02853821133271595 74.009497869018190385759 180.74833664265435118
76.009497869018190385759 548.79214919146340890 76.009497869018190385759 180.97260147402008101
78.009497869018190385759 551.46252064973771212 78.009497869018190385759 181.24820804002271757
80.009497869018190385759 554.04408762518335152 80.009497869018190385759 181.38547039735831845
82.009497869018190385759 556.53677897404384112 82.009497869018190385759 181.57109140780323742
84.009497869018190385759 558.94172403953609773 84.009497869018190385759 181.71656736139829036
86.009497869018190385759 561.26091339684160175 86.009497869018190385759 181.67834426922709667
88.009497869018218807469 563.50017095623331898 88.009497869018218807469 181.69685213955446557
91.009497869018190385759 566.71447201328510346 91.009497869018190385759 181.62709346801108268
94.009497869018218807469 569.76665017116283707 94.009497869018218807469 181.68774575695596241
97.009497869018190385759 572.67870088550523633 97.009497869018190385759 181.96585831692911484
99.504748934509109403734 575.00979276625253078 99.504748934509109403734 182.10264662507455569
nan nan nan nan

