Time Pressure difference Time.1 Pressure.1 difference.1
(hr) (psi) (hr) (psi)
0.000200000000006639311 0.43796674433500810 0.000200000000006639311 0.34585980579878317
0.000399999999999067768 0.79493663097096301 0.000399999999999067768 0.68414053659064011
0.000600000000005707079 1.11244712978753335 0.000600000000005707079 0.91628636392600360
0.000799999999998135536 1.40323322881140489 0.000799999999998135536 1.12491801900993504
0.001007140329434719206 1.68328482456626749 0.001007140329434719206 1.32203988860450083
0.001267914553963578328 2.01204879735781672 0.001267914553963578328 1.54836903801974834
0.001596209851982166583 2.39632583401755195 0.001596209851982166583 1.80568130765890755
0.002009509145224797066 2.84358214660573605 0.002009509145224797066 2.09697990865160655
0.002529822128138903281 3.36200086161006517 0.002529822128138903281 2.42552386482060767
0.003184857364431081805 3.96054818891326521 0.003184857364431081805 2.79490027981539502
0.004009497869020606231 4.64905798897482025 0.004009497869020606231 3.20911101029982015
0.005047658755842121536 5.43833771235016261 0.005047658755842121536 3.67267053149551259
0.006354625877790454069 6.34029783257740398 0.006354625877790454069 4.19071132979351990
0.008000000000009777068 7.36810603407641906 0.008000000000009777068 4.76909362090198830
0.010071403294347192059 8.53636676740694966 0.010071403294347192059 5.41451727232163016
0.012679145539706837553 9.86132640825598195 0.012679145539706837553 6.13463396983885456
0.015962098519750611558 11.36110366092589175 0.015962098519750611558 6.93815442871914900
0.020095091452091651263 13.05594295280172190 0.020095091452091651263 7.83494138265335405
0.025298221281360611101 14.96848605878409622 0.025298221281360611101 8.83609197739206031
0.031848573644296607199 17.12406118456351578 0.031848573644296607199 9.95406351627877761
0.040094978690177640601 19.55100932011623982 0.040094978690177640601 11.20294421622274683
0.050476587558421215363 22.28109350647916287 0.050476587558421215363 12.59887229260037067
0.063546258777961384112 25.35001178445401493 0.063546258777961384112 14.16025256192939352
0.079999999999998294697 28.79789720422718347 0.079999999999998294697 15.90700989074741578
0.100714032943542974863 32.66947467065497079 0.100714032943542974863 17.85818901773442136
0.126791455396897845276 37.01343954998647945 0.126791455396897845276 20.02800102197906895
0.159620985197506115583 41.88077377128513490 0.159620985197506115583 22.42169178385317707
0.200950914520760193227 47.32219730805399394 0.200950914520760193227 25.03325047611000542
0.252982212813478213320 53.38539878918078330 0.252982212813478213320 27.84677890227474961
0.318485736442795541734 60.11307806478196625 0.318485736442795541734 30.83934011934126218
0.400949786901833249431 67.54143798059472203 0.400949786901833249431 33.99017689563531519
0.504765875584155310207 75.70239235629205155 0.504765875584155310207 37.28379543410002839
0.635462587779443310865 84.62338148307948416 0.635462587779443310865 40.71417083663756387
0.799999999999997157829 94.33136874125533211 0.799999999999997157829 44.29083007761916235
1.007140329435344483500 104.85525269313765762 1.007140329435344483500 48.04644539717784824
1.267914553968893187630 116.23303152937688765 1.267914553968893187630 51.99432558864207010
1.596209851975103788391 128.49451904854277018 1.596209851975103788391 56.21222295399120128
2.009509145207672986544 141.70595041637045597 2.009509145207672986544 60.73455206122805805
2.529822128134711078928 155.90347080261227575 2.529822128134711078928 65.63900617245396063
3.184857364427998049905 171.17525726844655765 3.184857364427998049905 71.03324583860681685
4.009497869018190385759 187.58873619621792272 4.009497869018190385759 76.94418255374681337
5.009497869018204596614 204.62071214520796048 5.009497869018204596614 83.18756766171526351
6.009497869018204596614 219.42866226326268020 6.009497869018204596614 88.66845880377533717
7.009497869018204596614 232.58820803047603931 7.009497869018204596614 93.54995026387275914
8.009497869018204596614 244.46059850775759514 8.009497869018204596614 97.92451387239096050
9.009497869018204596614 255.29006739881958765 9.009497869018204596614 101.87354933841712068
10.009497869018190385759 265.25144099200537084 10.009497869018190385759 105.45075861003869022
11.009497869018190385759 274.47540730897270578 11.009497869018190385759 108.67809130403853146
12.009497869018190385759 283.06308399254731967 12.009497869018190385759 111.62614886281349413
13.009497869018190385759 291.09442363574049750 13.009497869018190385759 114.32610440107637828
14.009497869018190385759 298.63495357592336177 14.009497869018190385759 116.80068749591760024
15.009497869018190385759 305.73751609592125078 15.009497869018190385759 119.07705710345403816
16.009497869018204596614 312.44596993179027322 16.009497869018204596614 121.17875888923286709
17.009497869018204596614 318.79879152302635248 17.009497869018204596614 123.12749658862161084
18.009497869018204596614 324.82931846595664638 18.009497869018204596614 124.94648569224708012
19.009497869018204596614 330.56587011917554264 19.009497869018204596614 126.64057101735012623
20.009497869018204596614 336.03405404151158109 20.009497869018204596614 128.21893008733354691
21.009497869018204596614 341.25478344233289363 21.009497869018204596614 129.68894797308493594
22.009497869018190385759 346.24592441084229222 22.009497869018190385759 131.06373237087152006
23.009497869018190385759 351.02387003044157154 23.009497869018190385759 132.34764172475928490
24.009497869018190385759 355.60375995370873170 24.009497869018190385759 133.55522925059855766
25.009497869018190385759 359.99982597762851810 25.009497869018190385759 134.69271463692348334
26.009497869018190385759 364.22458847068372734 26.009497869018190385759 135.76640510699402853
27.009497869018204596614 368.28947103168587773 27.009497869018204596614 136.78443049004519594
28.009497869018190385759 372.20437470619287978 28.009497869018190385759 137.74879261812537834
29.009497869018190385759 375.97817220498160395 29.009497869018190385759 138.65471712040553598
30.009497869018190385759 379.61910359915066238 30.009497869018190385759 139.52198214127380993
31.009497869018190385759 383.13471746800115625 31.009497869018190385759 140.34341607392119045
32.009497869018190385759 386.53196599053035243 32.009497869018190385759 141.12236901865395566
33.009497869018218807469 389.81731421760815692 33.009497869018218807469 141.85663449536858138
34.009497869018190385759 392.99692862754034195 34.009497869018190385759 142.56376265343351406
35.009497869018218807469 396.07631595847254857 35.009497869018218807469 143.23471713574588193
36.009497869018190385759 399.06056835712524844 36.009497869018190385759 143.88118839063662335
37.009497869018218807469 401.95440329937508750 37.009497869018218807469 144.50125590952873722
38.009497869018190385759 404.76231111594148615 38.009497869018190385759 145.09756697238563561
39.009497869018190385759 407.48840131652468699 39.009497869018190385759 145.67280666655452137
40.009497869018190385759 410.13652167797562242 40.009497869018190385759 146.22390775699176402
41.009497869018190385759 412.71036490548505071 41.009497869018190385759 146.75928448912651447
42.009497869018190385759 415.21331368712594667 42.009497869018190385759 147.26588601771337039
43.009497869018190385759 417.64856016316792875 43.009497869018190385759 147.76441283635645618
44.009497869018218807469 420.01917878910552417 44.009497869018218807469 148.22667895625630763
46.009497869018218807469 424.57794953650903835 46.009497869018218807469 149.10938119162477733
48.009497869018218807469 428.90924566359632308 48.009497869018218807469 149.91990695842412151
50.009497869018218807469 433.02868158370876017 50.009497869018218807469 150.61947469578285563
52.009497869018190385759 436.95182739468623367 52.009497869018190385759 151.24041668584865761
54.009497869018190385759 440.69349641101553061 54.009497869018190385759 151.79561074949924659
56.009497869018190385759 444.26542707733858606 56.009497869018190385759 152.28728720654223139
58.009497869018190385759 447.67774086022473057 58.009497869018190385759 152.71811993104739713
60.009497869018190385759 450.94051176735314357 60.009497869018190385759 153.16890711510185952
62.009497869018190385759 454.06220969685233513 62.009497869018190385759 153.59929900414593362
64.009497869018190385759 457.05171201268257164 64.009497869018190385759 154.00918197429794532
66.009497869018218807469 459.92098763889555357 66.009497869018218807469 154.44211357295995413
68.009497869018218807469 462.68039801410441214 68.009497869018218807469 154.87632169996464881
70.009497869018218807469 465.33610005777057950 70.009497869018218807469 155.23459697957488856
72.009497869018218807469 467.89453153272108921 72.009497869018218807469 155.47916801761442684
74.009497869018190385759 470.36166212961239808 74.009497869018190385759 155.70081433636892143
76.009497869018190385759 472.74230080163522416 76.009497869018190385759 155.89400126975513672
78.009497869018190385759 475.04262078441826134 78.009497869018190385759 156.13141516556265742
80.009497869018190385759 477.26644252356618381 80.009497869018190385759 156.24965614753710952
82.009497869018190385759 479.41370473419510745 82.009497869018190385759 156.40955439623499501
84.009497869018190385759 481.48538025877638802 84.009497869018190385759 156.53487076075509776
86.009497869018190385759 483.48318382499468271 86.009497869018190385759 156.50194450158139148
88.009497869018218807469 485.41213228439568184 88.009497869018218807469 156.51788761085214219
91.009497869018190385759 488.18100585414072157 91.009497869018190385759 156.45779587132042820
94.009497869018218807469 490.81022299388553165 94.009497869018218807469 156.51004316142274320
97.009497869018190385759 493.31873109987333237 97.009497869018190385759 156.74961577862808326
99.504748934509109403734 495.32678777617263677 99.504748934509109403734 156.86744840362229070
nan nan nan nan

