Time Pressure difference Time.1 Pressure.1 difference.1
(hr) (psi) (hr) (psi)
0.000200000000006639311 0.22723491952454042 0.000200000000006639311 0.17944610213907880
0.000399999999999067768 0.41244538244580392 0.000399999999999067768 0.35495987260789730
0.000600000000005707079 0.57718271371585061 0.000600000000005707079 0.47540654823986861
0.000799999999998135536 0.72805434190504770 0.000799999999998135536 0.58365311710950252
0.001007140329434719206 0.87335647419525186 0.001007140329434719206 0.68592794220349462
0.001267914553963578328 1.04393256442622961 0.001267914553963578328 0.80335668929140569
0.001596209851982166583 1.24331108489606335 0.001596209851982166583 0.93686073643752010
0.002009509145224797066 1.47536580939833839 0.002009509145224797066 1.08799827144532646
0.002529822128138903281 1.74434247602377268 0.002529822128138903281 1.25846020812431503
0.003184857364431081805 2.05489311830572330 0.003184857364431081805 1.45010768141146573
0.004009497869020606231 2.41211994210577618 0.004009497869020606231 1.66501701693816773
0.005047658755842121536 2.82163029133530197 0.005047658755842121536 1.90553050764549758
0.006354625877790454069 3.28960380298943544 0.006354625877790454069 2.17431109574794146
0.008000000000009777068 3.82287240608602596 0.008000000000009777068 2.47439929896074196
0.010071403294347192059 4.42901348221983771 0.010071403294347192059 2.80927128042194729
0.012679145539706837553 5.11645631037049498 0.012679145539706837553 3.18289704522073924
0.015962098519750611558 5.89460160958183899 0.015962098519750611558 3.59979606591515244
0.020095091452091651263 6.77395301029422736 0.020095091452091651263 4.06508552897087050
0.025298221281360611101 7.76625798412276325 0.025298221281360611101 4.58452308392225749
0.031848573644296607199 8.88465783199092485 0.031848573644296607199 5.16457208525768419
0.040094978690177640601 10.14385700956755798 0.040094978690177640601 5.81254207160542524
0.050476587558421215363 11.56033547147759499 0.050476587558421215363 6.53680620398685885
0.063546258777961384112 13.15261480990512588 0.063546258777961384112 7.34691364807351110
0.079999999999998294697 14.94151767987439428 0.079999999999998294697 8.25320223317039847
0.100714032943542974863 16.95024917694852107 0.100714032943542974863 9.26555314253467088
0.126791455396897845276 19.20407443318138974 0.126791455396897845276 10.39133966067899628
0.159620985197506115583 21.72944494220301337 0.159620985197506115583 11.63328356321657608
0.200950914520760193227 24.55267628446859263 0.200950914520760193227 12.98826618905417973
0.252982212813478213320 27.69851125583582530 0.252982212813478213320 14.44803890871646423
0.318485736442795541734 31.18910427129267049 0.318485736442795541734 16.00070110539735069
0.400949786901833249431 35.04323883630856784 0.400949786901833249431 17.63548308498180361
0.504765875584155310207 39.27747313558341347 0.504765875584155310207 19.34434603682291254
0.635462587779443310865 43.90604430571370642 0.635462587779443310865 21.12416399929890787
0.799999999999997157829 48.94294204256436132 0.799999999999997157829 22.97987995331545008
1.007140329435344483500 54.40316009296128641 1.007140329435344483500 24.92844558288357959
1.267914553968893187630 60.30641346016945903 1.267914553968893187630 26.97676603004907392
1.596209851975103788391 66.66817075272219029 1.596209851975103788391 29.16518234424470890
2.009509145207672986544 73.52279746240670022 2.009509145207672986544 31.51155019988354766
2.529822128134711078928 80.88904717005100053 2.529822128134711078928 34.05618001411379936
3.184857364427998049905 88.81266971319401193 3.184857364427998049905 36.85493044959599729
4.009497869018190385759 97.32864863513916021 4.009497869018190385759 39.92176428150921197
5.009497869018204596614 106.16552891012239002 5.009497869018204596614 43.16108583028125167
6.009497869018204596614 113.84849433369281257 6.009497869018204596614 46.00479456775590847
7.009497869018204596614 120.67620068827596924 7.009497869018204596614 48.53751042676296379
8.009497869018204596614 126.83607864605394866 8.009497869018204596614 50.80721154538545647
9.009497869018204596614 132.45484656344552832 9.009497869018204596614 52.85613139587438525
10.009497869018190385759 137.62321141324335372 10.009497869018190385759 54.71213272810702932
11.009497869018190385759 142.40897944436557054 11.009497869018190385759 56.38660389397941231
12.009497869018190385759 146.86461459323470535 12.009497869018190385759 57.91617578679309020
13.009497869018190385759 151.03159950955810586 13.009497869018190385759 59.31702228345701400
14.009497869018190385759 154.94393243504430302 14.009497869018190385759 60.60093641092536387
15.009497869018190385759 158.62903009034755542 15.009497869018190385759 61.78200933773413084
16.009497869018204596614 162.10964816750859541 16.009497869018204596614 62.87245751064546084
17.009497869018204596614 165.40574980470063338 17.009497869018204596614 63.88354170829932599
18.009497869018204596614 168.53463189972822533 18.009497869018204596614 64.82730706931079112
19.009497869018204596614 171.51098768502151870 19.009497869018204596614 65.70626728146571338
20.009497869018204596614 174.34810340124803929 20.009497869018204596614 66.52518401632667633
21.009497869018204596614 177.05682967007996353 21.009497869018204596614 67.28788894835420820
22.009497869018190385759 179.64643614359644630 22.009497869018190385759 68.00118288227827179
23.009497869018190385759 182.12542821869288900 23.009497869018190385759 68.66732715574467250
24.009497869018190385759 184.50166096148944916 24.009497869018190385759 69.29387256770186809
25.009497869018190385759 186.78251840578406018 25.009497869018190385759 69.88404614495449607
26.009497869018190385759 188.97449662681853511 26.009497869018190385759 70.44112033087516522
27.009497869018204596614 191.08352265122255176 27.009497869018204596614 70.96931321077707366
28.009497869018190385759 193.11473354321310580 28.009497869018190385759 71.46966341636068876
29.009497869018190385759 195.07273282519335567 29.009497869018190385759 71.93969381029735644
30.009497869018190385759 196.96179578042890057 30.009497869018190385759 72.38966609648697670
31.009497869018190385759 198.78583891818030338 31.009497869018190385759 72.81585935429535539
32.009497869018190385759 200.54846931102878216 32.009497869018190385759 73.22001175170741760
33.009497869018218807469 202.25304128971552586 33.009497869018218807469 73.60097847730719423
34.009497869018190385759 203.90275427341950376 34.009497869018190385759 73.96786526076695623
35.009497869018218807469 205.50046538135242713 35.009497869018218807469 74.31598367332902910
36.009497869018190385759 207.04881662587081337 36.009497869018190385759 74.65139919398248480
37.009497869018218807469 208.55025562489313984 37.009497869018218807469 74.97311538494389538
38.009497869018190385759 210.00711214421309592 38.009497869018190385759 75.28250576248414916
39.009497869018190385759 211.42151836422584665 39.009497869018190385759 75.58096345887899759
40.009497869018190385759 212.79547066770328456 40.009497869018190385759 75.86689706812036604
41.009497869018190385759 214.13088497994732506 41.009497869018190385759 76.14467224218446972
42.009497869018190385759 215.42951637679868782 42.009497869018190385759 76.40751767295853369
43.009497869018190385759 216.69302107016540049 43.009497869018190385759 76.66617361654438412
44.009497869018218807469 217.92299421231851397 44.009497869018218807469 76.90601603817356136
46.009497869018218807469 220.28826946966702849 46.009497869018218807469 77.36399777768357922
48.009497869018218807469 222.53552166314128158 48.009497869018218807469 77.78453143639976020
50.009497869018218807469 224.67285218401121938 50.009497869018218807469 78.14749556679748821
52.009497869018190385759 226.70833943086620366 52.009497869018190385759 78.46966546888960181
54.009497869018190385759 228.64966915238196066 54.009497869018190385759 78.75772267872569898
56.009497869018190385759 230.50293172998146929 56.009497869018190385759 79.01282437672770698
58.009497869018190385759 232.27337859124705233 58.009497869018190385759 79.23635787726807678
60.009497869018190385759 233.96623654016292448 60.009497869018190385759 79.47024456116878355
62.009497869018190385759 235.58590010358423683 62.009497869018190385759 79.69354933838296517
64.009497869018190385759 237.13697521817442748 64.009497869018190385759 79.90621325622994675
66.009497869018218807469 238.62567184742692916 66.009497869018218807469 80.13083573785458213
68.009497869018218807469 240.05736592615852487 68.009497869018218807469 80.35612053418455503
70.009497869018218807469 241.43525191403168151 70.009497869018218807469 80.54200828795335099
72.009497869018218807469 242.76266998364368987 72.009497869018218807469 80.66890166711007737
74.009497869018190385759 244.04271745275542571 74.009497869018190385759 80.78390077162329419
76.009497869018190385759 245.27788940142815477 76.009497869018190385759 80.88413399213382604
78.009497869018190385759 246.47138875481408604 78.009497869018190385759 81.00731395546583258
80.009497869018190385759 247.62519771512566535 80.009497869018190385759 81.06866217509896444
82.009497869018190385759 248.73928448527800583 82.009497869018190385759 81.15162387514801878
84.009497869018190385759 249.81415381542308296 84.009497869018190385759 81.21664309036279406
86.009497869018190385759 250.85069537586682031 86.009497869018190385759 81.19955961096542296
88.009497869018218807469 251.85151211277343464 88.009497869018218807469 81.20783154302183959
91.009497869018190385759 253.28811608084404838 91.009497869018190385759 81.17665351004740160
94.009497869018218807469 254.65226062581308497 94.009497869018218807469 81.20376152433237849
97.009497869018190385759 255.95377642573137678 97.009497869018190385759 81.32806151992588184
99.504748934509109403734 256.99563771575333249 99.504748934509109403734 81.38919786738664186
nan nan nan nan

