Time Pressure difference Time.1 Pressure.1 difference.1
(hr) (psi) (hr) (psi)
0.000200000000006639311 0.49445810701010329 0.000200000000006639311 0.39047070828587255
0.000399999999999067768 0.89747193554547844 0.000399999999999067768 0.77238475073059221
0.000600000000005707079 1.25593668710795425 0.000600000000005707079 1.03447402535993738
0.000799999999998135536 1.58422997861461501 0.000799999999998135536 1.27001614030252075
0.001007140329434719206 1.90040417150307595 0.001007140329434719206 1.49256387423609582
0.001267914553963578328 2.27157393208947678 0.001267914553963578328 1.74808620379331003
0.001596209851982166583 2.70541713724590283 0.001596209851982166583 2.03858802705259290
0.002009509145224797066 3.21036303218241770 0.002009509145224797066 2.36745992585449549
0.002529822128138903281 3.79565024810759510 0.002529822128138903281 2.73838129086268545
0.003184857364431081805 4.47140150603396158 0.003184857364431081805 3.15540191011042426
0.004009497869020606231 5.24871909190055685 0.004009497869020606231 3.62303982177327510
0.005047658755842121536 6.13980446075474884 0.005047658755842121536 4.14639180294928167
0.006354625877790454069 7.15810436460550381 0.006354625877790454069 4.73125235639007435
0.008000000000009777068 8.31848492832685515 0.008000000000009777068 5.38423758069949177
0.010071403294347192059 9.63743436494205064 0.010071403294347192059 6.11291152918630498
0.012679145539706837553 11.13329459714697123 0.012679145539706837553 6.92591284420937292
0.015962098519750611558 12.82652137950908511 0.015962098519750611558 7.83307579706118418
0.020095091452091651263 14.73997037714861058 0.020095091452091651263 8.84553527114052507
0.025298221281360611101 16.89920382578668168 0.025298221281360611101 9.97581978317161422
0.031848573644296607199 19.33281690257243213 0.031848573644296607199 11.23799344808864831
0.040094978690177640601 22.07280617445007920 0.040094978690177640601 12.64796165860510158
0.050476587558421215363 25.15503165441633016 0.050476587558421215363 14.22394422599374941
0.063546258777961384112 28.61979591317344429 0.063546258777961384112 15.98671992136666375
0.079999999999998294697 32.51240858274344703 0.079999999999998294697 17.95878363027860303
0.100714032943542974863 36.88336343252206007 0.100714032943542974863 20.16163658668856939
0.126791455396897845276 41.78763682527458201 0.126791455396897845276 22.61132289292999076
0.159620985197506115583 47.28278662004510835 0.159620985197506115583 25.31376507191539815
0.200950914520760193227 53.42607493184646472 0.200950914520760193227 28.26217698679666057
0.252982212813478213320 60.27134153155338225 0.252982212813478213320 31.43860980416236472
0.318485736442795541734 67.86679393110891567 0.318485736442795541734 34.81716804777803276
0.400949786901833249431 76.25330461867143583 0.400949786901833249431 38.37441710391291849
0.504765875584155310207 85.46690383413262282 0.504765875584155310207 42.09286470023756976
0.635462587779443310865 95.53857126857815274 0.635462587779443310865 45.96570881411690124
0.799999999999997157829 106.49874818759117545 0.799999999999997157829 50.00370526154394923
1.007140329435344483500 118.38006064920904237 1.007140329435344483500 54.24374052811818814
1.267914553968893187630 131.22540805997766711 1.267914553968893187630 58.70084004862633975
1.596209851975103788391 145.06844976639828815 1.596209851975103788391 63.46278504515818497
2.009509145207672986544 159.98396431065592083 2.009509145207672986544 68.56842906622703993
2.529822128134711078928 176.01275906555792972 2.529822128134711078928 74.10548667875599449
3.184857364427998049905 193.25438465524618437 3.184857364427998049905 80.19550508445610149
4.009497869018190385759 211.78496448819385023 4.009497869018190385759 86.86886697009965985
5.009497869018204596614 231.01381849437242977 5.009497869018204596614 93.91755827315390093
6.009497869018204596614 247.73177956968353897 6.009497869018204596614 100.10540493933476114
7.009497869018204596614 262.58871602281277546 7.009497869018204596614 105.61653805153170538
8.009497869018204596614 275.99247280803359672 8.009497869018204596614 110.55535696607616103
9.009497869018204596614 288.21878623721812573 9.009497869018204596614 115.01376077482163396
10.009497869018190385759 299.46503265619151080 10.009497869018190385759 119.05237819886977491
11.009497869018190385759 309.87875694737641652 11.009497869018190385759 122.69599003745800303
12.009497869018190385759 319.57411946404982928 12.009497869018190385759 126.02430429584306637
13.009497869018190385759 328.64138552498815216 13.009497869018190385759 129.07251496875142038
14.009497869018190385759 337.15453454441200165 14.009497869018190385759 131.86628341930406805
15.009497869018190385759 345.17322469380093253 15.009497869018190385759 134.43627171534885179
16.009497869018204596614 352.74697185052843906 16.009497869018204596614 136.80906257204696885
17.009497869018204596614 359.91921535715579239 17.009497869018204596614 139.00915919208148352
18.009497869018204596614 366.72759287678292139 18.009497869018204596614 141.06277152791372487
19.009497869018204596614 373.20407655483734288 19.009497869018204596614 142.97536930799384436
20.009497869018204596614 379.37757695411238501 20.009497869018204596614 144.75731382323598950
21.009497869018204596614 385.27170478489466632 21.009497869018204596614 146.41694271164226393
22.009497869018190385759 390.90663060296543563 22.009497869018190385759 147.96905437233178304
23.009497869018190385759 396.30086196190433157 23.009497869018190385759 149.41856942548912457
24.009497869018190385759 401.47149131005664913 24.009497869018190385759 150.78191824089316242
25.009497869018190385759 406.43458613996028816 25.009497869018190385759 152.06612275675854562
26.009497869018190385759 411.20428176617775762 26.009497869018190385759 153.27830373673674558
27.009497869018204596614 415.79347526620767894 27.009497869018204596614 154.42763964021045808
28.009497869018190385759 420.21334477699167564 28.009497869018190385759 155.51639050655023766
29.009497869018190385759 424.47390746040679232 29.009497869018190385759 156.53916614028392473
30.009497869018190385759 428.58446623730196734 30.009497869018190385759 157.51829577978591601
31.009497869018190385759 432.55354334430853669 31.009497869018190385759 158.44568278490524449
32.009497869018190385759 436.38898769075814243 32.009497869018190385759 159.32510937033541154
33.009497869018218807469 440.09809822538659319 33.009497869018218807469 160.15408445201759946
34.009497869018190385759 443.68783681283179021 34.009497869018190385759 160.95242189423871082
35.009497869018218807469 447.16442048065232484 35.009497869018218807469 161.70991978079135265
36.009497869018190385759 450.53359818869654418 36.009497869018190385759 162.43977645841439994
37.009497869018218807469 453.80069589885971482 37.009497869018218807469 163.13982370075780182
38.009497869018190385759 456.97078312944694289 38.009497869018190385759 163.81305024853395480
39.009497869018190385759 460.04849945735173833 39.009497869018190385759 164.46248752644342517
40.009497869018190385759 463.03818896687391771 40.009497869018190385759 165.08467267057474714
41.009497869018190385759 465.94402066865637835 41.009497869018190385759 165.68910524207180401
42.009497869018190385759 468.76981356850888005 42.009497869018190385759 166.26105102579523987
43.009497869018190385759 471.51917154653307307 43.009497869018190385759 166.82388057901695788
44.009497869018218807469 474.19556561842495057 44.009497869018218807469 167.34577232887485820
46.009497869018218807469 479.34235172310218331 46.009497869018218807469 168.34233035981984017
48.009497869018218807469 484.23232227817612738 48.009497869018218807469 169.25740220378608569
50.009497869018218807469 488.88310573001325565 50.009497869018218807469 170.04720404060122974
52.009497869018190385759 493.31228049342115582 52.009497869018190385759 170.74823854822622593
54.009497869018190385759 497.53657058576970940 54.009497869018190385759 171.37504459979700755
56.009497869018190385759 501.56922854093727437 56.009497869018190385759 171.93014019405276827
58.009497869018190385759 505.42168134799283052 58.009497869018190385759 172.41654409606655918
60.009497869018190385759 509.10530241560587683 60.009497869018190385759 172.92547629371645712
62.009497869018190385759 512.62965413601148157 62.009497869018190385759 173.41138249888356881
64.009497869018190385759 516.00475892446331727 64.009497869018190385759 173.87413443185229767
66.009497869018218807469 519.24412952275304178 66.009497869018218807469 174.36290793237071739
68.009497869018218807469 522.35946384490910077 68.009497869018218807469 174.85312261488763852
70.009497869018218807469 525.35771296377288309 70.009497869018218807469 175.25761021317222799
72.009497869018218807469 528.24614502027498020 72.009497869018218807469 175.53372737061104658
74.009497869018190385759 531.03149970864933493 74.009497869018190385759 175.78396285221941753
76.009497869018190385759 533.71920626735345650 76.009497869018190385759 176.00206810020179660
78.009497869018190385759 536.31623418994468011 78.009497869018190385759 176.27010494778738803
80.009497869018190385759 538.82689670414208649 80.009497869018190385759 176.40359730279914174
82.009497869018190385759 541.25112462019990289 82.009497869018190385759 176.58412010821314198
84.009497869018190385759 543.59001626316921829 84.009497869018190385759 176.72560046757712371
86.009497869018190385759 545.84550753575490489 86.009497869018190385759 176.68842719816217368
88.009497869018218807469 548.02326239064382207 88.009497869018218807469 176.70642673746931450
91.009497869018190385759 551.14928052228356137 91.009497869018190385759 176.63858403443276757
94.009497869018218807469 554.11762856845916758 94.009497869018218807469 176.69757046775117715
97.009497869018190385759 556.94969786492947605 97.009497869018190385759 176.96804448050909286
99.504748934509109403734 559.21676475020069574 99.504748934509109403734 177.10107580640837455
nan nan nan nan

