Time Pressure difference Time.1 Pressure.1 difference.1
(hr) (psi) (hr) (psi)
0.000200000000006639311 0.33831344163849175 0.000200000000006639311 0.26716416882717597
0.000399999999999067768 0.61405974537322205 0.000399999999999067768 0.52847377681566832
0.000600000000005707079 0.85932510170544241 0.000600000000005707079 0.70779801735153614
0.000799999999998135536 1.08394682747315763 0.000799999999998135536 0.86895841178593525
0.001007140329434719206 1.30027653839684154 0.001007140329434719206 1.02122791395101298
0.001267914553963578328 1.55423479564016853 0.001267914553963578328 1.19605898154279111
0.001596209851982166583 1.85107488337877557 0.001596209851982166583 1.39482338693072117
0.002009509145224797066 2.19656417991428610 0.002009509145224797066 1.61984100190044411
0.002529822128138903281 2.59702385396835433 0.002529822128138903281 1.87362930427446917
0.003184857364431081805 3.05937997781271065 0.003184857364431081805 2.15895920165450050
0.004009497869020606231 3.59122885235301315 0.004009497869020606231 2.47892198331855695
0.005047658755842121536 4.20091884156903816 0.005047658755842121536 2.83700491780740327
0.006354625877790454069 4.89765035473008137 0.006354625877790454069 3.23717266489847200
0.008000000000009777068 5.69159495096048040 0.008000000000009777068 3.68395202889965212
0.010071403294347192059 6.59403403917087605 0.010071403294347192059 4.18251841470641939
0.012679145539706837553 7.61751735594266410 0.012679145539706837553 4.73878247235378147
0.015962098519750611558 8.77604094387463718 0.015962098519750611558 5.35947291377870449
0.020095091452091651263 10.08524288962799709 0.020095091452091651263 6.05220834341193914
0.025298221281360611101 11.56261314395931095 0.025298221281360611101 6.82556090427531537
0.031848573644296607199 13.22771682807587545 0.031848573644296607199 7.68915341185012657
0.040094978690177640601 15.10244632988689517 0.040094978690177640601 8.65386850325612222
0.050476587558421215363 17.21133744775854169 0.050476587558421215363 9.73217236515361961
0.063546258777961384112 19.58196562480287994 0.063546258777961384112 10.93828205146140142
0.079999999999998294697 22.24533218819288294 0.079999999999998294697 12.28758879966430939
0.100714032943542974863 25.23598550646246252 0.100714032943542974863 13.79480398036586308
0.126791455396897845276 28.59154098571418601 0.126791455396897845276 15.47090513726789140
0.159620985197506115583 32.35138031897822941 0.159620985197506115583 17.31994452288948239
0.200950914520760193227 36.55468284810547885 0.200950914520760193227 19.33727899096613712
0.252982212813478213320 41.23828631106283638 0.252982212813478213320 21.51062776074266836
0.318485736442795541734 46.43517479496925660 0.318485736442795541734 23.82227287479550171
0.400949786901833249431 52.17331368645940159 0.400949786901833249431 26.25618012372988730
0.504765875584155310207 58.47735525493284570 0.504765875584155310207 28.80038111068886408
0.635462587779443310865 65.36849613113241730 0.635462587779443310865 31.45022182018524859
0.799999999999997157829 72.86756454940447725 0.799999999999997157829 34.21306149474060021
1.007140329435344483500 80.99688360209039217 1.007140329435344483500 37.11413825608086370
1.267914553968893187630 89.78580551472157367 1.267914553968893187630 40.16373266484960425
1.596209851975103788391 99.25736036648304150 1.596209851975103788391 43.42190555721349199
2.009509145207672986544 109.46271242308037586 2.009509145207672986544 46.91524094005008294
2.529822128134711078928 120.42978251853963911 2.529822128134711078928 50.70375404335936764
3.184857364427998049905 132.22668423780001490 3.184857364427998049905 54.87060874199628557
4.009497869018190385759 144.90550201823791099 4.009497869018190385759 59.43659319006818720
5.009497869018204596614 158.06208633825482934 5.009497869018204596614 64.25938197636845928
6.009497869018204596614 169.50069128452031464 6.009497869018204596614 68.49317180059746590
7.009497869018204596614 179.66596359455613197 7.009497869018204596614 72.26394708789011645
8.009497869018204596614 188.83695507918085355 8.009497869018204596614 75.64313897678896126
9.009497869018204596614 197.20232742546500049 9.009497869018204596614 78.69362579329902019
10.009497869018190385759 204.89712760686788329 10.009497869018190385759 81.45689034659510241
11.009497869018190385759 212.02230738504704277 11.009497869018190385759 83.94988792036600955
12.009497869018190385759 218.65597647540252524 12.009497869018190385759 86.22715557083999727
13.009497869018190385759 224.85989535920242588 13.009497869018190385759 88.31277339967203943
14.009497869018190385759 230.68468153038719493 14.009497869018190385759 90.22429918162910667
15.009497869018190385759 236.17115373786378996 15.009497869018190385759 91.98271222629132637
16.009497869018204596614 241.35319126615104324 16.009497869018204596614 93.60620070719004104
17.009497869018204596614 246.26051577068551524 17.009497869018204596614 95.11152997352944283
18.009497869018204596614 250.91887933674621536 18.009497869018204596614 96.51663315067780502
19.009497869018204596614 255.35015764278344363 19.009497869018204596614 97.82525268441683863
20.009497869018204596614 259.57413160018211329 20.009497869018204596614 99.04447787905620260
21.009497869018204596614 263.60695590545424238 21.009497869018204596614 100.18001343428154826
22.009497869018190385759 267.46243146518685307 22.009497869018190385759 101.24198457054278322
23.009497869018190385759 271.15322134235560725 23.009497869018190385759 102.23375802796623191
24.009497869018190385759 274.69102037003875694 24.009497869018190385759 103.16657563850584722
25.009497869018190385759 278.08682209576232935 25.009497869018190385759 104.04524188620321468
26.009497869018190385759 281.35029805054267626 26.009497869018190385759 104.87462887250408983
27.009497869018204596614 284.49027255056319063 27.009497869018204596614 105.66101659593346085
28.009497869018190385759 287.51439379478375713 28.009497869018190385759 106.40595139921857992
29.009497869018190385759 290.42951563080458754 29.009497869018190385759 107.10574525387846734
30.009497869018190385759 293.24200321499614574 30.009497869018190385759 107.77567605985352372
31.009497869018190385759 295.95768755136901973 31.009497869018190385759 108.41020401072464097
32.009497869018190385759 298.58193894630824161 32.009497869018190385759 109.01191693759791690
33.009497869018218807469 301.11975141736974138 33.009497869018218807469 109.57911041453834855
34.009497869018190385759 303.57588834562176316 34.009497869018190385759 110.12534129605808175
35.009497869018218807469 305.95460348676215290 35.009497869018218807469 110.64362932369934356
36.009497869018190385759 308.25983033963450453 36.009497869018190385759 111.14300494523089924
37.009497869018218807469 310.49521298343029230 37.009497869018218807469 111.62198463736059750
38.009497869018190385759 312.66422003593737600 38.009497869018190385759 112.08261332794428711
39.009497869018190385759 314.77002594450385686 39.009497869018190385759 112.52696514967180974
40.009497869018190385759 316.81560297733477682 40.009497869018190385759 112.95267077460377436
41.009497869018190385759 318.80380361539641854 41.009497869018190385759 113.36622990247019516
42.009497869018190385759 320.73724086266400946 42.009497869018190385759 113.75756122817568894
43.009497869018190385759 322.61838053183845432 43.009497869018190385759 114.14265513301158705
44.009497869018218807469 324.44959752839605471 44.009497869018218807469 114.49973896186175182
46.009497869018218807469 327.97108275791202914 46.009497869018218807469 115.18159445671885521
48.009497869018218807469 331.31685208506786466 48.009497869018218807469 115.80769624469573387
50.009497869018218807469 334.49896707843009835 50.009497869018218807469 116.34808697514820608
52.009497869018190385759 337.52945507444604800 52.009497869018190385759 116.82774216457583805
54.009497869018190385759 340.41975882184237889 54.009497869018190385759 117.25660946301898946
56.009497869018190385759 343.17894584379922662 56.009497869018190385759 117.63641171172029942
58.009497869018190385759 345.81483460652140138 58.009497869018190385759 117.96921438151923667
60.009497869018190385759 348.33520691594094387 60.009497869018190385759 118.31743114833228958
62.009497869018190385759 350.74660546148152207 62.009497869018190385759 118.64989328870983343
64.009497869018190385759 353.05588768515912079 64.009497869018190385759 118.96651303231999464
66.009497869018218807469 355.27229914714683900 66.009497869018218807469 119.30093700635890741
68.009497869018218807469 357.40384368335890031 68.009497869018218807469 119.63634705229154065
70.009497869018218807469 359.45527729100246006 70.009497869018218807469 119.91310172480204699
72.009497869018218807469 361.43157290860915509 72.009497869018218807469 120.10202399041807553
74.009497869018190385759 363.33734190591798097 74.009497869018190385759 120.27323774099221509
76.009497869018190385759 365.17629902503125550 76.009497869018190385759 120.42246764750649390
78.009497869018190385759 366.95321286680427875 78.009497869018190385759 120.60586128006505646
80.009497869018190385759 368.67103458704463037 80.009497869018190385759 120.69719815454678269
82.009497869018190385759 370.32971684539995749 82.009497869018190385759 120.82071375825110238
84.009497869018190385759 371.93001112743155545 84.009497869018190385759 120.91751610939486739
86.009497869018190385759 373.47324199814806889 86.009497869018190385759 120.89208176716358878
88.009497869018218807469 374.96328479359840458 88.009497869018218807469 120.90439724142638056
91.009497869018190385759 377.10213930472031052 91.009497869018190385759 120.85797854987504252
94.009497869018218807469 379.13311428368257339 94.009497869018218807469 120.89833768846135342
97.009497869018190385759 381.07084590758336162 97.009497869018190385759 121.08339885508516431
99.504748934509109403734 382.62199693434786241 99.504748934509109403734 121.17442028859518643
nan nan nan nan

