Time Pressure difference Time.1 Pressure.1 difference.1
(hr) (psi) (hr) (psi)
0.000200000000006639311 0.21580970010710543 0.000200000000006639311 0.17042367242258880
0.000399999999999067768 0.39170790511612663 0.000399999999999067768 0.33711272817509802
0.000600000000005707079 0.54816235380834977 0.000600000000005707079 0.45150342570266844
0.000799999999998135536 0.69144825767518503 0.000799999999998135536 0.55430742965706936
0.001007140329434719206 0.82944469616308836 0.001007140329434719206 0.65143994510946412
0.001267914553963578328 0.99144433492993866 0.001267914553963578328 0.76296445351697739
0.001596209851982166583 1.18079823705212705 0.001596209851982166583 0.88975600667250510
0.002009509145224797066 1.40118540557384086 0.002009509145224797066 1.03329444774137147
0.002529822128138903281 1.65663810572090164 0.002529822128138903281 1.19518567252029917
0.003184857364431081805 1.95157446989929007 0.003184857364431081805 1.37719723932932503
0.004009497869020606231 2.29084016848034588 0.004009497869020606231 1.58130107753904192
0.005047658755842121536 2.67976061188268888 0.005047658755842121536 1.80972171117170189
0.006354625877790454069 3.12420472909611169 0.006354625877790454069 2.06498819149245882
0.008000000000009777068 3.63066094432751063 0.008000000000009777068 2.34998816102416841
0.010071403294347192059 4.20632565350487475 0.010071403294347192059 2.66802300375268775
0.012679145539706837553 4.85920431711164280 0.012679145539706837553 3.02286311557276877
0.015962098519750611558 5.59822499234029447 0.015962098519750611558 3.41880073299204401
0.020095091452091651263 6.43336319413418156 0.020095091452091651263 3.86069575377121810
0.025298221281360611101 7.37577573911100437 0.025298221281360611101 4.35401633668594190
0.031848573644296607199 8.43794319239361634 0.031848573644296607199 4.90490086309389017
0.040094978690177640601 9.63383067947756899 0.040094978690177640601 5.52029135292135376
0.050476587558421215363 10.97908955391726771 0.050476587558421215363 6.20813997026684827
0.063546258777961384112 12.49131015465849970 0.063546258777961384112 6.97751575515361377
0.079999999999998294697 14.19026818759020792 0.079999999999998294697 7.83823675775959572
0.100714032943542974863 16.09800201162708788 0.100714032943542974863 8.79968734207203340
0.126791455396897845276 18.23850644492087270 0.126791455396897845276 9.86887006880128048
0.159620985197506115583 20.63690301773470637 0.159620985197506115583 11.04836986450736269
0.200950914520760193227 23.31818418078022859 0.200950914520760193227 12.33522487228609066
0.252982212813478213320 26.30584867872676469 0.252982212813478213320 13.72160119822233959
0.318485736442795541734 29.62093701742879759 0.318485736442795541734 15.19619658054497080
0.400949786901833249431 33.28128828029305453 0.400949786901833249431 16.74878281813914072
0.504765875584155310207 37.30262811759317998 0.504765875584155310207 18.37172528636812885
0.635462587779443310865 41.69847783224206950 0.635462587779443310865 20.06205519486488598
0.799999999999997157829 46.48212372757509314 0.799999999999997157829 21.82446699476885854
1.007140329435344483500 51.66780567487943188 1.007140329435344483500 23.67506005078328712
1.267914553968893187630 57.27424742027266547 1.267914553968893187630 25.62039231904102365
1.596209851975103788391 63.31613982102108196 1.596209851975103788391 27.69877652805363155
2.009509145207672986544 69.82612049502311891 2.009509145207672986544 29.92717058089499105
2.529822128134711078928 76.82200010563504122 2.529822128134711078928 32.34385811396281696
3.184857364427998049905 84.34722821923453751 3.184857364427998049905 35.00188925380625449
4.009497869018190385759 92.43502943002042116 4.009497869018190385759 37.91452473662886291
5.009497869018204596614 100.82759728894303919 5.009497869018204596614 40.99097536954085541
6.009497869018204596614 108.12426836160770449 6.009497869018204596614 43.69170433809220100
7.009497869018204596614 114.60868221791571386 7.009497869018204596614 46.09707694161846092
8.009497869018204596614 120.45884564150374274 8.009497869018204596614 48.25265900958395093
9.009497869018204596614 125.79510567478067173 9.009497869018204596614 50.19856054356785080
10.009497869018190385759 130.70360860475625486 10.009497869018190385759 51.96124337306254404
11.009497869018190385759 135.24875142760973290 11.009497869018190385759 53.55152325126536539
12.009497869018190385759 139.48036022821173674 12.009497869018190385759 55.00418929471969420
13.009497869018190385759 143.43783193645182905 13.009497869018190385759 56.33460216864632741
14.009497869018190385759 147.15345538523760638 14.009497869018190385759 57.55396195451012176
15.009497869018190385759 150.65326880088872485 15.009497869018190385759 58.67565132633967551
16.009497869018204596614 153.95888373450537756 16.009497869018204596614 59.71127249614373511
17.009497869018204596614 157.08925959105644665 17.009497869018204596614 60.67152005816137006
18.009497869018204596614 160.06082359192066633 18.009497869018204596614 61.56783352951304522
19.009497869018204596614 162.88753020365172119 19.009497869018204596614 62.40260021144788993
20.009497869018204596614 165.58199764364340467 20.009497869018204596614 63.18034236187450148
21.009497869018204596614 168.15453097158433593 21.009497869018204596614 63.90469900123025582
22.009497869018190385759 170.61393376766142183 22.009497869018190385759 64.58212899434248300
23.009497869018190385759 172.96828378311616348 23.009497869018190385759 65.21477998031616607
24.009497869018190385759 175.22504113661008773 24.009497869018190385759 65.80982310899059939
25.009497869018190385759 177.39121859767200817 25.009497869018190385759 66.37032315442606034
26.009497869018190385759 179.47298562323547344 26.009497869018190385759 66.89938802373619353
27.009497869018204596614 181.47597123300465682 27.009497869018204596614 67.40102371973242157
28.009497869018190385759 183.40505420305154871 28.009497869018190385759 67.87621665240959601
29.009497869018190385759 185.26460659375905493 29.009497869018190385759 68.32261423324329996
30.009497869018190385759 187.05868873001625730 30.009497869018190385759 68.74996221454070167
31.009497869018190385759 188.79102020162375197 31.009497869018190385759 69.15472676106261929
32.009497869018190385759 190.46502671997146194 32.009497869018190385759 69.53855864687297128
33.009497869018218807469 192.08389396229966906 33.009497869018218807469 69.90037062090627273
34.009497869018190385759 193.65066048313582314 34.009497869018190385759 70.24881058285129143
35.009497869018218807469 195.16803974765315388 35.009497869018218807469 70.57942583500521039
36.009497869018190385759 196.63854092959795139 36.009497869018190385759 70.89797688813979448
37.009497869018218807469 198.06448858230078258 37.009497869018218807469 71.20351740469531876
38.009497869018190385759 199.44809533249289757 38.009497869018190385759 71.49735184146538813
39.009497869018190385759 200.79138615596866657 39.009497869018190385759 71.78080328496889706
40.009497869018190385759 202.09625705871260948 40.009497869018190385759 72.05236034402491896
41.009497869018190385759 203.36452763458686377 41.009497869018190385759 72.31616916855509203
42.009497869018190385759 204.59786471539538866 42.009497869018190385759 72.56579890727904569
43.009497869018190385759 205.79784123982187793 43.009497869018190385759 72.81144980342202189
44.009497869018218807469 206.96597215695055638 44.009497869018218807469 73.03923310887992670
46.009497869018218807469 209.21232296001895179 46.009497869018218807469 73.47418783355423955
48.009497869018218807469 211.34658481974310007 48.009497869018218807469 73.87357734183218838
50.009497869018218807469 213.37645179487097380 50.009497869018218807469 74.21829187908140568
52.009497869018190385759 215.30959610752657341 52.009497869018190385759 74.52426329447615672
54.009497869018190385759 217.15331707209460887 54.009497869018190385759 74.79783718091267986
56.009497869018190385759 218.91339884970307139 56.009497869018190385759 75.04011253655704650
58.009497869018190385759 220.59482882967597561 58.009497869018190385759 75.25240692254510577
60.009497869018190385759 222.20257101579721848 60.009497869018190385759 75.47453394077481903
62.009497869018190385759 223.74079898105765096 62.009497869018190385759 75.68661110349219712
64.009497869018190385759 225.21388707871315660 64.009497869018190385759 75.88858242211782112
66.009497869018218807469 226.62773303945579073 66.009497869018218807469 76.10191103595127515
68.009497869018218807469 227.98744249970360443 68.009497869018218807469 76.31586866375069178
70.009497869018218807469 229.29604930382896555 70.009497869018218807469 76.49241010587748235
72.009497869018218807469 230.55672568279010193 72.009497869018218807469 76.61292337099840211
74.009497869018190385759 231.77241322328725914 74.009497869018190385759 76.72214039763106541
76.009497869018190385759 232.94548155442893744 76.009497869018190385759 76.81733395900977257
78.009497869018190385759 234.07897256043798961 78.009497869018190385759 76.93432051636420965
80.009497869018190385759 235.17476877972828220 80.009497869018190385759 76.99258418864147302
82.009497869018190385759 236.23284001395120413 82.009497869018190385759 77.07137463002885625
84.009497869018190385759 237.25366563475935777 84.009497869018190385759 77.13312472269090847
86.009497869018190385759 238.23809058043215714 86.009497869018190385759 77.11690018918501721
88.009497869018218807469 239.18858692274571354 88.009497869018218807469 77.12475621404308868
91.009497869018190385759 240.55295940638819729 91.009497869018190385759 77.09514579166513215
94.009497869018218807469 241.84851567814649798 94.009497869018218807469 77.12089083316483595
97.009497869018190385759 243.08459213616950478 97.009497869018190385759 77.23894110830948989
99.504748934509109403734 244.07406933898363377 99.504748934509109403734 77.29700356120518734
nan nan nan nan

