Time Pressure difference Time.1 Pressure.1 difference.1
(hr) (psi) (hr) (psi)
0.000200000000006639311 0.49001496612554524 0.000200000000006639311 0.38696198561834866
0.000399999999999067768 0.88940736102838169 0.000399999999999067768 0.76544419456228141
0.000600000000005707079 1.24465099158837056 0.000600000000005707079 1.02517836659547079
0.000799999999998135536 1.56999427919189061 0.000799999999998135536 1.25860392851546354
0.001007140329434719206 1.88332736893501229 0.001007140329434719206 1.47915187536619497
0.001267914553963578328 2.25116184284091947 0.001267914553963578328 1.73237811210325443
0.001596209851982166583 2.68110658530659407 0.001596209851982166583 2.02026952103286472
0.002009509145224797066 3.18151509736178006 0.002009509145224797066 2.34618621663629057
0.002529822128138903281 3.76154299298981165 0.002529822128138903281 2.71377452701667954
0.003184857364431081805 4.43122203165368234 0.003184857364431081805 3.12704784930070279
0.004009497869020606231 5.20155473549066816 0.004009497869020606231 3.59048362311805969
0.005047658755842121536 6.08463291874539891 0.005047658755842121536 4.10913282654280554
0.006354625877790454069 7.09378250253587783 0.006354625877790454069 4.68873789362405358
0.008000000000009777068 8.24373602653187731 0.008000000000009777068 5.33585547150193484
0.010071403294347192059 9.55083354266400875 0.010071403294347192059 6.05798164381492565
0.012679145539706837553 11.03325215532408521 0.012679145539706837553 6.86367742712405171
0.015962098519750611558 12.71126380613737439 0.015962098519750611558 7.76268872314664193
0.020095091452091651263 14.60751878197526032 0.020095091452091651263 8.76605035856288417
0.025298221281360611101 16.74734961939322275 0.025298221281360611101 9.88617827035749208
0.031848573644296607199 19.15909454272903290 0.031848573644296607199 11.13701019502494916
0.040094978690177640601 21.87446260163730116 0.040094978690177640601 12.53430860133907387
0.050476587558421215363 24.92899157536509236 0.050476587558421215363 14.09612957954708001
0.063546258777961384112 28.36262188057753164 0.063546258777961384112 15.84306518523114704
0.079999999999998294697 32.22025600241070720 0.079999999999998294697 17.79740816761884759
0.100714032943542974863 36.55193397934149857 0.100714032943542974863 19.98046655317532228
0.126791455396897845276 41.41213816317326746 0.126791455396897845276 22.40814027386643659
0.159620985197506115583 46.85790920497409218 0.159620985197506115583 25.08629863352848233
0.200950914520760193227 52.94599466930098686 0.200950914520760193227 28.00821647472018583
0.252982212813478213320 59.72975052934430096 0.252982212813478213320 31.15610625008131152
0.318485736442795541734 67.25695111016185024 0.318485736442795541734 34.50430517700210942
0.400949786901833249431 75.56810162466540248 0.400949786901833249431 38.02958922236298633
0.504765875584155310207 84.69890854935863445 0.504765875584155310207 41.71462329728293383
0.635462587779443310865 94.68007319556139123 0.635462587779443310865 45.55266650128144335
0.799999999999997157829 105.54176328731756485 0.799999999999997157829 49.55437799988694536
1.007140329435344483500 117.31631170884388382 1.007140329435344483500 53.75631282119028498
1.267914553968893187630 130.04623237779560441 1.267914553968893187630 58.17336138323432237
1.596209851975103788391 143.76488218184783818 1.596209851975103788391 62.89251611663942754
2.009509145207672986544 158.54636771222897096 2.009509145207672986544 67.95228143662038178
2.529822128134711078928 174.43112965161839156 2.529822128134711078928 73.43958371758617432
3.184857364427998049905 191.51782407426196642 3.184857364427998049905 79.47487795276008171
4.009497869018190385759 209.88189035286990247 4.009497869018190385759 86.08827381375731136
5.009497869018204596614 228.93795619724716062 5.009497869018204596614 93.07362642731041547
6.009497869018204596614 245.50569169165041217 6.009497869018204596614 99.20586985002111646
7.009497869018204596614 260.22912550656155872 7.009497869018204596614 104.66748058508662211
8.009497869018204596614 273.51243775070855691 8.009497869018204596614 109.56191986882002709
9.009497869018204596614 285.62888700273731502 9.009497869018204596614 113.98026099892466334
10.009497869018190385759 296.77407600844657054 10.009497869018190385759 117.98258789413024772
11.009497869018190385759 307.09422382974918264 11.009497869018190385759 121.59345867640254824
12.009497869018190385759 316.70246498876315400 12.009497869018190385759 124.89186510448118383
13.009497869018190385759 325.68825369100238731 13.009497869018190385759 127.91268492410284807
14.009497869018190385759 334.12490458059829734 14.009497869018190385759 130.68134890847591123
15.009497869018190385759 342.07153974790031725 15.009497869018190385759 133.22824359980657505
16.009497869018204596614 349.57723012658277639 16.009497869018204596614 135.57971284418519531
17.009497869018204596614 356.68502471851644486 17.009497869018204596614 137.76003966147229107
18.009497869018204596614 363.43222297930219611 18.009497869018204596614 139.79519848465903920
19.009497869018204596614 369.85050975652688976 19.009497869018204596614 141.69060989187579480
20.009497869018204596614 375.96853582615500500 20.009497869018204596614 143.45654206872680447
21.009497869018204596614 381.80969973547973950 21.009497869018204596614 145.10125773220516976
22.009497869018190385759 387.39399079010183868 22.009497869018190385759 146.63942230480120088
23.009497869018190385759 392.73975023695783193 23.009497869018190385759 148.07591219060023491
24.009497869018190385759 397.86391693371467682 24.009497869018190385759 149.42701011806099132
25.009497869018190385759 402.78241399236117104 25.009497869018190385759 150.69967492710858892
26.009497869018190385759 407.50924970922875445 26.009497869018190385759 151.90096339507158518
27.009497869018204596614 412.05720527023407840 27.009497869018204596614 153.03997150480418554
28.009497869018190385759 416.43735836692889052 28.009497869018190385759 154.11893898723593566
29.009497869018190385759 420.65963614818235783 29.009497869018190385759 155.13252408254066950
30.009497869018190385759 424.73325793991926957 30.009497869018190385759 156.10285538125125981
31.009497869018190385759 428.66666939898101418 31.009497869018190385759 157.02190899864808671
32.009497869018190385759 432.46764890534694814 32.009497869018190385759 157.89343316289978247
33.009497869018218807469 436.14342982028040296 33.009497869018218807469 158.71495917452836011
34.009497869018190385759 439.70091144994370325 34.009497869018190385759 159.50612285282707603
35.009497869018218807469 443.14625495643593922 35.009497869018218807469 160.25681395477653268
36.009497869018190385759 446.48515764014598517 36.009497869018190385759 160.98011222836447587
37.009497869018218807469 449.72289760451820939 37.009497869018218807469 161.67386893066114339
38.009497869018190385759 452.86449881377797055 38.009497869018190385759 162.34104594591553905
39.009497869018190385759 455.91455915414064748 39.009497869018190385759 162.98464745881170757
40.009497869018190385759 458.87738367448861254 40.009497869018190385759 163.60124172231542161
41.009497869018190385759 461.75710392323838960 41.009497869018190385759 164.20024293566038409
42.009497869018190385759 464.55750458907431266 42.009497869018190385759 164.76704928358654456
43.009497869018190385759 467.28215716806619184 43.009497869018190385759 165.32482131835826067
44.009497869018218807469 469.93450148578187964 44.009497869018218807469 165.84202341192735730
46.009497869018218807469 475.03503919157236624 46.009497869018218807469 166.82962649265843424
48.009497869018218807469 479.88106906129905838 48.009497869018218807469 167.73647561145423879
50.009497869018218807469 484.49006113423649822 50.009497869018218807469 168.51918038426720159
52.009497869018190385759 488.87943586767789839 52.009497869018190385759 169.21391548039878217
54.009497869018190385759 493.06576699899130745 54.009497869018190385759 169.83508912842526684
56.009497869018190385759 497.06218797638462092 56.009497869018190385759 170.38519670065304012
58.009497869018190385759 500.88002310738193046 58.009497869018190385759 170.86722983589652358
60.009497869018190385759 504.53054360057478789 60.009497869018190385759 171.37158883022988221
62.009497869018190385759 508.02322592169565496 62.009497869018190385759 171.85312874087051682
64.009497869018190385759 511.36800242578397047 64.009497869018190385759 172.31172244080869405
66.009497869018218807469 514.57826443076430678 66.009497869018218807469 172.79610388163055745
68.009497869018218807469 517.66560473462118352 68.009497869018218807469 173.28191355416333863
70.009497869018218807469 520.63691194869397805 70.009497869018218807469 173.68276647569828697
72.009497869018218807469 523.49938890327644003 72.009497869018218807469 173.95640247767872211
74.009497869018190385759 526.25971473052288729 74.009497869018190385759 174.20438937344465558
76.009497869018190385759 528.92326988240927221 76.009497869018190385759 174.42053475398688533
78.009497869018190385759 531.49696122546515653 78.009497869018190385759 174.68616305480341566
80.009497869018190385759 533.98506322926539269 80.009497869018190385759 174.81845586362123868
82.009497869018190385759 536.38750732579512714 82.009497869018190385759 174.99735651288904137
84.009497869018190385759 538.70538197068890440 84.009497869018190385759 175.13756554681583566
86.009497869018190385759 540.94060567086353331 86.009497869018190385759 175.10072631191425785
88.009497869018218807469 543.09879148341076416 88.009497869018218807469 175.11856410953313912
91.009497869018190385759 546.19671959332845290 91.009497869018190385759 175.05133103283964147
94.009497869018218807469 549.13839442214441533 94.009497869018218807469 175.10978742118604146
97.009497869018190385759 551.94501508565542736 97.009497869018190385759 175.37783098710272611
99.504748934509109403734 554.19171038145691455 99.504748934509109403734 175.50966690956002481
nan nan nan nan

