Time Pressure difference Time.1 Pressure.1 difference.1
(hr) (psi) (hr) (psi)
0.000200000000006639311 0.20057607421719209 0.000200000000006639311 0.15839376613393547
0.000399999999999067768 0.36405793534322356 0.000399999999999067768 0.31331653559803230
0.000600000000005707079 0.50946854059834867 0.000600000000005707079 0.41963259565306832
0.000799999999998135536 0.64264014536870129 0.000799999999998135536 0.51517984638715864
0.001007140329434719206 0.77089565878687039 0.001007140329434719206 0.60545594898409016
0.001267914553963578328 0.92146002893488410 0.001267914553963578328 0.70910813915107307
0.001596209851982166583 1.09744777326021214 0.001596209851982166583 0.82694970031915183
0.002009509145224797066 1.30227820047451104 0.002009509145224797066 0.96035601613609822
0.002529822128138903281 1.53969894531707308 0.002529822128138903281 1.11081962504827825
0.003184857364431081805 1.81381627202404627 0.003184857364431081805 1.27998331655313735
0.004009497869020606231 2.12913380364643912 0.004009497869020606231 1.46967982500687411
0.005047658755842121536 2.49060103927920506 0.005047658755842121536 1.68197664920664058
0.006354625877790454069 2.90367263057168046 0.006354625877790454069 1.91922431915181435
0.008000000000009777068 3.37437899531615670 0.008000000000009777068 2.18410664377540353
0.010071403294347192059 3.90940854855158948 0.010071403294347192059 2.47969196819367443
0.012679145539706837553 4.51620165943317442 0.012679145539706837553 2.80948454270880843
0.015962098519750611558 5.20305616935156756 0.015962098519750611558 3.17747362242790032
0.020095091452091651263 5.97924343925412138 0.020095091452091651263 3.58817605350501445
0.025298221281360611101 6.85513274576199283 0.025298221281360611101 4.04667400703752200
0.031848573644296607199 7.84232367293053834 0.031848573644296607199 4.55867256687549727
0.040094978690177640601 8.95379557269091642 0.040094978690177640601 5.13062372800925814
0.050476587558421215363 10.20409499717016821 0.050476587558421215363 5.76991832530683535
0.063546258777961384112 11.60957061432966242 0.063546258777961384112 6.48498523126041793
0.079999999999998294697 13.18860219787795707 0.079999999999998294697 7.28494945721186049
0.100714032943542974863 14.96167245786517519 0.100714032943542974863 8.17853294145518284
0.126791455396897845276 16.95108246057351664 0.126791455396897845276 9.17224394629766060
0.159620985197506115583 19.18018045177696251 0.159620985197506115583 10.26848493289507758
0.200950914520760193227 21.67219470919573965 0.200950914520760193227 11.46450311659530819
0.252982212813478213320 24.44896524258134463 0.252982212813478213320 12.75301758423017695
0.318485736442795541734 27.53004734561029210 0.318485736442795541734 14.12352388074179821
0.400949786901833249431 30.93202087227236419 0.400949786901833249431 15.56651579568226040
0.504765875584155310207 34.66950142693954007 0.504765875584155310207 17.07489761909508630
0.635462587779443310865 38.75505586761320842 0.635462587779443310865 18.64591012228618894
0.799999999999997157829 43.20103264092273321 0.799999999999997157829 20.28391638337341618
1.007140329435344483500 48.02066645077029250 1.007140329435344483500 22.00387934131623524
1.267914553968893187630 53.23135936707694782 1.267914553968893187630 23.81189403769694835
1.596209851975103788391 58.84676524541958997 1.596209851975103788391 25.74356877313219982
2.009509145207672986544 64.89721787184501522 2.009509145207672986544 27.81466442224358104
2.529822128134711078928 71.39927068641374319 2.529822128134711078928 30.06076224709486056
3.184857364427998049905 78.39330622728856213 3.184857364427998049905 32.53116765941993549
4.009497869018190385759 85.91020382319545945 4.009497869018190385759 35.23820534345505706
5.009497869018204596614 93.71035512737059037 5.009497869018204596614 38.09749475522032469
6.009497869018204596614 100.49196706549422231 6.009497869018204596614 40.60758403187392673
7.009497869018204596614 106.51865759076872564 7.009497869018204596614 42.84316562809244999
8.009497869018204596614 111.95586830210348239 8.009497869018204596614 44.84658896184861021
9.009497869018204596614 116.91545115656086296 9.009497869018204596614 46.65513274049247627
10.009497869018190385759 121.47747152677345639 10.009497869018190385759 48.29339089966989462
11.009497869018190385759 125.70178073860201096 11.009497869018190385759 49.77141572764663380
12.009497869018190385759 129.63468774151442631 12.009497869018190385759 51.12154063862183051
13.009497869018190385759 133.31280850564345997 13.009497869018190385759 52.35804201556540960
14.009497869018190385759 136.76615265216202033 14.009497869018190385759 53.49132934595646560
15.009497869018190385759 140.01892041494363639 15.009497869018190385759 54.53384064448040647
16.009497869018204596614 143.09119782383439201 16.009497869018204596614 55.49635914347476273
17.009497869018204596614 146.00060597286423558 17.009497869018204596614 56.38882452464409312
18.009497869018204596614 148.76241251484393047 18.009497869018204596614 57.22186880978271972
19.009497869018204596614 151.38958689515868627 19.009497869018204596614 57.99771078475745867
20.009497869018204596614 153.89385663350384448 20.009497869018204596614 58.72055348927159457
21.009497869018204596614 156.28479937359014684 21.009497869018204596614 59.39377907173165028
22.009497869018190385759 158.57059726641475095 22.009497869018190385759 60.02339047709477882
23.009497869018190385759 160.75875786901380593 23.009497869018190385759 60.61138374641149795
24.009497869018190385759 162.85621470343761530 24.009497869018190385759 61.16442383070890543
25.009497869018190385759 164.86948552018930059 25.009497869018190385759 61.68535916705481270
26.009497869018190385759 166.80430428512474350 26.009497869018190385759 62.17707828088423128
27.009497869018204596614 168.66590267538077796 27.009497869018204596614 62.64330439833953790
28.009497869018190385759 170.45881508283616768 28.009497869018190385759 63.08495430047481278
29.009497869018190385759 172.18710495184666343 29.009497869018190385759 63.49984146383789607
30.009497869018190385759 173.85454599613277082 30.009497869018190385759 63.89702370527900399
31.009497869018190385759 175.46459524621502624 31.009497869018190385759 64.27321663675230923
32.009497869018190385759 177.02043659856170166 32.009497869018190385759 64.62995450709370004
33.009497869018218807469 178.52503085907849822 33.009497869018218807469 64.96622681237170127
34.009497869018190385759 179.98120209609095355 34.009497869018190385759 65.29007101229709065
35.009497869018218807469 181.39147223605408499 35.009497869018218807469 65.59734871724013772
36.009497869018190385759 182.75817333456751612 36.009497869018190385759 65.89341381368285511
37.009497869018218807469 184.08346585884422097 37.009497869018218807469 66.17738676436387379
38.009497869018190385759 185.36940625019926188 38.009497869018190385759 66.45047994677371150
39.009497869018190385759 186.61787654495913102 39.009497869018190385759 66.71392305308873460
40.009497869018190385759 187.83063891339173779 40.009497869018190385759 66.96631137856434179
41.009497869018190385759 189.00938450743953467 41.009497869018190385759 67.21149840371590756
42.009497869018190385759 190.15566250019102768 42.009497869018190385759 67.44350721970641871
43.009497869018190385759 191.27093479936385734 43.009497869018190385759 67.67181805259224348
44.009497869018218807469 192.35660941645994626 44.009497869018218807469 67.88352253648839962
46.009497869018218807469 194.44439428048821128 46.009497869018218807469 68.28777457471512946
48.009497869018218807469 196.42800236187889595 48.009497869018218807469 68.65897188240873561
50.009497869018218807469 198.31458460935067478 50.009497869018218807469 68.97935362879330512
52.009497869018190385759 200.11127167640705693 52.009497869018190385759 69.26372706192488238
54.009497869018190385759 201.82484763171146369 54.009497869018190385759 69.51798985049532575
56.009497869018190385759 203.46068834266520753 56.009497869018190385759 69.74316341632949445
58.009497869018190385759 205.02342914758119718 58.009497869018190385759 69.94047231624779215
60.009497869018190385759 206.51768364997622029 60.009497869018190385759 70.14691978024954722
62.009497869018190385759 207.94733081768887928 62.009497869018190385759 70.34402679030451111
64.009497869018190385759 209.31643622609809086 64.009497869018190385759 70.53174130996832503
66.009497869018218807469 210.63048129549420651 66.009497869018218807469 70.73001143341353725
68.009497869018218807469 211.89421126443042454 68.009497869018218807469 70.92886616983888359
70.009497869018218807469 213.11044582355867760 70.009497869018218807469 71.09294586310966224
72.009497869018218807469 214.28213328165199414 72.009497869018218807469 71.20495230951615895
74.009497869018190385759 215.41200758399639881 74.009497869018190385759 71.30645989897475090
76.009497869018190385759 216.50227109176336171 76.009497869018190385759 71.39493391484437268
78.009497869018190385759 217.55575096793648981 78.009497869018190385759 71.50366259756201259
80.009497869018190385759 218.57419686586510466 80.009497869018190385759 71.55781354003148920
82.009497869018190385759 219.55758071884878291 82.009497869018190385759 71.63104230320328725
84.009497869018190385759 220.50634806054105752 84.009497869018190385759 71.68843356579509418
86.009497869018190385759 221.42128418651932975 86.009497869018190385759 71.67335429347785691
88.009497869018218807469 222.30468666937539979 88.009497869018218807469 71.68065577540475886
91.009497869018190385759 223.57275050711371023 91.009497869018190385759 71.65313550048877289
94.009497869018218807469 224.77685574792440093 94.009497869018218807469 71.67706324494143644
97.009497869018190385759 225.92567975008694248 97.009497869018190385759 71.78678055948763870
99.504748934509109403734 226.84531150329064531 99.504748934509109403734 71.84074448629658605
nan nan nan nan

