Time Pressure difference Time.1 Pressure.1 difference.1
(hr) (psi) (hr) (psi)
0.000200000000006639311 0.51350013937249506 0.000200000000006639311 0.40550809114668923
0.000399999999999067768 0.93203439776160724 0.000399999999999067768 0.80212999145192443
0.000600000000005707079 1.30430395362045570 0.000600000000005707079 1.07431256292193766
0.000799999999998135536 1.64524011899771949 0.000799999999998135536 1.31892561938990927
0.001007140329434719206 1.97359046822334849 0.001007140329434719206 1.55004386939281313
0.001267914553963578328 2.35905431458329540 0.001267914553963578328 1.81540659675069049
0.001596209851982166583 2.80960521698579635 0.001596209851982166583 2.11709590999428432
0.002009509145224797066 3.33399703855658025 0.002009509145224797066 2.45863296536108678
0.002529822128138903281 3.94182419861238031 0.002529822128138903281 2.84383885020271210
0.003184857364431081805 4.64359925337801638 0.003184857364431081805 3.27691931358065869
0.004009497869020606231 5.45085204794294054 0.004009497869020606231 3.76256638743848493
0.005047658755842121536 6.37625392650910339 0.005047658755842121536 4.30607313040560857
0.006354625877790454069 7.43376948776104296 0.006354625877790454069 4.91345719681587934
0.008000000000009777068 8.63883736459104767 0.008000000000009777068 5.59158947726044797
0.010071403294347192059 10.00858074613365645 0.010071403294347192059 6.34832532363507074
0.012679145539706837553 11.56204791924505670 0.012679145539706837553 7.19263606028932401
0.015962098519750611558 13.32048240824499352 0.015962098519750611558 8.13473468526636445
0.020095091452091651263 15.30762007074868514 0.020095091452091651263 9.18618489647328040
0.025298221281360611101 17.55000756747294943 0.025298221281360611101 10.35999769523214020
0.031848573644296607199 20.07734130190128141 0.031848573644296607199 11.67077881836163833
0.040094978690177640601 22.92285005793339181 0.040094978690177640601 13.13504618974522131
0.050476587558421215363 26.12377485035020541 0.050476587558421215363 14.77172128219376646
0.063546258777961384112 29.72197033858448734 0.063546258777961384112 16.60238307623315634
0.079999999999998294697 33.76449106988375348 0.079999999999998294697 18.65039275596327428
0.100714032943542974863 38.30377537472445226 0.100714032943542974863 20.93807958745963305
0.126791455396897845276 43.39691680570877708 0.126791455396897845276 23.48210554605951828
0.159620985197506115583 49.10368982749228195 0.159620985197506115583 26.28862123643074966
0.200950914520760193227 55.48356177132706790 0.200950914520760193227 29.35057918141014000
0.252982212813478213320 62.59244582673515112 0.252982212813478213320 32.64933932165256891
0.318485736442795541734 70.48040602088204309 0.318485736442795541734 36.15800892253200516
0.400949786901833249431 79.18988887869728899 0.400949786901833249431 39.85225088198401977
0.504765875584155310207 88.75831219744965495 0.504765875584155310207 43.71389928432887473
0.635462587779443310865 99.21784872436421665 0.635462587779443310865 47.73589015484027698
0.799999999999997157829 110.60011204590661293 0.799999999999997157829 51.92939352578826373
1.007140329435344483500 122.93898467934546659 1.007140329435344483500 56.33271641495200299
1.267914553968893187630 136.27901812647232305 1.267914553968893187630 60.96146290030643655
1.596209851975103788391 150.65516798590013536 1.596209851975103788391 65.90679473880996397
2.009509145207672986544 166.14509258962854688 2.009509145207672986544 71.20906176454131753
2.529822128134711078928 182.79117083958453804 2.529822128134711078928 76.95935651234096042
3.184857364427998049905 200.69678714517866069 3.184857364427998049905 83.28390707743901089
4.009497869018190385759 219.94099649672509145 4.009497869018190385759 90.21426621156690828
5.009497869018204596614 239.91037119633801922 5.009497869018204596614 97.53440904105457321
6.009497869018204596614 257.27215618982535261 6.009497869018204596614 103.96055532210760930
7.009497869018204596614 272.70124680674649653 7.009497869018204596614 109.68392719343921726
8.009497869018204596614 286.62119448228389729 8.009497869018204596614 114.81294452574533693
9.009497869018204596614 299.31835438499285829 9.009497869018204596614 119.44304552866586278
10.009497869018190385759 310.99770400367003731 10.009497869018190385759 123.63719379061058135
11.009497869018190385759 321.81247030863613645 11.009497869018190385759 127.42112444198143351
12.009497869018190385759 331.88121007242148153 12.009497869018190385759 130.87761511596539776
13.009497869018190385759 341.29766481349861351 13.009497869018190385759 134.04321516010259074
14.009497869018190385759 350.13866296075650553 14.009497869018190385759 136.94457417999612403
15.009497869018190385759 358.46616017623227890 15.009497869018190385759 139.61353506767292743
16.009497869018204596614 366.33157923886716389 16.009497869018204596614 142.07770426288317367
17.009497869018204596614 373.78003237989611307 17.009497869018204596614 144.36252860897806727
18.009497869018204596614 380.85060672312886254 18.009497869018204596614 146.49522742757662286
19.009497869018204596614 387.57650569045370048 19.009497869018204596614 148.48148109135689765
20.009497869018204596614 393.98775321678675709 20.009497869018204596614 150.33204991398963557
21.009497869018204596614 400.10886928238738847 21.009497869018204596614 152.05559262351553684
22.009497869018190385759 405.96080122952378133 22.009497869018190385759 153.66747751889138840
23.009497869018190385759 411.56276935453223587 23.009497869018190385759 155.17281471786995439
24.009497869018190385759 416.93252435152220414 24.009497869018190385759 156.58866733874526744
25.009497869018190385759 422.08675248681373660 25.009497869018190385759 157.92232774097257675
26.009497869018190385759 427.04013343881615583 26.009497869018190385759 159.18119091530169840
27.009497869018204596614 431.80606096323754173 27.009497869018204596614 160.37478879195154491
28.009497869018190385759 436.39614367726090904 28.009497869018190385759 161.50546844646871136
29.009497869018190385759 440.82078451279727460 29.009497869018190385759 162.56763210204067605
30.009497869018190385759 445.08964465465641069 30.009497869018190385759 163.58446891636302212
31.009497869018190385759 449.21157453856943675 31.009497869018190385759 164.54757044029312851
32.009497869018190385759 453.19472534252037121 32.009497869018190385759 165.46086454505947927
33.009497869018218807469 457.04667710441304962 33.009497869018218807469 166.32176421268579247
34.009497869018190385759 460.77465979663793405 34.009497869018190385759 167.15084635743147601
35.009497869018218807469 464.38512987015116096 35.009497869018218807469 167.93751617799770770
36.009497869018190385759 467.88405768248458116 36.009497869018190385759 168.69548030148555995
37.009497869018218807469 471.27697430318033867 37.009497869018218807469 169.42248700117207250
38.009497869018190385759 474.56914448231395909 38.009497869018190385759 170.12164011689856125
39.009497869018190385759 477.76538647111374303 39.009497869018190385759 170.79608781629360692
40.009497869018190385759 480.87021164852501443 40.009497869018190385759 171.44223387740046860
41.009497869018190385759 483.88794957759046156 41.009497869018190385759 172.06994369812076684
42.009497869018190385759 486.82256633751438812 42.009497869018190385759 172.66391563526102004
43.009497869018190385759 489.67780459710553487 43.009497869018190385759 173.24842026755419511
44.009497869018218807469 492.45726904403829849 44.009497869018218807469 173.79041054436427771
46.009497869018218807469 497.80226257251570132 46.009497869018218807469 174.82534693336876330
48.009497869018218807469 502.88055035050643937 48.009497869018218807469 175.77565902806537679
50.009497869018218807469 507.71043971191363653 50.009497869018218807469 176.59587685346133412
52.009497869018190385759 512.31018603232053010 52.009497869018190385759 177.32390883891531530
54.009497869018190385759 516.69715738624859114 54.009497869018190385759 177.97485376281869662
56.009497869018190385759 520.88511667473460420 56.009497869018190385759 178.55132659433721187
58.009497869018190385759 524.88593095061128224 58.009497869018190385759 179.05646235393817278
60.009497869018190385759 528.71141162288211035 60.009497869018190385759 179.58499399437303623
62.009497869018190385759 532.37148934022241065 62.009497869018190385759 180.08961289036821540
64.009497869018190385759 535.87657249023220629 64.009497869018190385759 180.57018582203917845
66.009497869018218807469 539.24069420270507180 66.009497869018218807469 181.07778243554290043
68.009497869018218807469 542.47600288900059695 68.009497869018218807469 181.58687573227740586
70.009497869018218807469 545.58971731411065775 70.009497869018218807469 182.00694051663202799
72.009497869018218807469 548.58938552169763625 72.009497869018218807469 182.29369119746385763
74.009497869018190385759 551.48200675776297430 74.009497869018190385759 182.55356347553978935
76.009497869018190385759 554.27321934568533379 76.009497869018190385759 182.78006815540854291
78.009497869018190385759 556.97026118057158328 78.009497869018190385759 183.05842734629010238
80.009497869018190385759 559.57761159647111526 80.009497869018190385759 183.19706061356166060
82.009497869018190385759 562.09519873907800047 82.009497869018190385759 183.38453551674510322
84.009497869018190385759 564.52416323094212203 84.009497869018190385759 183.53146441369688091
86.009497869018190385759 566.86651552814589650 86.009497869018190385759 183.49285956779613116
88.009497869018218807469 569.12813770735670005 88.009497869018218807469 183.51155228576723744
91.009497869018190385759 572.37454164637654230 91.009497869018190385759 183.44109689840320243
94.009497869018218807469 575.45720348123688836 94.009497869018218807469 183.50235495303044786
97.009497869018190385759 578.39833834753267183 97.009497869018190385759 183.78324516653640330
99.504748934509109403734 580.75271204481691711 99.504748934509109403734 183.92139965004412261
nan nan nan nan

