Time Pressure difference Time.1 Pressure.1 difference.1
(hr) (psi) (hr) (psi)
0.000200000000006639311 0.05268295620261691 0.000200000000006639311 0.04160342591492609
0.000399999999999067768 0.09562281213128974 0.000399999999999067768 0.08229516599568569
0.000600000000005707079 0.13381610401792066 0.000600000000005707079 0.11021995392153378
0.000799999999998135536 0.16879472172658927 0.000799999999998135536 0.13531622547510810
0.001007140329434719206 0.20248208759275391 0.001007140329434719206 0.15902798660025155
0.001267914553963578328 0.24202905823289678 0.001267914553963578328 0.18625308718208566
0.001596209851982166583 0.28825368728037221 0.001596209851982166583 0.21720514280534683
0.002009509145224797066 0.34205408430184941 0.002009509145224797066 0.25224540930157008
0.002529822128138903281 0.40441459639657301 0.002529822128138903281 0.29176591417407305
0.003184857364431081805 0.47641376765188559 0.003184857364431081805 0.33619814960098227
0.004009497869020606231 0.55923451171726091 0.004009497869020606231 0.38602349834041316
0.005047658755842121536 0.65417685525371516 0.005047658755842121536 0.44178500596250364
0.006354625877790454069 0.76267350739699202 0.006354625877790454069 0.50410005851139439
0.008000000000009777068 0.88630840699759827 0.008000000000009777068 0.57367358048531170
0.010071403294347192059 1.02683832129677821 0.010071403294347192059 0.65131149797492083
0.012679145539706837553 1.18621752447137174 0.012679145539706837553 0.73793423115452883
0.015962098519750611558 1.36662551283601297 0.015962098519750611558 0.83458959070099903
0.020095091452091651263 1.57049748562687386 0.020095091452091651263 0.94246396342062089
0.025298221281360611101 1.80055701866533346 0.025298221281360611101 1.06289222336745071
0.031848573644296607199 2.05985083814314773 0.031848573644296607199 1.19737285775527313
0.040094978690177640601 2.35178807763717135 0.040094978690177640601 1.34760053615433040
0.050476587558421215363 2.68018950875039197 0.050476587558421215363 1.51551652215337773
0.063546258777961384112 3.04934924363722182 0.063546258777961384112 1.70333472846397038
0.079999999999998294697 3.46409488108819730 0.079999999999998294697 1.91345191439425433
0.100714032943542974863 3.92980637342661199 0.100714032943542974863 2.14815896879993762
0.126791455396897845276 4.45234127920127065 0.126791455396897845276 2.40916534032501817
0.159620985197506115583 5.03783220727053127 0.159620985197506115583 2.69710205515914980
0.200950914520760193227 5.69238025589635033 0.200950914520760193227 3.01124607176395731
0.252982212813478213320 6.42172188333623950 0.252982212813478213320 3.34968499838957134
0.318485736442795541734 7.23099344837232305 0.318485736442795541734 3.70965975348597832
0.400949786901833249431 8.12454978607153855 0.400949786901833249431 4.08867345266337878
0.504765875584155310207 9.10622980517715952 0.504765875584155310207 4.48486234931927896
0.635462587779443310865 10.17933429434144621 0.635462587779443310865 4.89750170933466311
0.799999999999997157829 11.34710667467274270 0.799999999999997157829 5.32773753107592807
1.007140329435344483500 12.61302315004409635 1.007140329435344483500 5.77949995357356805
1.267914553968893187630 13.98165451730185893 1.267914553968893187630 6.25438988964824905
1.596209851975103788391 15.45658707395514675 1.596209851975103788391 6.76176015243662221
2.009509145207672986544 17.04578823849093894 2.009509145207672986544 7.30575046533612937
2.529822128134711078928 18.75360590814031525 2.529822128134711078928 7.89570653958504209
3.184857364427998049905 20.59064688881313643 3.184857364427998049905 8.54457884725270311
4.009497869018190385759 22.56502189026969418 4.009497869018190385759 9.25560456805940035
5.009497869018204596614 24.61379580877139261 5.009497869018204596614 10.00662045785850296
6.009497869018204596614 26.39504198239246691 6.009497869018204596614 10.66591605900486073
7.009497869018204596614 27.97800183555001396 7.009497869018204596614 11.25310995927744706
8.009497869018204596614 29.40612996542591517 8.009497869018204596614 11.77932558175137601
9.009497869018204596614 30.70880520884351839 9.009497869018204596614 12.25435448563568208
10.009497869018190385759 31.90705739469049718 10.009497869018190385759 12.68465647048291522
11.009497869018190385759 33.01660696615179091 11.009497869018190385759 13.07287185251478157
12.009497869018190385759 34.04961734982816068 12.009497869018190385759 13.42749326900510276
13.009497869018190385759 35.01570603154559080 13.009497869018190385759 13.75227052940483929
14.009497869018190385759 35.92275528521977179 14.009497869018190385759 14.04993777124805909
15.009497869018190385759 36.77712150139342384 15.009497869018190385759 14.32376194142997861
16.009497869018204596614 37.58408044107043366 16.009497869018204596614 14.57657534464685334
17.009497869018204596614 38.34826042958142978 17.009497869018204596614 14.81098872008057121
18.009497869018204596614 39.07367164155709816 18.009497869018204596614 15.02979465573406870
19.009497869018204596614 39.76372060853850599 19.009497869018204596614 15.23357593397110321
20.009497869018204596614 40.42148766006588545 20.009497869018204596614 15.42343651775171764
21.009497869018204596614 41.04948844306323252 21.009497869018204596614 15.60026475618268016
22.009497869018190385759 41.64987206681146859 22.009497869018190385759 15.76563737214831207
23.009497869018190385759 42.22461045293717774 23.009497869018190385759 15.92007864225365132
24.009497869018190385759 42.77552474805482063 24.009497869018190385759 16.06533917072417239
25.009497869018190385759 43.30432689296110738 25.009497869018190385759 16.20216712299224326
26.009497869018190385759 43.81252296096630516 26.009497869018190385759 16.33132119402971938
27.009497869018204596614 44.30148709511583860 27.009497869018204596614 16.45377931981703057
28.009497869018190385759 44.77241029074494350 28.009497869018190385759 16.56978230044116884
29.009497869018190385759 45.22635984494706207 29.009497869018190385759 16.67875582752704133
30.009497869018190385759 45.66432695468044756 30.009497869018190385759 16.78307901119670120
31.009497869018190385759 46.08721963745520611 31.009497869018190385759 16.88188917990646232
32.009497869018190385759 46.49587416987538546 32.009497869018190385759 16.97558931673663452
33.009497869018218807469 46.89106823197315066 33.009497869018218807469 17.06391400451535389
34.009497869018190385759 47.27354358853021665 34.009497869018190385759 17.14897434816664301
35.009497869018218807469 47.64396264428003747 35.009497869018218807469 17.22968336560421321
36.009497869018190385759 48.00293793281362298 36.009497869018190385759 17.30744729916353464
37.009497869018218807469 48.35103691862047981 37.009497869018218807469 17.38203513114620691
38.009497869018190385759 48.68879974293208335 38.009497869018190385759 17.45376530247537517
39.009497869018190385759 49.01672073807470298 39.009497869018190385759 17.52296080191887739
40.009497869018190385759 49.33526275256807736 40.009497869018190385759 17.58925267221784949
41.009497869018190385759 49.64486998138443852 41.009497869018190385759 17.65365306173550763
42.009497869018190385759 49.94594932758181471 42.009497869018190385759 17.71459208618870917
43.009497869018190385759 50.23888477325063207 43.009497869018190385759 17.77455980495302512
44.009497869018218807469 50.52404614419675255 44.009497869018218807469 17.83016572952068657
46.009497869018218807469 51.07242001671050247 46.009497869018218807469 17.93634585348529953
48.009497869018218807469 51.59343100011375327 48.009497869018218807469 18.03384388050609033
50.009497869018218807469 52.08895734992438520 50.009497869018218807469 18.11799478224634186
52.009497869018190385759 52.56087199095501461 52.009497869018190385759 18.19268780423976750
54.009497869018190385759 53.01095681465838538 54.009497869018190385759 18.25947201769339046
56.009497869018190385759 53.44062383683927919 56.009497869018190385759 18.31861570745363110
58.009497869018190385759 53.85109056724442667 58.009497869018190385759 18.37044051344483009
60.009497869018190385759 54.24356880679755477 60.009497869018190385759 18.42466563848326544
62.009497869018190385759 54.61907739831701747 62.009497869018190385759 18.47643741644074211
64.009497869018190385759 54.97868419862703604 64.009497869018190385759 18.52574217951699964
66.009497869018218807469 55.32382894786714189 66.009497869018218807469 18.57781945877633945
68.009497869018218807469 55.65575802198647182 68.009497869018218807469 18.63005029144502345
70.009497869018218807469 55.97521203593472450 70.009497869018218807469 18.67314717290538795
72.009497869018218807469 56.28296538726934983 72.009497869018218807469 18.70256658762608026
74.009497869018190385759 56.57973616921424309 74.009497869018190385759 18.72922839118640326
76.009497869018190385759 56.86610285005177445 76.009497869018190385759 18.75246681940532767
78.009497869018190385759 57.14280800740103672 78.009497869018190385759 18.78102530252420266
80.009497869018190385759 57.41031120211013672 80.009497869018190385759 18.79524849310953627
82.009497869018190385759 57.66860506222926119 82.009497869018190385759 18.81448263027174761
84.009497869018190385759 57.91780661083831205 84.009497869018190385759 18.82955691759807593
86.009497869018190385759 58.15812211228196560 86.009497869018190385759 18.82559622265399213
88.009497869018218807469 58.39015504290556891 88.009497869018218807469 18.82751401695757565
91.009497869018190385759 58.72322244332417540 91.009497869018190385759 18.82028559031825310
94.009497869018218807469 59.03949059201811167 94.009497869018218807469 18.82657040927259118
97.009497869018190385759 59.34123866853548890 97.009497869018190385759 18.85538856467555391
99.504748934509109403734 59.58278751510482607 99.504748934509109403734 18.86956263405891576
nan nan nan nan

