Time Pressure difference Time.1 Pressure.1 difference.1
(hr) (psi) (hr) (psi)
0.000200000000006639311 0.44685302610412420 0.000200000000006639311 0.35287725113383095
0.000399999999999067768 0.81106578000515639 0.000399999999999067768 0.69802164892726182
0.000600000000005707079 1.13501852082670074 0.000600000000005707079 0.93487768145493699
0.000799999999998135536 1.43170462765685347 0.000799999999998135536 1.14774244258404945
0.001007140329434719206 1.71743842970239458 0.001007140329434719206 1.34886388634430232
0.001267914553963578328 2.05287297585493178 0.001267914553963578328 1.57978522139985933
0.001596209851982166583 2.44494693789616901 0.001596209851982166583 1.84231831969836346
0.002009509145224797066 2.90127801624701176 0.002009509145224797066 2.13952732708801641
0.002529822128138903281 3.43021537184563119 0.002529822128138903281 2.47473739251261948
0.003184857364431081805 4.04090713767382415 0.003184857364431081805 2.85160840143483751
0.004009497869020606231 4.74338670179459854 0.004009497869020606231 3.27422340761025144
0.005047658755842121536 5.54868079636886158 0.005047658755842121536 3.74718848430846485
0.006354625877790454069 6.46894155671665594 0.006354625877790454069 4.27574025532556146
0.008000000000009777068 7.51760383766637563 0.008000000000009777068 4.86585783929710214
0.010071403294347192059 8.70956841196303522 0.010071403294347192059 5.52437704306438793
0.012679145539706837553 10.06141129190175576 0.012679145539706837553 6.25910480400949787
0.015962098519750611558 11.59161880766931496 0.015962098519750611558 7.07892857654823260
0.020095091452091651263 13.32084614314842241 0.020095091452091651263 7.99391120780864117
0.025298221281360611101 15.27219447157102117 0.025298221281360611101 9.01537500302030281
0.031848573644296607199 17.47150590425031069 0.031848573644296607199 10.15603002240617059
0.040094978690177640601 19.94769646574179234 0.040094978690177640601 11.43025033075480223
0.050476587558421215363 22.73317366458163846 0.050476587558421215363 12.85450158549371125
0.063546258777961384112 25.86435984964583312 0.063546258777961384112 14.44756203420042517
0.079999999999998294697 29.38220236489266313 0.079999999999998294697 16.22976081606693199
0.100714032943542974863 33.33233357701608668 0.100714032943542974863 18.22052908476091559
0.126791455396897845276 37.76443687418909434 0.126791455396897845276 20.43436626010618085
0.159620985197506115583 42.73052860142715303 0.159620985197506115583 22.87662466062700872
0.200950914520760193227 48.28235783314494256 0.200950914520760193227 25.54117150026296201
0.252982212813478213320 54.46858079359894589 0.252982212813478213320 28.41178601043684893
0.318485736442795541734 61.33276370667609712 0.318485736442795541734 31.46506586089311597
0.400949786901833249431 68.91184396860678874 0.400949786901833249431 34.67983265873516530
0.504765875584155310207 77.23838292583999987 0.504765875584155310207 38.04027824000930735
0.635462587779443310865 86.34037762911297875 0.635462587779443310865 41.54025546230847254
0.799999999999997157829 96.24533854180255332 0.799999999999997157829 45.18948460093317010
1.007140329435344483500 106.98275057386798892 1.007140329435344483500 49.02130081103363324
1.267914553968893187630 118.59138289374105568 1.267914553968893187630 53.04928291942611907
1.596209851975103788391 131.10165421764364169 1.596209851975103788391 57.35276081102870194
2.009509145207672986544 144.58114361322435570 2.009509145207672986544 61.96684732044138855
2.529822128134711078928 159.06672963049138048 2.529822128134711078928 66.97081209479360098
3.184857364427998049905 174.64837843041502197 3.184857364427998049905 72.47450010199884218
4.009497869018190385759 191.39488446686584666 4.009497869018190385759 78.50536886643153878
5.009497869018204596614 208.77243673945852720 5.009497869018204596614 84.87543135340223444
6.009497869018204596614 223.88083801932887695 6.009497869018204596614 90.46752898240266916
7.009497869018204596614 237.30738906297844437 7.009497869018204596614 95.44806519676292567
8.009497869018204596614 249.42066862240776004 8.009497869018204596614 99.91138806690324259
9.009497869018204596614 260.46986586778120909 9.009497869018204596614 103.94054889021109034
10.009497869018190385759 270.63335428749530820 10.009497869018190385759 107.59033921951774460
11.009497869018190385759 280.04447354422728722 11.009497869018190385759 110.88315402614946947
12.009497869018190385759 288.80639294312078391 12.009497869018190385759 113.89102724553724499
13.009497869018190385759 297.00068730371202719 13.009497869018190385759 116.64576449037357975
14.009497869018190385759 304.69421350355082723 14.009497869018190385759 119.17055651757389967
15.009497869018190385759 311.94088598772259502 15.009497869018190385759 121.49311333453863426
16.009497869018204596614 318.78545337968171225 16.009497869018204596614 123.63745834495644260
17.009497869018204596614 325.26717280030510437 17.009497869018204596614 125.62573564984000996
18.009497869018204596614 331.42005826091809695 18.009497869018204596614 127.48163177875642305
19.009497869018204596614 337.27300371579656257 19.009497869018204596614 129.21008984958623955
20.009497869018204596614 342.85213629742634112 20.009497869018204596614 130.82047359635191697
21.009497869018204596614 348.17879354116286095 21.009497869018204596614 132.32031793195912428
22.009497869018190385759 353.27120403656954295 22.009497869018190385759 133.72299650593268439
23.009497869018190385759 358.14609348033457081 23.009497869018190385759 135.03295619453700738
24.009497869018190385759 362.81890870639267632 24.009497869018190385759 136.26504549626287144
25.009497869018190385759 367.30417027282680920 25.009497869018190385759 137.42561029622336832
26.009497869018190385759 371.61465258458167682 26.009497869018190385759 138.52108579032437774
27.009497869018204596614 375.76201102363313566 27.009497869018204596614 139.55976676085771260
28.009497869018190385759 379.75634752631856372 28.009497869018190385759 140.54369565675398235
29.009497869018190385759 383.60671482943052979 29.009497869018190385759 141.46800123589201803
30.009497869018190385759 387.32152019391600106 30.009497869018190385759 142.35286293834312232
31.009497869018190385759 390.90846535865620126 31.009497869018190385759 143.19096364643556285
32.009497869018190385759 394.37464356135268417 32.009497869018190385759 143.98572143352518538
33.009497869018218807469 397.72665102782048052 33.009497869018218807469 144.73488505034708851
34.009497869018190385759 400.97077935331657272 34.009497869018190385759 145.45636073625681206
35.009497869018218807469 404.11264700690531981 35.009497869018218807469 146.14092878777549345
36.009497869018190385759 407.15744945422642331 36.009497869018190385759 146.80051685073649992
37.009497869018218807469 410.10999988805804151 37.009497869018218807469 147.43316544972208249
38.009497869018190385759 412.97487974727937399 38.009497869018190385759 148.04157557762246711
39.009497869018190385759 415.75628192294692553 39.009497869018190385759 148.62848680181792815
40.009497869018190385759 418.45813226274611907 40.009497869018190385759 149.19076965351041508
41.009497869018190385759 421.08419839632097137 41.009497869018190385759 149.73700910194935432
42.009497869018190385759 423.63793164599519514 42.009497869018190385759 150.25388950213073258
43.009497869018190385759 426.12258892010180489 43.009497869018190385759 150.76253135767385061
44.009497869018218807469 428.54130705439177973 44.009497869018218807469 151.23417679015133785
46.009497869018218807469 433.19257459956861567 46.009497869018218807469 152.13478892594758918
48.009497869018218807469 437.61175209735046110 48.009497869018218807469 152.96176014308781532
50.009497869018218807469 441.81477077526227504 50.009497869018218807469 153.67552200845091193
52.009497869018190385759 445.81751664617269171 52.009497869018190385759 154.30906282150354514
54.009497869018190385759 449.63510358457233451 54.009497869018190385759 154.87552169224272802
56.009497869018190385759 453.27950820644400665 56.009497869018190385759 155.37717419334165925
58.009497869018190385759 456.76105734144670123 58.009497869018190385759 155.81674845138749674
60.009497869018190385759 460.09002939741543514 60.009497869018190385759 156.27668204207492408
62.009497869018190385759 463.27506612548410203 62.009497869018190385759 156.71580652017209445
64.009497869018190385759 466.32522501004132209 64.009497869018190385759 157.13400595638515256
66.009497869018218807469 469.25271782287313727 66.009497869018218807469 157.57572167444027400
68.009497869018218807469 472.06811623468041716 68.009497869018218807469 158.01873982141319175
70.009497869018218807469 474.77770208792821904 70.009497869018218807469 158.38428445452279902
72.009497869018218807469 477.38804376671828322 72.009497869018218807469 158.63381780347904737
74.009497869018190385759 479.90523208586540704 74.009497869018190385759 158.85996129391844534
76.009497869018190385759 482.33417357152347904 76.009497869018190385759 159.05706796218493082
78.009497869018190385759 484.68116671337747903 78.009497869018190385759 159.29929895153057373
80.009497869018190385759 486.95010947331968509 80.009497869018190385759 159.41993902589294407
82.009497869018190385759 489.14093932300477263 82.009497869018190385759 159.58308158688328149
84.009497869018190385759 491.25464884373701580 84.009497869018190385759 159.71094060227764544
86.009497869018190385759 493.29298755477725535 86.009497869018190385759 159.67734627407722314
88.009497869018218807469 495.26107409886168398 88.009497869018218807469 159.69361286672452138
91.009497869018190385759 498.08612771205082481 91.009497869018190385759 159.63230187450662356
94.009497869018218807469 500.76869128651514984 94.009497869018218807469 159.68560925455307142
97.009497869018190385759 503.32809665842148661 97.009497869018190385759 159.93004276544084519
99.504748934509109403734 505.37689651366025601 99.504748934509109403734 160.05026619731896176
nan nan nan nan

