Time Pressure difference Time.1 Pressure.1 difference.1
(hr) (psi) (hr) (psi)
0.000200000000006639311 0.21454023128294597 0.000200000000006639311 0.16942118023186770
0.000399999999999067768 0.38940374096838476 0.000399999999999067768 0.33512971212700920
0.000600000000005707079 0.54493786937418298 0.000600000000005707079 0.44884752319853510
0.000799999999998135536 0.68738091498297804 0.000799999999998135536 0.55104679771791021
0.001007140329434719206 0.82456560971507020 0.001007140329434719206 0.64760794543234967
0.001267914553963578328 0.98561230943035072 0.001267914553963578328 0.75847642731981879
0.001596209851982166583 1.17385236506946744 0.001596209851982166583 0.88452214780972571
0.002009509145224797066 1.39294313848222995 0.002009509145224797066 1.02721624510759879
0.002529822128138903281 1.64689317568724936 0.002529822128138903281 1.18815516856429748
0.003184857364431081805 1.94009462007635336 0.003184857364431081805 1.36909607909797604
0.004009497869020606231 2.27736463807752010 0.004009497869020606231 1.57199930649469466
0.005047658755842121536 2.66399731416573182 0.005047658755842121536 1.79907628934128017
0.006354625877790454069 3.10582705421907646 0.006354625877790454069 2.05284120213073829
0.008000000000009777068 3.60930411524323125 0.008000000000009777068 2.33616470125343811
0.010071403294347192059 4.18158256142543383 0.010071403294347192059 2.65232875078943620
0.012679145539706837553 4.83062076230510407 0.012679145539706837553 3.00508156783410563
0.015962098519750611558 5.56529425709123426 0.015962098519750611558 3.39869014044503226
0.020095091452091651263 6.39551988122750981 0.020095091452091651263 3.83798577874903435
0.025298221281360611101 7.33238882299858652 0.025298221281360611101 4.32840447588190713
0.031848573644296607199 8.38830823243836043 0.031848573644296607199 4.87604850507569054
0.040094978690177640601 9.57716108724534720 0.040094978690177640601 5.48781905084534571
0.050476587558421215363 10.91450667418834186 0.050476587558421215363 6.17162149985351416
0.063546258777961384112 12.41783185963109659 0.063546258777961384112 6.93647154482918094
0.079999999999998294697 14.10679602178085368 0.079999999999998294697 7.79212948271395156
0.100714032943542974863 16.00330788214692745 0.100714032943542974863 8.74792447535396356
0.126791455396897845276 18.13122111289192517 0.126791455396897845276 9.81081789192597853
0.159620985197506115583 20.51550947057156193 0.159620985197506115583 10.98337945353967093
0.200950914520760193227 23.18101839148152266 0.200950914520760193227 12.26266472597852442
0.252982212813478213320 26.15110839238131035 0.252982212813478213320 13.64088589705632870
0.318485736442795541734 29.44669621144392124 0.318485736442795541734 15.10680718889470775
0.400949786901833249431 33.08551599629132767 0.400949786901833249431 16.65026056626773610
0.504765875584155310207 37.08320089337205161 0.504765875584155310207 18.26365631409537471
0.635462587779443310865 41.45319266852299478 0.635462587779443310865 19.94404310548332759
0.799999999999997157829 46.20869947035406256 0.799999999999997157829 21.69608777715257375
1.007140329435344483500 51.36387740620367026 1.007140329435344483500 23.53579499166103517
1.267914553968893187630 56.93734008250635981 1.267914553968893187630 25.46968412892901412
1.596209851975103788391 62.94369193972094934 1.596209851975103788391 27.53584254847684676
2.009509145207672986544 69.41537860975827812 2.009509145207672986544 29.75112840100737088
2.529822128134711078928 76.37010598736659972 2.529822128134711078928 32.15360012505716014
3.184857364427998049905 83.85106805323903245 3.184857364427998049905 34.79599578760740286
4.009497869018190385759 91.89129396278501360 4.009497869018190385759 37.69149812053105109
5.009497869018204596614 100.23449377547866845 5.009497869018204596614 40.74985198501413919
6.009497869018204596614 107.48824325359824172 6.009497869018204596614 43.43469431257400259
7.009497869018204596614 113.93451349898680292 7.009497869018204596614 45.82591766549128920
8.009497869018204596614 119.75026419655372933 8.009497869018204596614 47.96881983893933921
9.009497869018204596614 125.05513446492903995 9.009497869018204596614 49.90327489331157551
10.009497869018190385759 129.93476384825768832 10.009497869018190385759 51.65558900027982503
11.009497869018190385759 134.45317053685909059 11.009497869018190385759 53.23651429096381094
12.009497869018190385759 138.65988752098695613 12.009497869018190385759 54.68063524004487164
13.009497869018190385759 142.59407998388448391 13.009497869018190385759 56.00322215588958130
14.009497869018190385759 146.28784682414797658 14.009497869018190385759 57.21540923713064331
15.009497869018190385759 149.76707310205998169 15.009497869018190385759 58.33050043618473524
16.009497869018204596614 153.05324324194944552 16.009497869018204596614 59.36002971675465290
17.009497869018204596614 156.16520512287374345 17.009497869018204596614 60.31462876370159876
18.009497869018204596614 159.11928933549759790 18.009497869018204596614 61.20566980286886150
19.009497869018204596614 161.92936826127728978 19.009497869018204596614 62.03552609255702777
20.009497869018204596614 164.60798589279843895 20.009497869018204596614 62.80869328915760263
21.009497869018204596614 167.16538667175149158 21.009497869018204596614 63.52878900710538090
22.009497869018190385759 169.61032239255754916 22.009497869018190385759 64.20223411790517787
23.009497869018190385759 171.95082329027428614 23.009497869018190385759 64.83116362749078121
24.009497869018190385759 174.19430560051239354 24.009497869018190385759 65.42270650246712194
25.009497869018190385759 176.34774084121514193 25.009497869018190385759 65.97990948881179918
26.009497869018190385759 178.41726217839288893 26.009497869018190385759 66.50586221183185387
27.009497869018204596614 180.40846551986933832 27.009497869018204596614 67.00454710961633964
28.009497869018190385759 182.32620094303359792 28.009497869018190385759 67.47694478974837295
29.009497869018190385759 184.17481479026633906 29.009497869018190385759 67.92071650245951275
30.009497869018190385759 185.95834350219263342 30.009497869018190385759 68.34555067210223456
31.009497869018190385759 187.68048478867299877 31.009497869018190385759 68.74793425070343744
32.009497869018190385759 189.34464420985398192 32.009497869018190385759 69.12950830189134876
33.009497869018218807469 190.95398870369788824 33.009497869018218807469 69.48919197019506555
34.009497869018190385759 192.51153895088208401 34.009497869018190385759 69.83558228530512224
35.009497869018218807469 194.01999245501988867 35.009497869018218807469 70.16425274185812100
36.009497869018190385759 195.48184363001209363 36.009497869018190385759 70.48092996526837339
37.009497869018218807469 196.89940335534603832 37.009497869018218807469 70.78467318466769598
38.009497869018190385759 198.27487124230174231 38.009497869018190385759 71.07677918357443048
39.009497869018190385759 199.61026035505119580 39.009497869018190385759 71.35856326564554308
40.009497869018190385759 200.90745554660253447 40.009497869018190385759 71.62852293023654227
41.009497869018190385759 202.16826570732456503 41.009497869018190385759 71.89077993815183731
42.009497869018190385759 203.39434786412837752 42.009497869018190385759 72.13894126664798989
43.009497869018190385759 204.58726570311702631 43.009497869018190385759 72.38314715751954509
44.009497869018218807469 205.74852526190969115 44.009497869018218807469 72.60959056118062449
46.009497869018218807469 207.98166223672470210 46.009497869018218807469 73.04198672865098274
48.009497869018218807469 210.10336961492109253 48.009497869018218807469 73.43902688688022806
50.009497869018218807469 212.12129619607762265 50.009497869018218807469 73.78171369155739967
52.009497869018190385759 214.04306907159994466 52.009497869018190385759 74.08588527509688504
54.009497869018190385759 215.87594461872933493 54.009497869018190385759 74.35784990337789679
56.009497869018190385759 217.62567297411658274 56.009497869018190385759 74.59870010987141598
58.009497869018190385759 219.29721218950137995 58.009497869018190385759 74.80974570535366297
60.009497869018190385759 220.89549706864545442 60.009497869018190385759 75.03056609406438326
62.009497869018190385759 222.42467663411025569 62.009497869018190385759 75.24139574405988640
64.009497869018190385759 223.88909950766191059 64.009497869018190385759 75.44217899610535483
66.009497869018218807469 225.29462872745898494 66.009497869018218807469 75.65425273573978870
68.009497869018218807469 226.64633989676417514 68.009497869018218807469 75.86695178925803873
70.009497869018218807469 227.94724901380644155 70.009497869018218807469 76.04245475231348905
72.009497869018218807469 229.20050964936191917 72.009497869018218807469 76.16225911587487474
74.009497869018190385759 230.40904608667969455 74.009497869018190385759 76.27083368940969876
76.009497869018190385759 231.57521401587348464 76.009497869018190385759 76.36546728866265710
78.009497869018190385759 232.70203742772952182 78.009497869018190385759 76.48176568979735634
80.009497869018190385759 233.79138778690634126 80.009497869018190385759 76.53968663459065169
82.009497869018190385759 234.84323507269266429 82.009497869018190385759 76.61801360279338269
84.009497869018190385759 235.85805583690785170 84.009497869018190385759 76.67940045961624662
86.009497869018190385759 236.83669004760608345 86.009497869018190385759 76.66327136454276570
88.009497869018218807469 237.78159523496483985 88.009497869018218807469 76.67108117748989571
91.009497869018190385759 239.13794199811533758 91.009497869018190385759 76.64164493406710221
94.009497869018218807469 240.42587735062801357 94.009497869018218807469 76.66723853414622170
97.009497869018190385759 241.65468277066261749 97.009497869018190385759 76.78459439590767488
99.504748934509109403734 242.63833951934253719 99.504748934509109403734 76.84231530496280982
nan nan nan nan

