Time Pressure difference Time.1 Pressure.1 difference.1
(hr) (psi) (hr) (psi)
0.000200000000006639311 0.48747602847722638 0.000200000000006639311 0.38495700123690646
0.000399999999999067768 0.88479903273289784 0.000399999999999067768 0.76147816246610378
0.000600000000005707079 1.23820202272003721 0.000600000000005707079 1.01986656158720401
0.000799999999998135536 1.56185959380747663 0.000799999999998135536 1.25208266463714502
0.001007140329434719206 1.87356919603897598 0.001007140329434719206 1.47148787601196607
0.001267914553963578328 2.23949779184174380 0.001267914553963578328 1.72340205970893723
0.001596209851982166583 2.66721484134127484 0.001596209851982166583 2.00980180330730596
0.002009509145224797066 3.16503056317855780 0.002009509145224797066 2.33402981136874521
0.002529822128138903281 3.74205313292250707 0.002529822128138903281 2.69971351910467616
0.003184857364431081805 4.40826233200780848 0.003184857364431081805 3.11084552883800436
0.004009497869020606231 5.17460367468501659 0.004009497869020606231 3.57188008102936516
0.005047658755842121536 6.05310632331148479 0.005047658755842121536 4.08784198288196166
0.006354625877790454069 7.05702715278180559 0.006354625877790454069 4.66444391490061250
0.008000000000009777068 8.20102236836331855 0.008000000000009777068 5.30820855196047425
0.010071403294347192059 9.50134735850512691 0.010071403294347192059 6.02659313788842343
0.012679145539706837553 10.97608504571100418 0.012679145539706837553 6.82811433164672543
0.015962098519750611558 12.64540233563925398 0.015962098519750611558 7.72246753805261665
0.020095091452091651263 14.53183215616191504 0.020095091452091651263 8.72063040851851667
0.025298221281360611101 16.66057578716838705 0.025298221281360611101 9.83495454874942077
0.031848573644296607199 19.05982462281852108 0.031848573644296607199 11.07930547898855167
0.040094978690177640601 21.76112341717286114 0.040094978690177640601 12.46936399718705779
0.050476587558421215363 24.79982581590724067 0.050476587558421215363 14.02309263872041178
0.063546258777961384112 28.21566529052272898 0.063546258777961384112 15.76097676458228136
0.079999999999998294697 32.05331167079199872 0.079999999999998294697 17.70519361752755572
0.100714032943542974863 36.36254572038118482 0.100714032943542974863 19.87694081973918259
0.126791455396897845276 41.19756749911537952 0.126791455396897845276 22.29203592011583268
0.159620985197506115583 46.61512211064780331 0.159620985197506115583 24.95631781159309881
0.200950914520760193227 52.67166309070357499 0.200950914520760193227 27.86309618210505334
0.252982212813478213320 59.42026995665339228 0.252982212813478213320 30.99467564774928974
0.318485736442795541734 66.90846949819210465 0.318485736442795541734 34.32552639370157976
0.400949786901833249431 75.17655705666194876 0.400949786901833249431 37.83254471862017709
0.504765875584155310207 84.26005410091637771 0.504765875584155310207 41.49848535273741845
0.635462587779443310865 94.18950286812325601 0.635462587779443310865 45.31664232251833369
0.799999999999997157829 104.99491477287548946 0.799999999999997157829 49.29761956465436867
1.007140329435344483500 116.70845517149236059 1.007140329435344483500 53.47778270294578107
1.267914553968893187630 129.37241770226296467 1.267914553968893187630 57.87194500301030331
1.596209851975103788391 143.01998641924760136 1.596209851975103788391 62.56664815748585085
2.009509145207672986544 157.72488394169928938 2.009509145207672986544 67.60019707684516277
2.529822128134711078928 173.52734141508150856 2.529822128134711078928 73.05906773977484647
3.184857364427998049905 190.52550374227095631 3.184857364427998049905 79.06309102036237846
4.009497869018190385759 208.79441941839908736 4.009497869018190385759 85.64222058156167350
5.009497869018204596614 227.75174917031841915 5.009497869018204596614 92.59137965825699723
6.009497869018204596614 244.23364147563154347 6.009497869018204596614 98.69184979898471965
7.009497869018204596614 258.88078806870373683 7.009497869018204596614 104.12516203283227867
8.009497869018204596614 272.09527486080844483 8.009497869018204596614 108.99424152753080364
9.009497869018204596614 284.14894458303399460 9.009497869018204596614 113.38968969841209855
10.009497869018190385759 295.23638649544943746 10.009497869018190385759 117.37127914856480970
11.009497869018190385759 305.50306204824789802 11.009497869018190385759 120.96344075579941091
12.009497869018190385759 315.06151957431359278 12.009497869018190385759 124.24475699513153870
13.009497869018190385759 324.00074978586764018 13.009497869018190385759 127.24992489858937006
14.009497869018190385759 332.39368745841903774 14.009497869018190385759 130.00424347371699696
15.009497869018190385759 340.29914835024277409 15.009497869018190385759 132.53794181949669451
16.009497869018204596614 347.76594914147096915 16.009497869018204596614 134.87722728540703088
17.009497869018204596614 354.83691578215103846 17.009497869018204596614 137.04625707255272005
18.009497869018204596614 361.54915446645611610 18.009497869018204596614 139.07087103137064332
19.009497869018204596614 367.93418587177802692 19.009497869018204596614 140.95646165409405626
20.009497869018204596614 374.02051232446507356 20.009497869018204596614 142.71324392329299258
21.009497869018204596614 379.83141113581399395 21.009497869018204596614 144.34943774395540572
22.009497869018190385759 385.38676803989403652 22.009497869018190385759 145.87963255192656220
23.009497869018190385759 390.70482925127413409 23.009497869018190385759 147.30867948494946518
24.009497869018190385759 395.80244586151923158 24.009497869018190385759 148.65277690501403640
25.009497869018190385759 400.69545847944738171 25.009497869018190385759 149.91884759588003817
26.009497869018190385759 405.39780281954364227 26.009497869018190385759 151.11391177126293428
27.009497869018204596614 409.92219384396338455 27.009497869018204596614 152.24701828457205011
28.009497869018190385759 414.27965184689298894 28.009497869018190385759 153.32039526191343271
29.009497869018190385759 418.48005254119686924 29.009497869018190385759 154.32872862097309508
30.009497869018190385759 422.53256748427207867 30.009497869018190385759 155.29403229637429718
31.009497869018190385759 426.44559857307950779 31.009497869018190385759 156.20832397792969459
32.009497869018190385759 430.22688388511198809 32.009497869018190385759 157.07533247293656586
33.009497869018218807469 433.88361930307689818 33.009497869018218807469 157.89260187310591732
34.009497869018190385759 437.42266838543628182 34.009497869018190385759 158.67966625773470923
35.009497869018218807469 440.85016037116952248 35.009497869018218807469 159.42646776848235390
36.009497869018190385759 444.17176304097421280 36.009497869018190385759 160.14601838262163369
37.009497869018218807469 447.39272715060877772 37.009497869018218807469 160.83618049060589783
38.009497869018190385759 450.51805063339566004 38.009497869018190385759 161.49990063013359531
39.009497869018190385759 453.55230755230570594 39.009497869018190385759 162.14016742016499961
40.009497869018190385759 456.49978065026851937 40.009497869018190385759 162.75356689473866822
41.009497869018190385759 459.36458006871384896 41.009497869018190385759 163.34946447485384624
42.009497869018190385759 462.15047088654017671 42.009497869018190385759 163.91333400232443296
43.009497869018190385759 464.86100609465648859 43.009497869018190385759 164.46821602655330707
44.009497869018218807469 467.49960769570009234 44.009497869018218807469 164.98273831652875288
46.009497869018218807469 472.57371774498398054 46.009497869018218807469 165.96522428285192063
48.009497869018218807469 477.39463865165504330 48.009497869018218807469 166.86737470155034657
50.009497869018218807469 481.97974993664973908 50.009497869018218807469 167.64602400921918957
52.009497869018190385759 486.34638179582469775 52.009497869018190385759 168.33715944164023881
54.009497869018190385759 490.51102209226075956 54.009497869018190385759 168.95511457335570071
56.009497869018190385759 494.48673622521164361 56.009497869018190385759 169.50237184728180750
58.009497869018190385759 498.28478982703279598 58.009497869018190385759 169.98190740151363798
60.009497869018190385759 501.91639570627131661 60.009497869018190385759 170.48365313680901068
62.009497869018190385759 505.39098122780086442 62.009497869018190385759 170.96269802200589538
64.009497869018190385759 508.71842728368142161 64.009497869018190385759 171.41891558878376145
66.009497869018218807469 511.91205580677069520 66.009497869018218807469 171.90078728120758456
68.009497869018218807469 514.98339952874232495 68.009497869018218807469 172.38407980517803253
70.009497869018218807469 517.93931136864898690 70.009497869018218807469 172.78285576857030037
72.009497869018218807469 520.78695683642001768 72.009497869018218807469 173.05507396743169579
74.009497869018190385759 523.53298045730764443 74.009497869018190385759 173.30177595700192228
76.009497869018190385759 526.18273480529830977 76.009497869018190385759 173.51680141329265439
78.009497869018190385759 528.74309096004822095 78.009497869018190385759 173.78105340166973747
80.009497869018190385759 531.21830124362156766 80.009497869018190385759 173.91266075551956760
82.009497869018190385759 533.60829744327804747 82.009497869018190385759 174.09063445841809425
84.009497869018190385759 535.91416237498594910 84.009497869018190385759 174.23011702066654038
86.009497869018190385759 538.13780460521138593 86.009497869018190385759 174.19346866262972640
88.009497869018218807469 540.28480810784913047 88.009497869018218807469 174.21121403642675318
91.009497869018190385759 543.36668477678279032 91.009497869018190385759 174.14432931764358159
94.009497869018218807469 546.29311776710733284 94.009497869018218807469 174.20248282314881294
97.009497869018190385759 549.08519635464165276 97.009497869018190385759 174.46913756229909609
99.504748934509109403734 551.32025074217472138 99.504748934509109403734 174.60029039707526977
nan nan nan nan

