Time Pressure difference Time.1 Pressure.1 difference.1
(hr) (psi) (hr) (psi)
0.000200000000006639311 0.60553662912405470 0.000200000000006639311 0.47818877497396978
0.000399999999999067768 1.09908629847289663 0.000399999999999067768 0.94589865493836334
0.000600000000005707079 1.53807907509754616 0.000600000000005707079 1.26686549447160490
0.000799999999998135536 1.94012246418272483 0.000799999999998135536 1.55532143497895370
0.001007140329434719206 2.32732423570466551 0.001007140329434719206 1.82786384598361407
0.001267914553963578328 2.78187616330341614 0.001267914553963578328 2.14078849604469523
0.001596209851982166583 3.31318093572861505 0.001596209851982166583 2.49655067754579374
0.002009509145224797066 3.93156140269836518 0.002009509145224797066 2.89930265630961292
0.002529822128138903281 4.64833162605217698 0.002529822128138903281 3.35355038701283981
0.003184857364431081805 5.47588836554094982 0.003184857364431081805 3.86425343035345881
0.004009497869020606231 6.42782800214779382 0.004009497869020606231 4.43694478815366455
0.005047658755842121536 7.51909301098848548 0.005047658755842121536 5.07786621311118669
0.006354625877790454069 8.76615091634615062 0.006354625877790454069 5.79411392554060534
0.008000000000009777068 10.18720747320131004 0.008000000000009777068 6.59379031063840237
0.010071403294347192059 11.80245492189308898 0.010071403294347192059 7.48615866347077574
0.012679145539706837553 13.63435564271914124 0.012679145539706837553 8.48179827134241648
0.015962098519750611558 15.70796071380188508 0.015962098519750611558 9.59275264492473667
0.020095091452091651263 18.05126025648237942 0.020095091452091651263 10.83265808558159371
0.025298221281360611101 20.69555898562322938 0.025298221281360611101 12.21685760352467298
0.031848573644296607199 23.67587589865738096 0.031848573644296607199 13.76257477468108981
0.040094978690177640601 27.03139549476941284 0.040094978690177640601 15.48928809025579767
0.050476587558421215363 30.80603363069727862 0.050476587558421215363 17.41931038716051106
0.063546258777961384112 35.04914672807120013 0.063546258777961384112 19.57808832475455318
0.079999999999998294697 39.81622309106193569 0.079999999999998294697 21.99317019677251750
0.100714032943542974863 45.16909976203600507 0.100714032943542974863 24.69088742451976515
0.126791455396897845276 51.17510337780738183 0.126791455396897845276 27.69088836951888766
0.159620985197506115583 57.90472199682032084 0.159620985197506115583 31.00042603158830445
0.200950914520760193227 65.42808149548334029 0.200950914520760193227 34.61118978870861440
0.252982212813478213320 73.81111658678038623 0.252982212813478213320 38.50119865618857062
0.318485736442795541734 83.11286445478550888 0.318485736442795541734 42.63873981717618733
0.400949786901833249431 93.38337946882226959 0.400949786901833249431 46.99511414266100218
0.504765875584155310207 104.66678595348204794 0.504765875584155310207 51.54889977410351776
0.635462587779443310865 117.00102309399686362 0.635462587779443310865 56.29176663500324196
0.799999999999997157829 130.42337069443129849 0.799999999999997157829 61.23688680296910292
1.007140329435344483500 144.97378415833816234 1.007140329435344483500 66.42943320131546159
1.267914553968893187630 160.70480011452977465 1.267914553968893187630 71.88780668342685942
1.596209851975103788391 177.65763938015913936 1.596209851975103788391 77.71950825812696451
2.009509145207672986544 195.92387927132958225 2.009509145207672986544 83.97211980639359297
2.529822128134711078928 215.55349441404655408 2.529822128134711078928 90.75306070800156988
3.184857364427998049905 236.66839917985220154 3.184857364427998049905 98.21118337685638267
4.009497869018190385759 259.36181787129265786 4.009497869018190385759 106.38369587865864219
5.009497869018204596614 282.91037592250489752 5.009497869018204596614 115.01585441924110853
6.009497869018204596614 303.38397652051105524 6.009497869018204596614 122.59378217217634699
7.009497869018204596614 321.57847892909290977 7.009497869018204596614 129.34297471265884383
8.009497869018204596614 337.99334924116050161 8.009497869018204596614 135.39128439747966581
9.009497869018204596614 352.96626709923759790 9.009497869018204596614 140.85125517224628311
10.009497869018190385759 366.73894884981609721 10.009497869018190385759 145.79713581735785510
11.009497869018190385759 379.49208488805794559 11.009497869018190385759 150.25927406384460028
12.009497869018190385759 391.36548134621762074 12.009497869018190385759 154.33528407988995923
13.009497869018190385759 402.46968137463250059 13.009497869018190385759 158.06826608496646713
14.009497869018190385759 412.89528363975489356 14.009497869018190385759 161.48964619000781795
15.009497869018190385759 422.71534834131722391 15.009497869018190385759 164.63697460390602600
16.009497869018204596614 431.99051494917097216 16.009497869018204596614 167.54280576859153484
17.009497869018204596614 440.77398132314078794 17.009497869018204596614 170.23714745731163589
18.009497869018204596614 449.11184031380093984 18.009497869018204596614 172.75209760928072455
19.009497869018204596614 457.04324651259923940 19.009497869018204596614 175.09435471094496961
20.009497869018204596614 464.60360515304643059 20.009497869018204596614 177.27660768596550156
21.009497869018204596614 471.82183102026897359 21.009497869018204596614 179.30906719756958978
22.009497869018190385759 478.72262592455587082 22.009497869018190385759 181.20985606059625184
23.009497869018190385759 485.32865508556704981 23.009497869018190385759 182.98500029771068398
24.009497869018190385759 491.66085071860590006 24.009497869018190385759 184.65462131169712734
25.009497869018190385759 497.73888982993850050 25.009497869018190385759 186.22731849800723580
26.009497869018190385759 503.58008318990187036 26.009497869018190385759 187.71181227836569860
27.009497869018204596614 509.20022516554831782 27.009497869018204596614 189.11934302536684527
28.009497869018190385759 514.61300502856238381 28.009497869018190385759 190.45267848940810040
29.009497869018190385759 519.83069026601810947 29.009497869018190385759 191.70521758386502142
30.009497869018190385759 524.86467367186912725 30.009497869018190385759 192.90430574315246304
31.009497869018190385759 529.72539197749722462 31.009497869018190385759 194.04002744133453007
32.009497869018190385759 534.42245732603760189 32.009497869018190385759 195.11701455622591084
33.009497869018218807469 538.96480835304089396 33.009497869018218807469 196.13221638924875379
34.009497869018190385759 543.36097088503413488 34.009497869018190385759 197.10989792952983635
35.009497869018218807469 547.61855858606213587 35.009497869018218807469 198.03756543116168132
36.009497869018190385759 551.74461190246017850 36.009497869018190385759 198.93138220966281438
37.009497869018218807469 555.74565325739683885 37.009497869018218807469 199.78869295317448973
38.009497869018190385759 559.62789102117119455 38.009497869018190385759 200.61315781399409275
39.009497869018190385759 563.39700703762969169 39.009497869018190385759 201.40848921723622311
40.009497869018190385759 567.05832127650535313 40.009497869018190385759 202.17044637705816967
41.009497869018190385759 570.61693930410547182 41.009497869018190385759 202.91066290235752945
42.009497869018190385759 574.07753805437414485 42.009497869018190385759 203.61109458101236669
43.009497869018190385759 577.44453100820612690 43.009497869018190385759 204.30036209548416082
44.009497869018218807469 580.72216893450240605 44.009497869018218807469 204.93949525256306288
46.009497869018218807469 587.02516501134721238 46.009497869018218807469 206.15992703885513038
48.009497869018218807469 593.01365270010262520 48.009497869018218807469 207.28056701208205936
50.009497869018218807469 598.70922062443219147 50.009497869018218807469 208.24779544895196182
52.009497869018190385759 604.13339613700100017 52.009497869018190385759 209.10631524391249059
54.009497869018190385759 609.30666025523009921 54.009497869018190385759 209.87393138409029802
56.009497869018190385759 614.24524265475508855 56.009497869018190385759 210.55372752904534650
58.009497869018190385759 618.96313736326726485 58.009497869018190385759 211.14940060031770486
60.009497869018190385759 623.47427279138389622 60.009497869018190385759 211.77266288087994894
62.009497869018190385759 627.79035949390890892 62.009497869018190385759 212.36772644921046549
64.009497869018190385759 631.92367139144812427 64.009497869018190385759 212.93443420794235976
66.009497869018218807469 635.89075682247289478 66.009497869018218807469 213.53300920087505688
68.009497869018218807469 639.70594160210953305 68.009497869018218807469 214.13334913299462414
70.009497869018218807469 643.37773834074369006 70.009497869018218807469 214.62870365002092399
72.009497869018218807469 646.91504794524041699 72.009497869018218807469 214.96684969391904474
74.009497869018190385759 650.32612416181189019 74.009497869018190385759 215.27329982158832422
76.009497869018190385759 653.61761589095647196 76.009497869018190385759 215.54040175557449288
78.009497869018190385759 656.79805830193481597 78.009497869018190385759 215.86865227238664033
80.009497869018190385759 659.87273357606113677 80.009497869018190385759 216.03213328224697420
82.009497869018190385759 662.84155698032191140 82.009497869018190385759 216.25320999131625399
84.009497869018190385759 665.70587357517774763 84.009497869018190385759 216.42647348660921125
86.009497869018190385759 668.46805415803623873 86.009497869018190385759 216.38094935436035371
88.009497869018218807469 671.13503507146890570 88.009497869018218807469 216.40299243587384126
91.009497869018190385759 674.96330374615979508 91.009497869018190385759 216.31990907426040849
94.009497869018218807469 678.59848222632865600 94.009497869018218807469 216.39214663188016630
97.009497869018190385759 682.06676734678148932 97.009497869018190385759 216.72338181566840376
99.504748934509109403734 684.84312396879522566 99.504748934509109403734 216.88629822761689070
nan nan nan nan

