Time Pressure difference Time.1 Pressure.1 difference.1
(hr) (psi) (hr) (psi)
0.000200000000006639311 0.23929487335405514 0.000200000000006639311 0.18896977795092934
0.000399999999999067768 0.43433494184935217 0.000399999999999067768 0.37379852506474109
0.000600000000005707079 0.60781531584043491 0.000600000000005707079 0.50063762202913531
0.000799999999998135536 0.76669409748101391 0.000799999999998135536 0.61462912053151508
0.001007140329434719206 0.91970779545142445 0.001007140329434719206 0.72233193913608218
0.001267914553963578328 1.09933680667231415 0.001267914553963578328 0.84599293816441323
0.001596209851982166583 1.30929686873132911 0.001596209851982166583 0.98658239563392480
0.002009509145224797066 1.55366734676864104 0.002009509145224797066 1.14574119646616768
0.002529822128138903281 1.83691931134347031 0.002529822128138903281 1.32524999570633195
0.003184857364431081805 2.16395169162362455 0.003184857364431081805 1.52706870360928093
0.004009497869020606231 2.54013748093261871 0.004009497869020606231 1.75338384185946694
0.005047658755842121536 2.97138161964639336 0.005047658755842121536 2.00666201503450470
0.006354625877790454069 3.46419171432127726 0.006354625877790454069 2.28970749468428503
0.008000000000009777068 4.02576228238668143 0.008000000000009777068 2.60572216678268065
0.010071403294347192059 4.66407285697452245 0.010071403294347192059 2.95836668357283283
0.012679145539706837553 5.38800008103261607 0.012679145539706837553 3.35182174873804062
0.015962098519750611558 6.20744359444791449 0.015962098519750611558 3.79084669511176697
0.020095091452091651263 7.13346448290760726 0.020095091452091651263 4.28083029168161566
0.025298221281360611101 8.17843368719073105 0.025298221281360611101 4.82783576156058913
0.031848573644296607199 9.35618995156586308 0.031848573644296607199 5.43866948643057757
0.040094978690177640601 10.68221813577365786 0.040094978690177640601 6.12102894132750119
0.050476587558421215363 12.17387282890238431 0.050476587558421215363 6.88373167291353472
0.063546258777961384112 13.85065861266545362 0.063546258777961384112 7.73683364615562486
0.079999999999998294697 15.73450325506325953 0.079999999999998294697 8.69122134610402242
0.100714032943542974863 17.84984340701003447 0.100714032943542974863 9.75730037635634417
0.126791455396897845276 20.22328508745637521 0.126791455396897845276 10.94283534099436039
0.159620985197506115583 22.88268364025289259 0.159620985197506115583 12.25069246740963358
0.200950914520760193227 25.85575128280630963 0.200950914520760193227 13.67758757897604838
0.252982212813478213320 29.16854397611761485 0.252982212813478213320 15.21483426979359699
0.318485736442795541734 32.84439192814898689 0.318485736442795541734 16.84990032607486654
0.400949786901833249431 36.90307553432494103 0.400949786901833249431 18.57144447776016349
0.504765875584155310207 41.36203176568420758 0.504765875584155310207 20.37100127341407330
0.635462587779443310865 46.23625336104488071 0.635462587779443310865 22.24527884842371250
0.799999999999997157829 51.54047248616414834 0.799999999999997157829 24.19948252067018046
1.007140329435344483500 57.29047864538101464 1.007140329435344483500 26.25146364454500159
1.267914553968893187630 63.50703316894940542 1.267914553968893187630 28.40849383611313073
1.596209851975103788391 70.20642562507336493 1.596209851975103788391 30.71305515022417509
2.009509145207672986544 77.42484537242269482 2.009509145207672986544 33.18395090881591614
2.529822128134711078928 85.18204129360120191 2.529822128134711078928 35.86363090871760306
3.184857364427998049905 93.52619129015123178 3.184857364427998049905 38.81091837848517656
4.009497869018190385759 102.49413557387559592 4.009497869018190385759 42.04051713443847405
5.009497869018204596614 111.80001228803391200 5.009497869018204596614 45.45175798328500605
6.009497869018204596614 119.89073285978265915 6.009497869018204596614 48.44638981017870805
7.009497869018204596614 127.08080351810066588 7.009497869018204596614 51.11352354997105607
8.009497869018204596614 133.56760237307915418 8.009497869018204596614 53.50368366650926077
9.009497869018204596614 139.48457305703621500 9.009497869018204596614 55.66134507330906445
10.009497869018190385759 144.92723659997975005 10.009497869018190385759 57.61584926954288477
11.009497869018190385759 149.96699790649668671 11.009497869018190385759 59.37918901684425066
12.009497869018190385759 154.65910531187006427 12.009497869018190385759 60.98993930620389392
13.009497869018190385759 159.04724305894805525 13.009497869018190385759 62.46513240464608430
14.009497869018190385759 163.16721376539581456 14.009497869018190385759 63.81718722603033456
15.009497869018190385759 167.04788922922074335 15.009497869018190385759 65.06094279420605631
16.009497869018204596614 170.71323284678976506 16.009497869018204596614 66.20926391484174189
17.009497869018204596614 174.18426725243611486 17.009497869018204596614 67.27400900566716757
18.009497869018204596614 177.47920733574733276 18.009497869018204596614 68.26786247243065020
19.009497869018204596614 180.61352613757853192 19.009497869018204596614 69.19347141092899278
20.009497869018204596614 183.60121503427515677 20.009497869018204596614 70.05585020713732547
21.009497869018204596614 186.45370051849204174 21.009497869018204596614 70.85903389254060869
22.009497869018190385759 189.18074420708342132 22.009497869018190385759 71.61018420843269894
23.009497869018190385759 191.79130290069053899 23.009497869018190385759 72.31168250758587135
24.009497869018190385759 194.29364855441767190 24.009497869018190385759 72.97148032967486131
25.009497869018190385759 196.69555709212454531 25.009497869018190385759 73.59297596829007659
26.009497869018190385759 199.00386935282287482 26.009497869018190385759 74.17961554396630675
27.009497869018204596614 201.22482692600809173 27.009497869018204596614 74.73584100687976672
28.009497869018190385759 203.36383951338365250 28.009497869018190385759 75.26274611164241435
29.009497869018190385759 205.42575495837400013 29.009497869018190385759 75.75772225274329230
30.009497869018190385759 207.41507544475331315 30.009497869018190385759 76.23157574965249239
31.009497869018190385759 209.33592534121220297 31.009497869018190385759 76.68038820270767530
32.009497869018190385759 211.19210315714482817 32.009497869018190385759 77.10599002903266808
33.009497869018218807469 212.98714124643225887 33.009497869018218807469 77.50717565906371931
34.009497869018190385759 214.72440882983002552 34.009497869018190385759 77.89353408745570562
35.009497869018218807469 216.40691466136834720 35.009497869018218807469 78.26012805822637119
36.009497869018190385759 218.03744097193657581 36.009497869018190385759 78.61334496126087856
37.009497869018218807469 219.61856528096291186 37.009497869018218807469 78.95213547520627628
38.009497869018190385759 221.15274100102888610 38.009497869018190385759 79.27794601244839612
39.009497869018190385759 222.64221347294173370 39.009497869018190385759 79.59224364245079641
40.009497869018190385759 224.08908503274895452 40.009497869018190385759 79.89335249910998016
41.009497869018190385759 225.49537328893893573 41.009497869018190385759 80.18586993101550320
42.009497869018190385759 226.86292646383549254 42.009497869018190385759 80.46266525895353539
43.009497869018190385759 228.19348866886130622 43.009497869018190385759 80.73504875261795632
44.009497869018218807469 229.48873971520694681 44.009497869018218807469 80.98762024131684711
46.009497869018218807469 231.97954634096220161 46.009497869018218807469 81.46990827426455439
48.009497869018218807469 234.34606610895045264 48.009497869018218807469 81.91276075844334059
50.009497869018218807469 236.59683037254814053 50.009497869018218807469 82.29498834827555243
52.009497869018190385759 238.74034627216914828 52.009497869018190385759 82.63425665299267564
54.009497869018190385759 240.78470745935194941 54.009497869018190385759 82.93760181530612385
56.009497869018190385759 242.73632754805311151 56.009497869018190385759 83.20624243024120403
58.009497869018190385759 244.60073667290541266 58.009497869018190385759 83.44163944058676918
60.009497869018190385759 246.38343903810454094 60.009497869018190385759 83.68793910491795884
62.009497869018190385759 248.08906239958452034 62.009497869018190385759 83.92309525298988149
64.009497869018190385759 249.72245714316133558 64.009497869018190385759 84.14704580334829132
66.009497869018218807469 251.29016281139655575 66.009497869018218807469 84.38358958986361813
68.009497869018218807469 252.79784065408313154 68.009497869018218807469 84.62083084186474480
70.009497869018218807469 254.24885466924564525 70.009497869018218807469 84.81658414681120917
72.009497869018218807469 255.64672230121138341 72.009497869018218807469 84.95021209078352342
74.009497869018190385759 256.99470525052737457 74.009497869018190385759 85.07131449972619919
76.009497869018190385759 258.29543101770502744 76.009497869018190385759 85.17686736043143014
78.009497869018190385759 259.55227251554447321 78.009497869018190385759 85.30658480785089637
80.009497869018190385759 260.76731714693403319 80.009497869018190385759 85.37118893858188073
82.009497869018190385759 261.94053142723413430 82.009497869018190385759 85.45855363388493231
84.009497869018190385759 263.07244689501254697 84.009497869018190385759 85.52702358957198214
86.009497869018190385759 264.16400043771449191 86.009497869018190385759 85.50903344506693315
88.009497869018218807469 265.21793314669156416 88.009497869018218807469 85.51774439027720121
91.009497869018190385759 266.73078145943628670 91.009497869018190385759 85.48491165722869312
94.009497869018218807469 268.16732473723891417 94.009497869018218807469 85.51345836500924236
97.009497869018190385759 269.53791539804677768 97.009497869018190385759 85.64435528774316708
99.504748934509109403734 270.63507100234357949 99.504748934509109403734 85.70873630168928514
nan nan nan nan

