Time Pressure difference Time.1 Pressure.1 difference.1
(hr) (psi) (hr) (psi)
0.000200000000006639311 0.63790808414012046 0.000200000000006639311 0.50375232583735807
0.000399999999999067768 1.15784248424031566 0.000399999999999067768 0.99646556416462806
0.000600000000005707079 1.62030342816879847 0.000600000000005707079 1.33459100832700517
0.000799999999998135536 2.04383970283400274 0.000799999999998135536 1.63846754942751383
0.001007140329434719206 2.45174094012912880 0.001007140329434719206 1.92557983775003372
0.001267914553963578328 2.93059281354290713 0.001267914553963578328 2.25523316407224206
0.001596209851982166583 3.49030067128643440 0.001596209851982166583 2.63001407854666969
0.002009509145224797066 4.14173921353444108 0.002009509145224797066 3.05429682347081854
0.002529822128138903281 4.89682734191031166 0.002529822128138903281 3.53282823789088463
0.003184857364431081805 5.76862453602584324 0.003184857364431081805 4.07083301625285721
0.004009497869020606231 6.77145402741984537 0.004009497869020606231 4.67413994978452063
0.005047658755842121536 7.92105710277088892 0.005047658755842121536 5.34932446978694198
0.006354625877790454069 9.23478162571056593 0.006354625877790454069 6.10386215426447354
0.008000000000009777068 10.73180661485043608 0.008000000000009777068 6.94628853479202757
0.010071403294347192059 12.43340376991882046 0.010071403294347192059 7.88636211403368037
0.012679145539706837553 14.36323629028588655 0.012679145539706837553 8.93522773867833209
0.015962098519750611558 16.54769446265292743 0.015962098519750611558 10.10557275487354190
0.020095091452091651263 19.01626473560250830 0.020095091452091651263 11.41176244864727707
0.025298221281360611101 21.80192534648988101 0.025298221281360611101 12.86996005402756538
0.031848573644296607199 24.94156737751642439 0.031848573644296607199 14.49830990414517373
0.040094978690177640601 28.47647009669104889 0.040094978690177640601 16.31733179319400406
0.050476587558421215363 32.45289706378486727 0.050476587558421215363 18.35053138270053807
0.063546258777961384112 36.92284325126997402 0.063546258777961384112 20.62471568802759236
0.079999999999998294697 41.94476331920046874 0.079999999999998294697 23.16890571043645508
0.100714032943542974863 47.58380006378006755 0.100714032943542974863 26.01084052583057016
0.126791455396897845276 53.91087934454552055 0.126791455396897845276 29.17121887983907769
0.159620985197506115583 61.00025744948052875 0.159620985197506115583 32.65768151126440699
0.200950914520760193227 68.92580912260036996 0.200950914520760193227 36.46147351955153937
0.252982212813478213320 77.75699388858940608 0.252982212813478213320 40.55943883592192378
0.318485736442795541734 87.55600500739981840 0.318485736442795541734 44.91816930425792975
0.400949786901833249431 98.37557271086622279 0.400949786901833249431 49.50743156538187151
0.504765875584155310207 110.26218017112101677 0.504765875584155310207 54.30465856705873051
0.635462587779443310865 123.25579476883318364 0.635462587779443310865 59.30107491423297006
0.799999999999997157829 137.39568925356755358 0.799999999999997157829 64.51055685218443614
1.007140329435344483500 152.72395500957006220 1.007140329435344483500 69.98069220893295039
1.267914553968893187630 169.29593722757067553 1.267914553968893187630 75.73086553128301546
1.596209851975103788391 187.15506035331230805 1.596209851975103788391 81.87432473733500160
2.009509145207672986544 206.39779734558305790 2.009509145207672986544 88.46119539352783079
2.529822128134711078928 227.07679442989180529 2.529822128134711078928 95.60463942509598212
3.184857364427998049905 249.32048341273738856 3.184857364427998049905 103.46146676492732297
4.009497869018190385759 273.22707228579565708 4.009497869018190385759 112.07087458915297873
5.009497869018204596614 298.03451551584635126 5.009497869018204596614 121.16450072467223720
6.009497869018204596614 319.60261677475222086 6.009497869018204596614 129.14753782289017181
7.009497869018204596614 338.76978126178028106 7.009497869018204596614 136.25753625390160551
8.009497869018204596614 356.06217608738609215 8.009497869018204596614 142.62918324891725774
9.009497869018204596614 371.83553295045464893 9.009497869018204596614 148.38103925378143799
10.009497869018190385759 386.34449014052950133 10.009497869018190385759 153.59132232331722889
11.009497869018190385759 399.77939760219942400 11.009497869018190385759 158.29200255153438093
12.009497869018190385759 412.28753538044941251 12.009497869018190385759 162.58591247409790981
13.009497869018190385759 423.98535616510025648 13.009497869018190385759 166.51845641026341127
14.009497869018190385759 434.96830194754056720 14.009497869018190385759 170.12274048318431596
15.009497869018190385759 445.31333866145047296 15.009497869018190385759 173.43832230285698870
16.009497869018204596614 455.08434750934674184 16.009497869018204596614 176.49949664301308871
17.009497869018204596614 464.33737026179920804 17.009497869018204596614 179.33787546603579699
18.009497869018204596614 473.12096385258905684 18.009497869018204596614 181.98727263870770798
19.009497869018204596614 481.47637604314701321 19.009497869018204596614 184.45474474266217157
20.009497869018204596614 489.44090479959288587 20.009497869018204596614 186.75365904024670272
21.009497869018204596614 497.04501066600658987 21.009497869018204596614 188.89477204775411678
22.009497869018190385759 504.31471598970506420 22.009497869018190385759 190.89717540974766052
23.009497869018190385759 511.27389765303450986 23.009497869018190385759 192.76721729475809752
24.009497869018190385759 517.94460688909748569 24.009497869018190385759 194.52609477804571725
25.009497869018190385759 524.34757261958930030 25.009497869018190385759 196.18286697117116546
26.009497869018190385759 530.50103103338722121 26.009497869018190385759 197.74672048192610418
27.009497869018204596614 536.42162085049903908 27.009497869018204596614 199.22949658332669287
28.009497869018190385759 542.12376315902008628 28.009497869018190385759 200.63411098726956538
29.009497869018190385759 547.62038125508195208 29.009497869018190385759 201.95360971885151002
30.009497869018190385759 552.92347698137166390 30.009497869018190385759 203.21680007533356616
31.009497869018190385759 558.04404500774080589 31.009497869018190385759 204.41323645549391586
32.009497869018190385759 562.99221133403329986 32.009497869018190385759 205.54779835325686577
33.009497869018218807469 567.77739244738575053 33.009497869018218807469 206.61727198238469327
34.009497869018190385759 572.40856995750448277 34.009497869018190385759 207.64721951695753432
35.009497869018218807469 576.89376454821012885 35.009497869018218807469 208.62447930641246785
36.009497869018190385759 581.24039304189989252 36.009497869018190385759 209.56607874288377502
37.009497869018218807469 585.45532654474197898 37.009497869018218807469 210.46922056387879252
38.009497869018190385759 589.54510532104507092 38.009497869018190385759 211.33776059021388960
39.009497869018190385759 593.51571496102508263 39.009497869018190385759 212.17560970998158609
40.009497869018190385759 597.37275983531230850 40.009497869018190385759 212.97830042866189615
41.009497869018190385759 601.12161844929346444 41.009497869018190385759 213.75808827764078046
42.009497869018190385759 604.76721776168346878 42.009497869018190385759 214.49596441710426120
43.009497869018190385759 608.31420719417940290 43.009497869018190385759 215.22207956599746126
44.009497869018218807469 611.76706475804508045 44.009497869018218807469 215.89538021889504193
46.009497869018218807469 618.40701345535012479 46.009497869018218807469 217.18105521388827128
48.009497869018218807469 624.71564042306420106 48.009497869018218807469 218.36160361335689117
50.009497869018218807469 630.71568839366273096 50.009497869018218807469 219.38053923081415064
52.009497869018190385759 636.42983555313003308 52.009497869018190385759 220.28495473808391125
54.009497869018190385759 641.87965781604430049 54.009497869018190385759 221.09360696122718082
56.009497869018190385759 647.08225248221060610 56.009497869018190385759 221.80974440952891769
58.009497869018190385759 652.05236168771864413 58.009497869018190385759 222.43726163869948209
60.009497869018190385759 656.80465844375351026 60.009497869018190385759 223.09384297199616753
62.009497869018190385759 661.35147934106748835 62.009497869018190385759 223.72071811473429648
64.009497869018190385759 665.70575445325505370 64.009497869018190385759 224.31772157126005141
66.009497869018218807469 669.88491677839124350 66.009497869018218807469 224.94829585626771973
68.009497869018218807469 673.90405797706512203 68.009497869018218807469 225.58072943255720588
70.009497869018218807469 677.77214573631795247 70.009497869018218807469 226.10256516590254705
72.009497869018218807469 681.49855679765903460 72.009497869018218807469 226.45878819956880079
74.009497869018190385759 685.09198614530509985 74.009497869018190385759 226.78162088123298190
76.009497869018190385759 688.55943812412090210 76.009497869018190385759 227.06300184942594456
78.009497869018190385759 691.90990418600051726 78.009497869018190385759 227.40880034984127178
80.009497869018190385759 695.14894889302036063 80.009497869018190385759 227.58102091054317384
82.009497869018190385759 698.27648298241456359 82.009497869018190385759 227.81391618582057390
84.009497869018190385759 701.29392342039170671 84.009497869018190385759 227.99644219501283260
86.009497869018190385759 704.20376774510100404 86.009497869018190385759 227.94848438273808711
88.009497869018218807469 707.01332310988073004 88.009497869018218807469 227.97170586798031877
91.009497869018190385759 711.04624765711798773 91.009497869018190385759 227.88418094301016481
94.009497869018218807469 714.87575957805074722 94.009497869018218807469 227.96028025685490093
97.009497869018190385759 718.52945616720683120 97.009497869018190385759 228.30922298191481445
99.504748934509109403734 721.45423436964279063 99.504748934509109403734 228.48084876179768798
nan nan nan nan

