Time Pressure difference Time.1 Pressure.1 difference.1
(hr) (psi) (hr) (psi)
0.000200000000006639311 0.35862494282504287 0.000200000000006639311 0.28320404387871373
0.000399999999999067768 0.65092637173709278 0.000399999999999067768 0.56020203358508935
0.000600000000005707079 0.91091685265211064 0.000600000000005707079 0.75029245741766959
0.000799999999998135536 1.14902431054846921 0.000799999999998135536 0.92112852281248292
0.001007140329434719206 1.37834192156513202 0.001007140329434719206 1.08253990878484463
0.001267914553963578328 1.64754720363357454 0.001267914553963578328 1.26786740069733006
0.001596209851982166583 1.96220883510132871 0.001596209851982166583 1.47856512873519219
0.002009509145224797066 2.32844045338005934 0.002009509145224797066 1.71709224404080851
0.002529822128138903281 2.75294273450679228 0.002529822128138903281 1.98611736757049751
0.003184857364431081805 3.24305757497970282 0.003184857364431081805 2.28857776535608437
0.004009497869020606231 3.80683733879822173 0.004009497869020606231 2.62775032002811360
0.005047658755842121536 4.45313160504035110 0.005047658755842121536 3.00733166709415167
0.006354625877790454069 5.19169315276265664 0.006354625877790454069 3.43152449468599752
0.008000000000009777068 6.03330421630895142 0.008000000000009777068 3.90512738523133862
0.010071403294347192059 6.98992351244192367 0.010071403294347192059 4.43362646211843625
0.012679145539706837553 8.07485423284728832 0.012679145539706837553 5.02328723617239525
0.015962098519750611558 9.30293270785960580 0.015962098519750611558 5.68124239453089785
0.020095091452091651263 10.69073589613474340 0.020095091452091651263 6.41556794376687733
0.025298221281360611101 12.25680380175799300 0.025298221281360611101 7.23535067713987434
0.031848573644296607199 14.02187618735997887 0.031848573644296607199 8.15079114014131711
0.040094978690177640601 16.00915980560242957 0.040094978690177640601 9.17342533647224911
0.050476587558421215363 18.24466352342134101 0.050476587558421215363 10.31646789176696899
0.063546258777961384112 20.75761834524132610 0.063546258777961384112 11.59498941665232863
0.079999999999998294697 23.58088684114255074 0.079999999999998294697 13.02530520039462303
0.100714032943542974863 26.75109157814501160 0.100714032943542974863 14.62300984785499658
0.126791455396897845276 30.30810629817732860 0.126791455396897845276 16.39973996727271555
0.159620985197506115583 34.29367707358855455 0.159620985197506115583 18.35979109837252921
0.200950914520760193227 38.74933547688479507 0.200950914520760193227 20.49824133188717923
0.252982212813478213320 43.71413089259006313 0.252982212813478213320 22.80207257939889232
0.318485736442795541734 49.22302769072725681 0.318485736442795541734 25.25250314119973183
0.400949786901833249431 55.30567023048698161 0.400949786901833249431 27.83253615367239675
0.504765875584155310207 61.98819084247102040 0.504765875584155310207 30.52948466705292319
0.635462587779443310865 69.29305875063755593 0.635462587779443310865 33.33841525029018271
0.799999999999997157829 77.24235266494096663 0.799999999999997157829 36.26712897660119950
1.007140329435344483500 85.85973590090257801 1.007140329435344483500 39.34237920203693761
1.267914553968893187630 95.17632291898253527 1.267914553968893187630 42.57506370664169282
1.596209851975103788391 105.21652646728502134 1.596209851975103788391 46.02884923044207000
2.009509145207672986544 116.03458258731782848 2.009509145207672986544 49.73191581825196295
2.529822128134711078928 127.66008841083468894 2.529822128134711078928 53.74788186584998328
3.184857364427998049905 140.16524689372795365 3.184857364427998049905 58.16490420117803950
4.009497869018190385759 153.60526949400454555 4.009497869018190385759 63.00501904763325456
5.009497869018204596614 167.55174255368476111 5.009497869018204596614 68.11735612879583357
6.009497869018204596614 179.67709301267163369 6.009497869018204596614 72.60533220888849826
7.009497869018204596614 190.45266309741876398 7.009497869018204596614 76.60249550592479295
8.009497869018204596614 200.17425819838123857 8.009497869018204596614 80.18456570710273468
9.009497869018204596614 209.04186678309142167 9.009497869018204596614 83.41819619739952429
10.009497869018190385759 217.19864371084494792 10.009497869018190385759 86.34736031111863497
11.009497869018190385759 224.75160163705737659 11.009497869018190385759 88.99003128519098027
12.009497869018190385759 231.78353979099890125 12.009497869018190385759 91.40402044563714412
13.009497869018190385759 238.35992660028023238 13.009497869018190385759 93.61485360377993459
14.009497869018190385759 244.53441850782132860 14.009497869018190385759 95.64114265970064821
15.009497869018190385759 250.35028491912390791 15.009497869018190385759 97.50512646877034229
16.009497869018204596614 255.84343914704567169 16.009497869018204596614 99.22608517741532808
17.009497869018204596614 261.04538726160853912 17.009497869018204596614 100.82179068488581208
18.009497869018204596614 265.98342743951525335 18.009497869018204596614 102.31125277698491516
19.009497869018204596614 270.68074872077420423 19.009497869018204596614 103.69843858667076120
20.009497869018204596614 275.15831961370150793 20.009497869018204596614 104.99086304252674040
21.009497869018204596614 279.43326470277980889 21.009497869018204596614 106.19457334027968898
22.009497869018190385759 283.52021346684915670 22.009497869018190385759 107.32030259353972212
23.009497869018190385759 287.43258922782536047 23.009497869018190385759 108.37161967317246081
24.009497869018190385759 291.18278894760203457 24.009497869018190385759 109.36044134288142970
25.009497869018190385759 294.78246619907264403 25.009497869018190385759 110.29186053603153539
26.009497869018190385759 298.24187316802363057 26.009497869018190385759 111.17104186297338231
27.009497869018204596614 301.57036396072828666 27.009497869018204596614 112.00464235779062960
28.009497869018190385759 304.77604595507096974 28.009497869018190385759 112.79430120179830510
29.009497869018190385759 307.86618448668787096 29.009497869018190385759 113.53610894641900586
30.009497869018190385759 310.84752686017412771 30.009497869018190385759 114.24626073886911115
31.009497869018190385759 313.72625415858067299 31.009497869018190385759 114.91888417647170684
32.009497869018190385759 316.50805910818786515 32.009497869018190385759 115.55672245730359293
33.009497869018218807469 319.19823555499795020 33.009497869018218807469 116.15796882591777717
34.009497869018190385759 321.80183286168158929 34.009497869018190385759 116.73699405679703034
35.009497869018218807469 324.32336016889422581 35.009497869018218807469 117.28639881405278800
36.009497869018190385759 326.76698713300839927 36.009497869018190385759 117.81575571117346612
37.009497869018218807469 329.13657661470568883 37.009497869018218807469 118.32349215780250518
38.009497869018190385759 331.43580547899551902 38.009497869018190385759 118.81177585419985121
39.009497869018190385759 333.66803875918321864 39.009497869018190385759 119.28280545884535968
40.009497869018190385759 335.83642717109592013 40.009497869018190385759 119.73406939521788672
41.009497869018190385759 337.94399445159285733 41.009497869018190385759 120.17245758892242691
42.009497869018190385759 339.99351048293647182 42.009497869018190385759 120.58728347827253913
43.009497869018190385759 341.98758911911579617 43.009497869018190385759 120.99549746745131529
44.009497869018218807469 343.92874784905018259 44.009497869018218807469 121.37401972505044512
46.009497869018218807469 347.66165433061973999 46.009497869018218807469 122.09681213517100673
48.009497869018218807469 351.20829536222015577 48.009497869018218807469 122.76050352392701370
50.009497869018218807469 354.58145665912383038 50.009497869018218807469 123.33333797553234490
52.009497869018190385759 357.79388764927210786 52.009497869018190385759 123.84179047464419909
54.009497869018190385759 360.85771807568659142 54.009497869018190385759 124.29640590357549002
56.009497869018190385759 363.78255985318304511 56.009497869018190385759 124.69901053869037355
58.009497869018190385759 366.57670084931447718 58.009497869018190385759 125.05179385658227886
60.009497869018190385759 369.24839007036888461 60.009497869018190385759 125.42091669569934709
62.009497869018190385759 371.80456301263990326 62.009497869018190385759 125.77333903962673389
64.009497869018190385759 374.25248882197922740 64.009497869018190385759 126.10896784851932750
66.009497869018218807469 376.60196813909561797 66.009497869018218807469 126.46346980974256269
68.009497869018218807469 378.86148533038982578 68.009497869018218807469 126.81901704417396104
70.009497869018218807469 381.03608193136284399 70.009497869018218807469 127.11238738182582608
72.009497869018218807469 383.13102944346002232 72.009497869018218807469 127.31265207239438553
74.009497869018190385759 385.15121609163912808 74.009497869018190385759 127.49414507253396778
76.009497869018190385759 387.10057964191872770 76.009497869018190385759 127.65233437306036990
78.009497869018190385759 388.98417499013959286 78.009497869018190385759 127.84673850513462412
80.009497869018190385759 390.80513047219551481 80.009497869018190385759 127.94355901936009445
82.009497869018190385759 392.56339590553659491 82.009497869018190385759 128.07449019401852297
84.009497869018190385759 394.25976789305599368 84.009497869018190385759 128.17710431858930065
86.009497869018190385759 395.89565052336519102 86.009497869018190385759 128.15014296143982619
88.009497869018218807469 397.47515179809209940 88.009497869018218807469 128.16319782627749646
91.009497869018190385759 399.74241783708623643 91.009497869018190385759 128.11399227144354995
94.009497869018218807469 401.89532752397877857 94.009497869018218807469 128.15677447275922418
97.009497869018190385759 403.94939575569338785 97.009497869018190385759 128.35294625351431819
99.504748934509109403734 405.59367404860518036 99.504748934509109403734 128.44943238847332623
nan nan nan nan

