Time Pressure difference Time.1 Pressure.1 difference.1
(hr) (psi) (hr) (psi)
0.000200000000006639311 0.61505764530525053 0.000200000000006639311 0.48570746640437812
0.000399999999999067768 1.11636752958096097 0.000399999999999067768 0.96077127529902939
0.000600000000005707079 1.56226270835379677 0.000600000000005707079 1.28678476325260505
0.000799999999998135536 1.97062753437427740 0.000799999999998135536 1.57977617452264774
0.001007140329434719206 2.36391738406480201 0.001007140329434719206 1.85660384356197272
0.001267914553963578328 2.82561635455032523 0.001267914553963578328 2.17444869252338568
0.001596209851982166583 3.36527497559856181 0.001596209851982166583 2.53580461901663989
0.002009509145224797066 3.99337840588544646 0.002009509145224797066 2.94488917606290901
0.002529822128138903281 4.72141860130456958 0.002529822128138903281 3.40627916668285291
0.003184857364431081805 5.56198723921297766 0.003184857364431081805 3.92501213208857580
0.004009497869020606231 6.52889448016898566 0.004009497869020606231 4.50670807098626902
0.005047658755842121536 7.63731774386566276 0.005047658755842121536 5.15770687683934970
0.006354625877790454069 8.90398347792391931 0.006354625877790454069 5.88521634575350738
0.008000000000009777068 10.34738369133340541 0.008000000000009777068 6.69746625891887959
0.010071403294347192059 11.98802811248889100 0.010071403294347192059 7.60386556069515951
0.012679145539706837553 13.84873230376818398 0.012679145539706837553 8.61515987938239114
0.015962098519750611558 15.95494122816984017 0.015962098519750611558 9.74358208902732592
0.020095091452091651263 18.33508510328241670 0.020095091452091651263 11.00298289824797315
0.025298221281360611101 21.02096085646636325 0.025298221281360611101 12.40894655955493420
0.031848573644296607199 24.04813809832180738 0.031848573644296607199 13.97896745981758571
0.040094978690177640601 27.45641743651107092 0.040094978690177640601 15.73283035582585931
0.050476587558421215363 31.29040522866421270 0.050476587558421215363 17.69319891526052047
0.063546258777961384112 35.60023394077671810 0.063546258777961384112 19.88591990218780126
0.079999999999998294697 40.44226433463209247 0.079999999999998294697 22.33897475961484957
0.100714032943542974863 45.87930573313720117 0.100714032943542974863 25.07910892490529520
0.126791455396897845276 51.97974336802448647 0.126791455396897845276 28.12627969608364964
0.159620985197506115583 58.81517360054391474 0.159620985197506115583 31.48785411384598376
0.200950914520760193227 66.45682491522364899 0.200950914520760193227 35.15539088601536122
0.252982212813478213320 74.97166873437126355 0.252982212813478213320 39.10656341493366739
0.318485736442795541734 84.41967049967206549 0.318485736442795541734 43.30916025455316998
0.400949786901833249431 94.85167159883519616 0.400949786901833249431 47.73403103169655282
0.504765875584155310207 106.31249013514057822 0.504765875584155310207 52.35941706614917024
0.635462587779443310865 118.84066182188988137 0.635462587779443310865 57.17685730536492628
0.799999999999997157829 132.47405262358901723 0.799999999999997157829 62.19973093509125306
1.007140329435344483500 147.25324617340635314 1.007140329435344483500 67.47392114473237257
1.267914553968893187630 163.23160514777711683 1.267914553968893187630 73.01811810926690782
1.596209851975103788391 180.45099848991006297 1.596209851975103788391 78.94151310495286111
2.009509145207672986544 199.00444341081589528 2.009509145207672986544 85.29243615555073177
2.529822128134711078928 218.94270030105985825 2.529822128134711078928 92.17999562479404574
3.184857364427998049905 240.38960042481843971 3.184857364427998049905 99.75538437334783737
4.009497869018190385759 263.43983387555823583 4.009497869018190385759 108.05639549939226640
5.009497869018204596614 287.35865227348767803 5.009497869018204596614 116.82427980319143046
6.009497869018204596614 308.15416483058191943 6.009497869018204596614 124.52135736356277107
7.009497869018204596614 326.63474432105982714 7.009497869018204596614 131.37666928361261398
8.009497869018204596614 343.30771007828565189 8.009497869018204596614 137.52007817731424666
9.009497869018204596614 358.51605117312493576 9.009497869018204596614 143.06589754916839752
10.009497869018190385759 372.50528452355536047 10.009497869018190385759 148.08954361322824411
11.009497869018190385759 385.45894156868774871 11.009497869018190385759 152.62184126610628709
12.009497869018190385759 397.51902665040341844 12.009497869018190385759 156.76193948995111782
13.009497869018190385759 408.79782101888770285 13.009497869018190385759 160.55361618064202389
14.009497869018190385759 419.38734784792717392 14.009497869018190385759 164.02879157035386015
15.009497869018190385759 429.36181608253286868 15.009497869018190385759 167.22560628006806382
16.009497869018204596614 438.78281864334030615 16.009497869018204596614 170.17712661400966567
17.009497869018204596614 447.70438983451089143 17.009497869018204596614 172.91383216575991355
18.009497869018204596614 456.17334723697388199 18.009497869018204596614 175.46832555911220197
19.009497869018204596614 464.22946108040747504 19.009497869018204596614 177.84741060262649626
20.009497869018204596614 471.90869328438367347 20.009497869018204596614 180.06397573134233880
21.009497869018204596614 479.24041326901533466 21.009497869018204596614 182.12839215350621203
22.009497869018190385759 486.24971123783507210 22.009497869018190385759 184.05906763387608294
23.009497869018190385759 492.95960878188100196 23.009497869018190385759 185.86212294390108468
24.009497869018190385759 499.39136723933870599 24.009497869018190385759 187.55799586062317985
25.009497869018190385759 505.56497300336530998 25.009497869018190385759 189.15542099011429400
26.009497869018190385759 511.49800902622109788 26.009497869018190385759 190.66325586764816080
27.009497869018204596614 517.20651801406324921 27.009497869018204596614 192.09291760123738868
28.009497869018190385759 522.70440447869691525 28.009497869018190385759 193.44721745936735147
29.009497869018190385759 528.00412879221335061 29.009497869018190385759 194.71945056474339708
30.009497869018190385759 533.11726288054637735 30.009497869018190385759 195.93739231144101609
31.009497869018190385759 538.05440757462770307 31.009497869018190385759 197.09097126902847208
32.009497869018190385759 542.82532615191860259 32.009497869018190385759 198.18489214358794470
33.009497869018218807469 547.43909779255398007 33.009497869018218807469 199.21605626958287871
34.009497869018190385759 551.90438237693706469 34.009497869018190385759 200.20911016112620473
35.009497869018218807469 556.22891328081152551 35.009497869018218807469 201.15136362976485884
36.009497869018190385759 560.41984164935422541 36.009497869018190385759 202.05923413119839438
37.009497869018218807469 564.48379245955720762 37.009497869018218807469 202.93002460338163928
38.009497869018190385759 568.42707169760478791 38.009497869018190385759 203.76745274817636755
39.009497869018190385759 572.25545054451072247 39.009497869018190385759 204.57528936216132820
40.009497869018190385759 575.97433261733090148 40.009497869018190385759 205.34922698047103040
41.009497869018190385759 579.58890375857254185 41.009497869018190385759 206.10108213038199665
42.009497869018190385759 583.10391443887681362 42.009497869018190385759 206.81252688574528520
43.009497869018190385759 586.52384753349235780 43.009497869018190385759 207.51263193975279364
44.009497869018218807469 589.85302064730910843 44.009497869018218807469 208.16181436030777263
46.009497869018218807469 596.25512043605397139 46.009497869018218807469 209.40143532562959194
48.009497869018218807469 602.33776673626789488 48.009497869018218807469 210.53969542422171912
50.009497869018218807469 608.12288761538229664 50.009497869018218807469 211.52213185538201401
52.009497869018190385759 613.63234890645071573 52.009497869018190385759 212.39415038925702106
54.009497869018190385759 618.88695365546959692 54.009497869018190385759 213.17383596560114256
56.009497869018190385759 623.90318672165369662 56.009497869018190385759 213.86432072918756830
58.009497869018190385759 628.69526216457654755 58.009497869018190385759 214.46935972925354008
60.009497869018190385759 633.27732739502209824 60.009497869018190385759 215.10242173120823850
62.009497869018190385759 637.66127709601437346 62.009497869018190385759 215.70684164495276036
64.009497869018190385759 641.85957817433245509 64.009497869018190385759 216.28245990303577173
66.009497869018218807469 645.88903916244896664 66.009497869018218807469 216.89044645246110576
68.009497869018218807469 649.76421112415539483 68.009497869018218807469 217.50022569168947939
70.009497869018218807469 653.49374051591257739 70.009497869018218807469 218.00336880175083820
72.009497869018218807469 657.08666819595180186 72.009497869018218807469 218.34683160734545027
74.009497869018190385759 660.55137768636870987 74.009497869018190385759 218.65810013324852434
76.009497869018190385759 663.89462243012246745 76.009497869018190385759 218.92940178317783761
78.009497869018190385759 667.12507179724832440 78.009497869018190385759 219.26281347163796909
80.009497869018190385759 670.24809102222559432 80.009497869018190385759 219.42886493762821942
82.009497869018190385759 673.26359403976084650 82.009497869018190385759 219.65341769558222040
84.009497869018190385759 676.17294705906419949 84.009497869018190385759 219.82940545966911827
86.009497869018190385759 678.97855815423167769 86.009497869018190385759 219.78316553917733245
88.009497869018218807469 681.68747272982523100 88.009497869018218807469 219.80555521002281694
91.009497869018190385759 685.57593430820634239 91.009497869018190385759 219.72116550624562592
94.009497869018218807469 689.26826968271757323 94.009497869018218807469 219.79453887451978744
97.009497869018190385759 692.79108758808297353 97.009497869018190385759 220.13098215868203056
99.504748934509109403734 695.61109761610327951 99.504748934509109403734 220.29646014943477894
nan nan nan nan

