Time Pressure difference Time.1 Pressure.1 difference.1
(hr) (psi) (hr) (psi)
0.000200000000006639311 0.53190743732280688 0.000200000000006639311 0.42004422791214535
0.000399999999999067768 0.96544477790386518 0.000399999999999067768 0.83088372414921219
0.000600000000005707079 1.35105897791587393 0.000600000000005707079 1.11282314923187098
0.000799999999998135536 1.70421658803472065 0.000799999999998135536 1.36620478250771815
0.001007140329434719206 2.04433722171961163 0.001007140329434719206 1.60560786471097350
0.001267914553963578328 2.44361868432731910 0.001267914553963578328 1.88048297660949149
0.001596209851982166583 2.91032036073436018 0.001596209851982166583 2.19298686350458638
0.002009509145224797066 3.45350991138493724 0.002009509145224797066 2.54676690355079183
0.002529822128138903281 4.08312568410033983 0.002529822128138903281 2.94578115756473746
0.003184857364431081805 4.81005707581060360 0.003184857364431081805 3.39438613693521862
0.004009497869020606231 5.64624723878391155 0.004009497869020606231 3.89744206758152067
0.005047658755842121536 6.60482174340497963 0.005047658755842121536 4.46043174694672384
0.006354625877790454069 7.70024577347806538 0.006354625877790454069 5.08958854256082471
0.008000000000009777068 8.94851138631310050 0.008000000000009777068 5.79202964393603814
0.010071403294347192059 10.36735558128554402 0.010071403294347192059 6.57589199160221227
0.012679145539706837553 11.97650946393987326 0.012679145539706837553 7.45046850249994197
0.015962098519750611558 13.79797806935637183 0.015962098519750611558 8.42633827719803996
0.020095091452091651263 15.85634810789542470 0.020095091452091651263 9.51547953429494342
0.025298221281360611101 18.17911785110300471 0.025298221281360611101 10.73136967689064569
0.031848573644296607199 20.79704822125250274 0.031848573644296607199 12.08913800962552898
0.040094978690177640601 23.74455914530059530 0.040094978690177640601 13.60589456984733481
0.050476587558421215363 27.06022660641962219 0.050476587558421215363 15.30123910318711644
0.063546258777961384112 30.78740561648183061 0.063546258777961384112 17.19752412593743784
0.079999999999998294697 34.97483747411939703 0.079999999999998294697 19.31894824412512435
0.100714032943542974863 39.67684025218676425 0.100714032943542974863 21.68864115487165733
0.126791455396897845276 44.95255412012849661 0.126791455396897845276 24.32386211075139215
0.159620985197506115583 50.86389626135788689 0.159620985197506115583 27.23098219546226062
0.200950914520760193227 57.47246571615832522 0.200950914520760193227 30.40270130286983985
0.252982212813478213320 64.83617997874419814 0.252982212813478213320 33.81971118855977210
0.318485736442795541734 73.00689770766273057 0.318485736442795541734 37.45415510146084159
0.400949786901833249431 82.02858699672228227 0.400949786901833249431 41.28082353411941341
0.504765875584155310207 91.94000694865613355 0.504765875584155310207 45.28089938228379907
0.635462587779443310865 102.77448359829072899 0.635462587779443310865 49.44706545087286997
0.799999999999997157829 114.56476377561155289 0.799999999999997157829 53.79089218122442873
1.007140329435344483500 127.34594457514400290 1.007140329435344483500 58.35205977222469187
1.267914553968893187630 141.16417452408381905 1.267914553968893187630 63.14673165693051260
1.596209851975103788391 156.05566226475195890 1.596209851975103788391 68.26933744267336124
2.009509145207672986544 172.10084992596875963 2.009509145207672986544 73.76167337291177262
2.529822128134711078928 189.34363555447694694 2.529822128134711078928 79.71809735147307663
3.184857364427998049905 207.89110955211336318 3.184857364427998049905 86.26936233732249093
4.009497869018190385759 227.82516077163859336 4.009497869018190385759 93.44815214498525791
5.009497869018204596614 248.51037214157139488 5.009497869018204596614 101.03069811669188027
6.009497869018204596614 266.49452025596252724 6.009497869018204596614 107.68720069212136536
7.009497869018204596614 282.47669323121584739 7.009497869018204596614 113.61573669728313973
8.009497869018204596614 296.89562543405924089 8.009497869018204596614 118.92861250009221408
9.009497869018204596614 310.04793692784176073 9.009497869018204596614 123.72468745738194684
10.009497869018190385759 322.14595297289923792 10.009497869018190385759 128.06918219596002473
11.009497869018190385759 333.34839322452046417 11.009497869018190385759 131.98875436635404412
12.009497869018190385759 343.77806432718068663 12.009497869018190385759 135.56914890875032143
13.009497869018190385759 353.53206812572534545 13.009497869018190385759 138.84822534507537739
14.009497869018190385759 362.68998709655619450 14.009497869018190385759 141.85358858199847987
15.009497869018190385759 371.31599780924926790 15.009497869018190385759 144.61822297491954714
16.009497869018204596614 379.46336638092793692 16.009497869018204596614 147.17072456402485159
17.009497869018204596614 387.17882216854502531 17.009497869018204596614 149.53745237864478668
18.009497869018204596614 394.50285344126331211 18.009497869018204596614 151.74660146391744320
19.009497869018204596614 401.46985385488278553 19.009497869018204596614 153.80405581527449499
20.009497869018204596614 408.11092360403870316 20.009497869018204596614 155.72096146838481445
21.009497869018204596614 414.45146162996371686 21.009497869018204596614 157.50628753832631901
22.009497869018190385759 420.51316616853023334 22.009497869018190385759 159.17595322723235540
23.009497869018190385759 426.31594650073918729 23.009497869018190385759 160.73525183383807757
24.009497869018190385759 431.87818962493901154 24.009497869018190385759 162.20185813333566216
25.009497869018190385759 437.21717995543872348 25.009497869018190385759 163.58332589237951993
26.009497869018190385759 442.34812338903327600 26.009497869018190385759 164.88731518791450981
27.009497869018204596614 447.28489380369967421 27.009497869018204596614 166.12369963863460498
28.009497869018190385759 452.03951594752123810 28.009497869018190385759 167.29491045505659486
29.009497869018190385759 456.62276566344138473 29.009497869018190385759 168.39514919840553375
30.009497869018190385759 461.04465045809894264 30.009497869018190385759 169.44843628172091599
31.009497869018190385759 465.31433802635501706 31.009497869018190385759 170.44606184050141451
32.009497869018190385759 469.44027173922376051 32.009497869018190385759 171.39209454729277127
33.009497869018218807469 473.43030335413857301 33.009497869018218807469 172.28385464799839610
34.009497869018190385759 477.29192201431715148 34.009497869018190385759 173.14265667185117081
35.009497869018218807469 481.03181561333337868 35.009497869018218807469 173.95752602863052516
36.009497869018190385759 484.65616852647974611 36.009497869018190385759 174.74266068312101652
37.009497869018218807469 488.17071009402366144 37.009497869018218807469 175.49572819157259573
38.009497869018190385759 491.58089379008538344 38.009497869018190385759 176.21994365631766755
39.009497869018190385759 494.89171058441689866 39.009497869018190385759 176.91856809648214721
40.009497869018190385759 498.10783357412105943 40.009497869018190385759 177.58787637733200881
41.009497869018190385759 501.23374752289350909 41.009497869018190385759 178.23808753896813073
42.009497869018190385759 504.27356068088630536 42.009497869018190385759 178.85335142441130074
43.009497869018190385759 507.23114987932569875 43.009497869018190385759 179.45880863314016551
44.009497869018218807469 510.11024902213108589 44.009497869018218807469 180.02022748600401769
46.009497869018218807469 515.64684306028198080 46.009497869018218807469 181.09226295446603672
48.009497869018218807469 520.90717082042567654 48.009497869018218807469 182.07664062486870193
50.009497869018218807469 525.91019589441737025 50.009497869018218807469 182.92626057255947103
52.009497869018190385759 530.67482805325664685 52.009497869018190385759 183.68039011991473330
54.009497869018190385759 535.21905796004489275 54.009497869018190385759 184.35466928707302259
56.009497869018190385759 539.55714187073874655 56.009497869018190385759 184.95180678127883311
58.009497869018190385759 543.70137223314247876 58.009497869018190385759 185.47505000321407920
60.009497869018190385759 547.66398385658249026 60.009497869018190385759 186.02252777167441877
62.009497869018190385759 551.45526337095975578 62.009497869018190385759 186.54523560213664268
64.009497869018190385759 555.08599227047534441 64.009497869018190385759 187.04303549921979766
66.009497869018218807469 558.57070672665861366 66.009497869018218807469 187.56882778860929761
68.009497869018218807469 561.92199063162252060 68.009497869018218807469 188.09617041242083246
70.009497869018218807469 565.14732151943724148 70.009497869018218807469 188.53129314330979582
72.009497869018218807469 568.25451800640621514 72.009497869018218807469 188.82832289675488369
74.009497869018190385759 571.25083023857268927 74.009497869018190385759 189.09751074474948496
76.009497869018190385759 574.14209865473958416 76.009497869018190385759 189.33213487544173859
78.009497869018190385759 576.93582060484413887 78.009497869018190385759 189.62047233150940428
80.009497869018190385759 579.63663599238907409 80.009497869018190385759 189.76407514729868353
82.009497869018190385759 582.24447038732671444 82.009497869018190385759 189.95827041165932769
84.009497869018190385759 584.76050529978931536 84.009497869018190385759 190.11046622827936403
86.009497869018190385759 587.18682325412396494 86.009497869018190385759 190.07047752510896999
88.009497869018218807469 589.52951718017914118 88.009497869018218807469 190.08984031578856388
91.009497869018190385759 592.89229406633330655 91.009497869018190385759 190.01685933357467206
94.009497869018218807469 596.08545923025519642 94.009497869018218807469 190.08031328880036881
97.009497869018190385759 599.13202414738248081 97.009497869018190385759 190.37127249636279203
99.504748934509109403734 601.57079442961253335 99.504748934509109403734 190.51437936555865349
nan nan nan nan

