Time Pressure difference Time.1 Pressure.1 difference.1
(hr) (psi) (hr) (psi)
0.000200000000006639311 0.59093773764622104 0.000200000000006639311 0.46666011478067698
0.000399999999999067768 1.07258841077386458 0.000399999999999067768 0.92309397038534191
0.000600000000005707079 1.50099750410462818 0.000600000000005707079 1.23632261567407165
0.000799999999998135536 1.89334802322234474 0.000799999999998135536 1.51782416767862238
0.001007140329434719206 2.27121474155245640 0.001007140329434719206 1.78379584969679739
0.001267914553963578328 2.71480787005815527 0.001267914553963578328 2.08917619477737038
0.001596209851982166583 3.23330340792803028 0.001596209851982166583 2.43636130062383049
0.002009509145224797066 3.83677533114484026 0.002009509145224797066 2.82940332602122613
0.002529822128138903281 4.53626493066517433 0.002529822128138903281 3.27269959151881951
0.003184857364431081805 5.34387009257717338 0.003184857364431081805 3.77109008769294585
0.004009497869020606231 6.27285940251529972 0.004009497869020606231 4.32997442114367015
0.005047658755842121536 7.33781508724347997 0.005047658755842121536 4.95544386206133680
0.006354625877790454069 8.55480765526023568 0.006354625877790454069 5.65442354788082024
0.008000000000009777068 9.94160393873209536 0.008000000000009777068 6.43482052327500220
0.010071403294347192059 11.51790936297952328 0.010071403294347192059 7.30567475439338843
0.012679145539706837553 13.30564476244394179 0.012679145539706837553 8.27731047234778750
0.015962098519750611558 15.32925725843768738 0.015962098519750611558 9.36148083063409686
0.020095091452091651263 17.61606215805565512 0.020095091452091651263 10.57149337282648283
0.025298221281360611101 20.19660945033042765 0.025298221281360611101 11.92232120427827091
0.031848573644296607199 23.10507385917193091 0.031848573644296607199 13.43077265747179716
0.040094978690177640601 26.37969518409887115 0.040094978690177640601 15.11585661638170741
0.050476587558421215363 30.06333051381463761 0.050476587558421215363 16.99934797740716519
0.063546258777961384112 34.20414633525606973 0.063546258777961384112 19.10607990602357376
0.079999999999998294697 38.85629318425436196 0.079999999999998294697 21.46293653374760169
0.100714032943542974863 44.08011727301417437 0.100714032943542974863 24.09561445726195217
0.126791455396897845276 49.94132205947450132 0.126791455396897845276 27.02328833545292142
0.159620985197506115583 56.50869620444414920 0.159620985197506115583 30.25303630545986522
0.200950914520760193227 63.85067491854820787 0.200950914520760193227 33.77674810617161683
0.252982212813478213320 72.03160329380769156 0.252982212813478213320 37.57297269277940899
0.318485736442795541734 81.10909518595943268 0.318485736442795541734 41.61076181319814538
0.400949786901833249431 91.13199820280243557 0.400949786901833249431 45.86210824613982595
0.504765875584155310207 102.14337287493897577 0.504765875584155310207 50.30610659296684872
0.635462587779443310865 114.18024371122753280 0.635462587779443310865 54.93462760711532411
0.799999999999997157829 127.27899173638942898 0.799999999999997157829 59.76052580038179229
1.007140329435344483500 141.47860906856689667 1.007140329435344483500 64.82788502140952858
1.267914553968893187630 156.83036573021720983 1.267914553968893187630 70.15466249713880131
1.596209851975103788391 173.37448874520774211 1.596209851975103788391 75.84576749299392873
2.009509145207672986544 191.20034759078390607 2.009509145207672986544 81.94763473768598772
2.529822128134711078928 210.35671205395945549 2.529822128134711078928 88.56509383558643833
3.184857364427998049905 230.96255727090397158 3.184857364427998049905 95.84340851556947882
4.009497869018190385759 253.10885999808536440 4.009497869018190385759 103.81888979353374225
5.009497869018204596614 276.08968551766463406 5.009497869018204596614 112.24293549718393592
6.009497869018204596614 296.06968777840228313 6.009497869018204596614 119.63816687871715772
7.009497869018204596614 313.82553866141040544 7.009497869018204596614 126.22464303719642942
8.009497869018204596614 329.84466262423524086 8.009497869018204596614 132.12713393506663806
9.009497869018204596614 344.45659818594356238 9.009497869018204596614 137.45547019429903912
10.009497869018190385759 357.89723415008256779 10.009497869018190385759 142.28211053035656164
11.009497869018190385759 370.34290464442551638 11.009497869018190385759 146.63667102037663881
12.009497869018190385759 381.93004521313275745 12.009497869018190385759 150.61441245112951037
13.009497869018190385759 392.76653392010780408 13.009497869018190385759 154.25739593826392593
14.009497869018190385759 402.94078518722415083 14.009497869018190385759 157.59628994014386194
15.009497869018190385759 412.52409780478649282 15.009497869018190385759 160.66773936712422710
16.009497869018204596614 421.57564928477796684 16.009497869018204596614 163.50351380561710357
17.009497869018204596614 430.14735493903987162 17.009497869018204596614 166.13289757102421618
18.009497869018204596614 438.28419636493572398 18.009497869018204596614 168.58721475287248381
19.009497869018204596614 446.02438417529344861 19.009497869018204596614 170.87300234369996588
20.009497869018204596614 453.40247001832938167 20.009497869018204596614 173.00264334972104052
21.009497869018204596614 460.44667157219117826 21.009497869018204596614 174.98610226513343946
22.009497869018190385759 467.18109511086112207 22.009497869018190385759 176.84106498156722864
23.009497869018190385759 473.62785941788570199 23.009497869018190385759 178.57341224021868697
24.009497869018190385759 479.80739205348231735 24.009497869018190385759 180.20278033667716500
25.009497869018190385759 485.73889563068428288 25.009497869018190385759 181.73756134344313296
26.009497869018190385759 491.43926357421236162 26.009497869018190385759 183.18626544146587776
27.009497869018204596614 496.92390946449216926 27.009497869018204596614 184.55986200903200256
28.009497869018190385759 502.20619253835582185 28.009497869018190385759 185.86105206880395713
29.009497869018190385759 507.29808452585194800 29.009497869018190385759 187.08339367985149693
30.009497869018190385759 512.21070355189749534 30.009497869018190385759 188.25357300510998471
31.009497869018190385759 516.95423472856384706 31.009497869018190385759 189.36191357220383225
32.009497869018190385759 521.53805845968656740 32.009497869018190385759 190.41293558893744375
33.009497869018218807469 525.97089787912057091 33.009497869018218807469 191.40366190606982855
34.009497869018190385759 530.26107326411602116 34.009497869018190385759 192.35777250774870595
35.009497869018218807469 534.41601472077968538 35.009497869018218807469 193.26307485997017466
36.009497869018190385759 538.44259295722258685 36.009497869018190385759 194.13534259664160686
37.009497869018218807469 542.34717314741772043 37.009497869018218807469 194.97198442285687747
38.009497869018190385759 546.13581398397320754 38.009497869018190385759 195.77657224824790205
39.009497869018190385759 549.81406032707889153 39.009497869018190385759 196.55272899501775896
40.009497869018190385759 553.38710388723950473 40.009497869018190385759 197.29631611849177375
41.009497869018190385759 556.85992714058920683 41.009497869018190385759 198.01868675271995812
42.009497869018190385759 560.23709426480320417 42.009497869018190385759 198.70223171375528182
43.009497869018190385759 563.52291233610048948 43.009497869018190385759 199.37488166760562081
44.009497869018218807469 566.72152964153235644 44.009497869018218807469 199.99860595402120111
46.009497869018218807469 572.87256669346356830 46.009497869018218807469 201.18961433246764159
48.009497869018218807469 578.71667784464955275 48.009497869018218807469 202.28323678013458675
50.009497869018218807469 584.27493123830845434 50.009497869018218807469 203.22714629242585715
52.009497869018190385759 589.56833522384476964 52.009497869018190385759 204.06496802105087340
54.009497869018190385759 594.61687704152961942 54.009497869018190385759 204.81407769244029282
56.009497869018190385759 599.43639508551052586 56.009497869018190385759 205.47748462216063103
58.009497869018190385759 604.04054600125982688 58.009497869018190385759 206.05879660261612685
60.009497869018190385759 608.44292239913886533 60.009497869018190385759 206.66703264370988791
62.009497869018190385759 612.65495250401386329 62.009497869018190385759 207.24774981573889931
64.009497869018190385759 616.68861432435858205 64.009497869018190385759 207.80079480879911102
66.009497869018218807469 620.56005723450971345 66.009497869018218807469 208.38493874844303377
68.009497869018218807469 624.28326166830606780 68.009497869018218807469 208.97080507632909985
70.009497869018218807469 627.86653500548470674 70.009497869018218807469 209.45421708403512184
72.009497869018218807469 631.31856356081641479 72.009497869018218807469 209.78421075999855816
74.009497869018190385759 634.64740209082481215 74.009497869018190385759 210.08327267704268593
76.009497869018190385759 637.85953919756866526 76.009497869018190385759 210.34393504658265783
78.009497869018190385759 640.96330427578755007 78.009497869018190385759 210.66427176686786993
80.009497869018190385759 643.96385215860891549 80.009497869018190385759 210.82381141066241526
82.009497869018190385759 646.86110015584870325 82.009497869018190385759 211.03955817810839335
84.009497869018190385759 649.65636089988515778 84.009497869018190385759 211.20864446125071368
86.009497869018190385759 652.35194803053627766 86.009497869018190385759 211.16421787097428364
88.009497869018218807469 654.95463066198897195 88.009497869018218807469 211.18572951551209371
91.009497869018190385759 658.69060355102169524 91.009497869018190385759 211.10464921188307130
94.009497869018218807469 662.23814145986580115 94.009497869018218807469 211.17514519316605970
97.009497869018190385759 665.62280964345234224 97.009497869018190385759 211.49839462304746007
99.504748934509109403734 668.33223104292278549 99.504748934509109403734 211.65738328082949238
nan nan nan nan

