Time Pressure difference Time.1 Pressure.1 difference.1
(hr) (psi) (hr) (psi)
0.000200000000006639311 0.14789311801457519 0.000200000000006639311 0.11679034021900939
0.000399999999999067768 0.26843512321193386 0.000399999999999067768 0.23102136960234659
0.000600000000005707079 0.37565243658042791 0.000600000000005707079 0.30941264173153454
0.000799999999998135536 0.47384542364211207 0.000799999999998135536 0.37986362091205050
0.001007140329434719206 0.56841357119411640 0.001007140329434719206 0.44642796238383864
0.001267914553963578328 0.67943097070198732 0.001267914553963578328 0.52285505196898752
0.001596209851982166583 0.80919408597983999 0.001596209851982166583 0.60974455751380496
0.002009509145224797066 0.96022411617266157 0.002009509145224797066 0.70811060683452809
0.002529822128138903281 1.13528434892050023 0.002529822128138903281 0.81905371087420509
0.003184857364431081805 1.33740250437216068 0.003184857364431081805 0.94378516695215497
0.004009497869020606231 1.56989929192917810 0.004009497869020606231 1.08365632666646095
0.005047658755842121536 1.83642418402548957 0.005047658755842121536 1.24019164324413689
0.006354625877790454069 2.14099912317468855 0.006354625877790454069 1.41512426064042018
0.008000000000009777068 2.48807058831855876 0.008000000000009777068 1.61043306329009184
0.010071403294347192059 2.88257022725481082 0.010071403294347192059 1.82838047021875338
0.012679145539706837553 3.32998413496180268 0.012679145539706837553 2.07155031155427993
0.015962098519750611558 3.83643065651555437 0.015962098519750611558 2.34288403172690085
0.020095091452091651263 4.40874595362724797 0.020095091452091651263 2.64571209008439379
0.025298221281360611101 5.05457572709665914 0.025298221281360611101 2.98378178367007241
0.031848573644296607199 5.78247283478738971 0.031848573644296607199 3.36129970912022413
0.040094978690177640601 6.60200749505374596 0.040094978690177640601 3.78302319185492797
0.050476587558421215363 7.52390548841977491 0.050476587558421215363 4.25440180315345806
0.063546258777961384112 8.56022137069244060 0.063546258777961384112 4.78165050279644799
0.079999999999998294697 9.72450731678975799 0.079999999999998294697 5.37149754281760572
0.100714032943542974863 11.03186608443856187 0.100714032943542974863 6.03037397265524611
0.126791455396897845276 12.49874118137224244 0.126791455396897845276 6.76307860597264199
0.159620985197506115583 14.14234824450643124 0.159620985197506115583 7.57138287773592733
0.200950914520760193227 15.97981445329939199 0.200950914520760193227 8.45325704483134999
0.252982212813478213320 18.02724335924510513 0.252982212813478213320 9.40333258584060339
0.318485736442795541734 20.29905389723796816 0.318485736442795541734 10.41386412725581856
0.400949786901833249431 22.80747108620082741 0.400949786901833249431 11.47784234301888162
0.504765875584155310207 25.56327162176238588 0.504765875584155310207 12.59003526977580556
0.635462587779443310865 28.57572157327177109 0.635462587779443310865 13.74840841295152671
0.799999999999997157829 31.85392596624998873 0.799999999999997157829 14.95617885229748367
1.007140329435344483500 35.40764330072619970 1.007140329435344483500 16.22437938774266541
1.267914553968893187630 39.24970484977509955 1.267914553968893187630 17.55750414804869663
1.596209851975103788391 43.39017817146444145 1.596209851975103788391 18.98180862069557762
2.009509145207672986544 47.85142963335407984 2.009509145207672986544 20.50891395690744901
2.529822128134711078928 52.64566477827342794 2.529822128134711078928 22.16505570750981491
3.184857364427998049905 57.80265933847542925 3.184857364427998049905 23.98658881216723060
4.009497869018190385759 63.34518193292576171 4.009497869018190385759 25.98260077539566382
5.009497869018204596614 69.09655931859920486 5.009497869018204596614 28.09087429736182173
6.009497869018204596614 74.09692508310175185 6.009497869018204596614 29.94166797286906601
7.009497869018204596614 78.54065575521872233 7.009497869018204596614 31.59005566881500116
8.009497869018204596614 82.54973833667757788 8.009497869018204596614 33.06726338009723776
9.009497869018204596614 86.20664594771734812 9.009497869018204596614 34.40077825485679597
10.009497869018190385759 89.57041413208297342 10.009497869018190385759 35.60873442918697407
11.009497869018190385759 92.68517377245019873 11.009497869018190385759 36.69854387513185401
12.009497869018190385759 95.58507039168627273 12.009497869018190385759 37.69404736961672597
13.009497869018190385759 98.29710247409786916 13.009497869018190385759 38.60577148616057030
14.009497869018190385759 100.84339736694224143 14.009497869018190385759 39.44139157470840473
15.009497869018190385759 103.24179891355022676 15.009497869018190385759 40.21007870305042786
16.009497869018204596614 105.50711738276397966 16.009497869018204596614 40.91978379882791472
17.009497869018204596614 107.65234554328279160 17.009497869018204596614 41.57783580456352723
18.009497869018204596614 109.68874087328680389 18.009497869018204596614 42.19207415404864747
19.009497869018204596614 111.62586628662016608 19.009497869018204596614 42.76413485078635546
20.009497869018204596614 113.47236897343796613 20.009497869018204596614 43.29711697151987693
21.009497869018204596614 115.23531093052690721 21.009497869018204596614 43.79351431554896834
22.009497869018190385759 116.92072519960326815 22.009497869018190385759 44.25775310494647385
23.009497869018190385759 118.53414741607664951 23.009497869018190385759 44.69130510415784840
24.009497869018190385759 120.08068995538279466 24.009497869018190385759 45.09908465998473304
25.009497869018190385759 121.56515862722818611 25.009497869018190385759 45.48319204406256233
26.009497869018190385759 122.99178132415842413 26.009497869018190385759 45.84575708685451190
27.009497869018204596614 124.36441558026496068 27.009497869018204596614 46.18952507852250733
28.009497869018190385759 125.68640479209120997 28.009497869018190385759 46.51517200003363683
29.009497869018190385759 126.96074510689958004 29.009497869018190385759 46.82108563631085474
30.009497869018190385759 128.19021904145233748 30.009497869018190385759 47.11394469408230634
31.009497869018190385759 129.37737560875982012 31.009497869018190385759 47.39132745684585757
32.009497869018190385759 130.52456242868632330 32.009497869018190385759 47.65436519035706198
33.009497869018218807469 131.63396262710534756 33.009497869018218807469 47.90231280785635448
34.009497869018190385759 132.70765850756072268 34.009497869018190385759 48.14109666413045119
35.009497869018218807469 133.74750959177407594 35.009497869018218807469 48.36766535163592806
36.009497869018190385759 134.75523540175390735 36.009497869018190385759 48.58596651451932047
37.009497869018218807469 135.73242894022376959 37.009497869018218807469 48.79535163321767754
38.009497869018190385759 136.68060650726718563 38.009497869018190385759 48.99671464429834344
39.009497869018190385759 137.60115580688443515 39.009497869018190385759 49.19096225116985011
40.009497869018190385759 138.49537616082363911 40.009497869018190385759 49.37705870634648875
41.009497869018190385759 139.36451452605510326 41.009497869018190385759 49.55784534198040348
42.009497869018190385759 140.20971317260918454 42.009497869018190385759 49.72891513351770243
43.009497869018190385759 141.03205002611321106 43.009497869018190385759 49.89725824763921480
44.009497869018218807469 141.83256327226317239 44.009497869018218807469 50.05335680696770595
46.009497869018218807469 143.37197426377767329 46.009497869018218807469 50.35142872122982283
48.009497869018218807469 144.83457136176511426 48.009497869018218807469 50.62512800190264528
50.009497869018218807469 146.22562725942628958 50.009497869018218807469 50.86135884654696326
52.009497869018190385759 147.55039968545202100 52.009497869018190385759 51.07103925768512198
54.009497869018190385759 148.81389081705307831 54.009497869018190385759 51.25851783280192819
56.009497869018190385759 150.02006450582592834 56.009497869018190385759 51.42454770887585624
58.009497869018190385759 151.17233858033674210 58.009497869018190385759 51.57003180280296561
60.009497869018190385759 152.27411484317866552 60.009497869018190385759 51.72225414176627112
62.009497869018190385759 153.32825341937186181 62.009497869018190385759 51.86758937386376545
64.009497869018190385759 154.33775202747108324 64.009497869018190385759 52.00599913045133604
66.009497869018218807469 155.30665234762705040 66.009497869018218807469 52.15219197463719780
68.009497869018218807469 156.23845324244396693 68.009497869018218807469 52.29881587839386015
70.009497869018218807469 157.13523378762397442 70.009497869018218807469 52.41979869020427429
72.009497869018218807469 157.99916789438262299 72.009497869018218807469 52.50238572189008579
74.009497869018190385759 158.83227141478215572 74.009497869018190385759 52.57723150778834054
76.009497869018190385759 159.63616824171160147 76.009497869018190385759 52.64246709543905212
78.009497869018190385759 160.41294296053544599 78.009497869018190385759 52.72263729503782059
80.009497869018190385759 161.16388566375496794 80.009497869018190385759 52.76256504692194937
82.009497869018190385759 161.88897565661949329 82.009497869018190385759 52.81655967293153964
84.009497869018190385759 162.58854144970271705 84.009497869018190385759 52.85887664819701115
86.009497869018190385759 163.26316207423732862 86.009497869018190385759 52.84775807082386478
88.009497869018218807469 163.91453162646985220 88.009497869018218807469 52.85314175844717255
91.009497869018190385759 164.84952806378953483 91.009497869018190385759 52.83284991017051624
94.009497869018218807469 165.73736515590627505 94.009497869018218807469 52.85049283566883815
97.009497869018190385759 166.58444108155143226 97.009497869018190385759 52.93139199481208834
99.504748934509109403734 167.26252398818581923 99.504748934509109403734 52.97118185223767739
nan nan nan nan

