Time Pressure difference Time.1 Pressure.1 difference.1
(hr) (psi) (hr) (psi)
0.000200000000006639311 0.67726161768906323 0.000200000000006639311 0.53482958374971257
0.000399999999999067768 1.22927157282031518 0.000399999999999067768 1.05793906165538121
0.000600000000005707079 1.72026244562796826 0.000600000000005707079 1.41692398595513902
0.000799999999998135536 2.16992732629241880 0.000799999999998135536 1.73954713954145013
0.001007140329434719206 2.60299262001769183 0.001007140329434719206 2.04437182774058313
0.001267914553963578328 3.11138560403013109 0.001267914553963578328 2.39436197618416147
0.001596209851982166583 3.70562270274888084 0.001596209851982166583 2.79226370329283213
0.002009509145224797066 4.39724949337437732 0.002009509145224797066 3.24272110511777445
0.002529822128138903281 5.19892017295353526 0.002529822128138903281 3.75077386052693917
0.003184857364431081805 6.12449988053688976 0.003184857364431081805 4.32196898342467595
0.004009497869020606231 7.18919546990743896 0.004009497869020606231 4.96249485215928754
0.005047658755842121536 8.40971933199655552 0.005047658755842121536 5.67933254653001729
0.006354625877790454069 9.80448954689868124 0.006354625877790454069 6.48041882447780448
0.008000000000009777068 11.39386831646309872 0.008000000000009777068 7.37481578768466939
0.010071403294347192059 13.20043962438147211 0.010071403294347192059 8.37288395589446388
0.012679145539706837553 15.24932648928859713 0.012679145539706837553 9.48645571857689518
0.015962098519750611558 17.56854725537380446 0.015962098519750611558 10.72900112383091553
0.020095091452091651263 20.18940743570932739 0.020095091452091651263 12.11577167433497060
0.025298221281360611101 23.14691974597482726 0.025298221281360611101 13.66392773895264767
0.031848573644296607199 26.48025113612937886 0.031848573644296607199 15.39273300270935430
0.040094978690177640601 30.23322745588989946 0.040094978690177640601 17.32397315755024891
0.050476587558421215363 34.45496633538154185 0.050476587558421215363 19.48260396551390272
0.063546258777961384112 39.20067039711946677 0.063546258777961384112 21.89708620808502104
0.079999999999998294697 44.53240045929044300 0.079999999999998294697 24.59823123685143642
0.100714032943542974863 50.51931807766500526 0.100714032943542974863 27.61548939409076553
0.126791455396897845276 57.23672463744285466 0.126791455396897845276 30.97083636297342579
0.159620985197506115583 64.76345741153804170 0.159620985197506115583 34.67238425126281243
0.200950914520760193227 73.17794859086031067 0.200950914520760193227 38.71083805508605025
0.252982212813478213320 82.55394276529840170 0.252982212813478213320 43.06161317206834838
0.318485736442795541734 92.95746999293095314 0.318485736442795541734 47.68924044541613227
0.400949786901833249431 104.44451351491966307 0.400949786901833249431 52.56162137339548224
0.504765875584155310207 117.06442412197624492 0.504765875584155310207 57.65479670751410168
0.635462587779443310865 130.85963484412437197 0.635462587779443310865 62.95944968506127282
0.799999999999997157829 145.87184122741948045 0.799999999999997157829 68.49031259828933571
1.007140329435344483500 162.14573133851868647 1.007140329435344483500 74.29790904172284627
1.267914553968893187630 179.74006469832627886 1.267914553968893187630 80.40281942475520793
1.596209851975103788391 198.70094467361616353 1.596209851975103788391 86.92527810421536572
2.009509145207672986544 219.13079578879313658 2.009509145207672986544 93.91850297004397419
2.529822128134711078928 241.08551209621347766 2.529822128134711078928 101.50263708117157080
3.184857364427998049905 264.70144855859780364 3.184857364427998049905 109.84416421709198630
4.009497869018190385759 290.08287177009356128 4.009497869018190385759 118.98469968818528741
5.009497869018204596614 316.42072443324184405 5.009497869018204596614 128.63932564500026956
6.009497869018204596614 339.31939512304535356 6.009497869018204596614 137.11484861395405233
7.009497869018204596614 359.66901154857669098 7.009497869018204596614 144.66347381384380810
8.009497869018204596614 378.02820088083677774 8.009497869018204596614 151.42819753890023549
9.009497869018204596614 394.77464045585583108 9.009497869018204596614 157.53489441172618513
10.009497869018190385759 410.17867759198509248 10.009497869018190385759 163.06660787958156789
11.009497869018190385759 424.44240521546942091 11.009497869018190385759 168.05728032088279633
12.009497869018190385759 437.72218930441738394 12.009497869018190385759 172.61608816901738805
13.009497869018190385759 450.14166669468852433 13.009497869018190385759 176.79123680572246258
14.009497869018190385759 461.80216734131920475 14.009497869018190385759 180.61787472194791349
15.009497869018190385759 472.78540532514199413 15.009497869018190385759 184.13799989766010867
16.009497869018204596614 483.15920277858009513 16.009497869018204596614 187.38802280407460898
17.009497869018204596614 492.98305877546243892 17.009497869018204596614 190.40150559428877841
18.009497869018204596614 502.30852580170397914 18.009497869018204596614 193.21434816467771611
19.009497869018204596614 511.17939625675410298 19.009497869018204596614 195.83404242827913322
20.009497869018204596614 519.63526907578682312 20.009497869018204596614 198.27478029447087238
21.009497869018204596614 527.70848396082499221 21.009497869018204596614 200.54798186562553042
22.009497869018190385759 535.42666861792565669 22.009497869018190385759 202.67391657930423321
23.009497869018190385759 542.81517293113211053 23.009497869018190385759 204.65932423234517046
24.009497869018190385759 549.89740850812643203 24.009497869018190385759 206.52670958027343318
25.009497869018190385759 556.69538306975300657 25.009497869018190385759 208.28569060521354572
26.009497869018190385759 563.22845782350668742 26.009497869018190385759 209.94602065096037791
27.009497869018204596614 569.51429795769399789 27.009497869018204596614 211.52027149692497687
28.009497869018190385759 575.56821421957647544 28.009497869018190385759 213.01153872976777848
29.009497869018190385759 581.40392716335554724 29.009497869018190385759 214.41243937314882828
30.009497869018190385759 587.03417904390403237 30.009497869018190385759 215.75355789092625969
31.009497869018190385759 592.47064280921335921 31.009497869018190385759 217.02380427662887996
32.009497869018190385759 597.72406914767520902 32.009497869018190385759 218.22835904768660953
33.009497869018218807469 602.80445546404041579 33.009497869018218807469 219.36381015443231490
34.009497869018190385759 607.72133745737039590 34.009497869018190385759 220.45729674088923389
35.009497869018218807469 612.48323061984092419 35.009497869018218807469 221.49484519397222471
36.009497869018190385759 617.09800932906182425 36.009497869018190385759 222.49453335189750192
37.009497869018218807469 621.57296858033794251 37.009497869018218807469 223.45339138473499929
38.009497869018190385759 625.91505211697028699 38.009497869018190385759 224.37551298483407436
39.009497869018190385759 630.13061478946633542 39.009497869018190385759 225.26505030900528936
40.009497869018190385759 634.22560671072460536 40.009497869018190385759 226.11726025610172996
41.009497869018190385759 638.20573819442404329 41.009497869018190385759 226.94515442014198925
42.009497869018190385759 642.07624015096143921 42.009497869018190385759 227.72855127666690578
43.009497869018190385759 645.84204883202926339 43.009497869018190385759 228.49946158897441251
44.009497869018218807469 649.50791850431255625 44.009497869018218807469 229.21429919757315474
46.009497869018218807469 656.55749587747118312 46.009497869018218807469 230.57928946588933172
48.009497869018218807469 663.25531177254674731 48.009497869018218807469 231.83266771686746210
50.009497869018218807469 669.62551195625678702 50.009497869018218807469 232.91446304405840806
52.009497869018190385759 675.69217366685541037 52.009497869018190385759 233.87467333884131904
54.009497869018190385759 681.47820387036756529 54.009497869018190385759 234.73321256480539887
56.009497869018190385759 687.00175462539175442 56.009497869018190385759 235.49352963678342121
58.009497869018190385759 692.27847753313017165 58.009497869018190385759 236.15975937163418052
60.009497869018190385759 697.32395080545768451 60.009497869018190385759 236.85684622001983257
62.009497869018190385759 702.15127209643685546 62.009497869018190385759 237.52239425713580090
64.009497869018190385759 706.77416915584387880 64.009497869018190385759 238.15622777764622242
66.009497869018218807469 711.21115045029205248 66.009497869018218807469 238.82570316282354383
68.009497869018218807469 715.47823866818760052 68.009497869018218807469 239.49715254182939361
70.009497869018218807469 719.58495472701622475 70.009497869018218807469 240.05118112638609773
72.009497869018218807469 723.54125383393250104 72.009497869018218807469 240.42938010839790763
74.009497869018190385759 727.35636738013977265 74.009497869018190385759 240.77212883609510641
76.009497869018190385759 731.03773181934025160 76.009497869018190385759 241.07086863018653844
78.009497869018190385759 734.59489329996279139 78.009497869018190385759 241.43799997341355379
80.009497869018190385759 738.03375967050021700 80.009497869018190385759 241.62084508611897604
82.009497869018190385759 741.35423616142918490 82.009497869018190385759 241.86810803011994153
84.009497869018190385759 744.55782715378893499 84.009497869018190385759 242.06189435032706569
86.009497869018190385759 747.64718426270917462 86.009497869018190385759 242.01097794664829621
88.009497869018218807469 750.63006543108724600 88.009497869018218807469 242.03563200112932918
91.009497869018190385759 754.91178731357706511 91.009497869018190385759 241.94270752854910711
94.009497869018218807469 758.97754773112444582 94.009497869018218807469 242.02350152643199976
97.009497869018190385759 762.85664649792011005 97.009497869018190385759 242.39397106637127877
99.504748934509109403734 765.96185877851621626 99.504748934509109403734 242.57618470531159005
nan nan nan nan

