Time Pressure difference Time.1 Pressure.1 difference.1
(hr) (psi) (hr) (psi)
0.000200000000006639311 0.41702050873637725 0.000200000000006639311 0.32931868465188485
0.000399999999999067768 0.75691792253322121 0.000399999999999067768 0.65142077179717472
0.000600000000005707079 1.05924313662378156 0.000600000000005707079 0.87246397260780340
0.000799999999998135536 1.33612207438998976 0.000799999999998135536 1.07111759201380763
0.001007140329434719206 1.60277989817396782 0.001007140329434719206 1.25881189393211157
0.001267914553963578328 1.91582037661461668 0.001267914553963578328 1.47431660576662971
0.001596209851982166583 2.28171894630366889 0.001596209851982166583 1.71932263642304672
0.002009509145224797066 2.70758473959415724 0.002009509145224797066 1.99668956519435592
0.002529822128138903281 3.20120951605480109 0.002529822128138903281 2.30952054954657848
0.003184857364431081805 3.77113066683480502 0.003184857364431081805 2.66123113599813665
0.004009497869020606231 4.42671173732819767 0.004009497869020606231 3.05563178806808988
0.005047658755842121536 5.17824330002037225 0.005047658755842121536 3.49702107129355344
0.006354625877790454069 6.03706619710631109 0.006354625877790454069 3.99028600532513300
0.008000000000009777068 7.01571835418580747 0.008000000000009777068 4.54100653468493665
0.010071403294347192059 8.12810574809618380 0.010071403294347192059 5.15556209842798729
0.012679145539706837553 9.38969775394808792 0.012679145539706837553 5.84123843215090943
0.015962098519750611558 10.81774652931639125 0.015962098519750611558 6.60632965169344999
0.020095091452091651263 12.43152828984163882 0.020095091452091651263 7.46022679478732442
0.025298221281360611101 14.25260194292920524 0.025298221281360611101 8.41349627412548173
0.031848573644296607199 16.30508434530178263 0.031848573644296607199 9.47799960897848770
0.040094978690177640601 18.61596104828459630 0.040094978690177640601 10.66715123196861548
0.050476587558421215363 21.21547599095189796 0.050476587558421215363 11.99631753078035068
0.063546258777961384112 24.13761991650186545 0.063546258777961384112 13.48302309157624812
0.079999999999998294697 27.42060646837284210 0.079999999999998294697 15.14623985249427918
0.100714032943542974863 31.10702153423234506 0.100714032943542974863 17.00410171688625383
0.126791455396897845276 35.24323157150885777 0.126791455396897845276 19.07014010353659117
0.159620985197506115583 39.87778024309324110 0.159620985197506115583 21.34935000288628260
0.200950914520760193227 45.05896178462531765 0.200950914520760193227 23.83600806203518374
0.252982212813478213320 50.83218406448083471 0.252982212813478213320 26.51497643303552465
0.318485736442795541734 57.23810476603152608 0.318485736442795541734 29.36441515711189965
0.400949786901833249431 64.31119529456627504 0.400949786901833249431 32.36455973975710521
0.504765875584155310207 72.08184315664330200 0.504765875584155310207 35.50065739159959577
0.635462587779443310865 80.57617628171480817 0.635462587779443310865 38.76697136184185410
0.799999999999997157829 89.81986849710834520 0.799999999999997157829 42.17257298695042067
1.007140329435344483500 99.84043625998761229 1.007140329435344483500 45.74857192166064834
1.267914553968893187630 110.67406045623276611 1.267914553968893187630 49.50764045179396788
1.596209851975103788391 122.34912900709072403 1.596209851975103788391 53.52381229097422732
2.009509145207672986544 134.92870930950056163 2.009509145207672986544 57.82985609308237684
2.529822128134711078928 148.44721785118301227 2.529822128134711078928 62.49974935551050237
3.184857364427998049905 162.98861452952084505 3.184857364427998049905 67.63600364632561934
4.009497869018190385759 178.61710098683360570 4.009497869018190385759 73.26424338813284010
5.009497869018204596614 194.83450417304581492 5.009497869018204596614 79.20903181702452400
6.009497869018204596614 208.93424798110663687 6.009497869018204596614 84.42779338272521272
7.009497869018204596614 221.46442416814889498 7.009497869018204596614 89.07582220777449322
8.009497869018204596614 232.76900466608225315 8.009497869018204596614 93.24116755675485990
9.009497869018204596614 243.08054243626739321 9.009497869018204596614 97.00133610918848603
10.009497869018190385759 252.56550250977900873 10.009497869018190385759 100.40746145912380882
11.009497869018190385759 261.34832261158709343 11.009497869018190385759 103.48044345906276931
12.009497869018190385759 269.52528432333855335 12.009497869018190385759 106.28750696067892534
13.009497869018190385759 277.17251641837896159 13.009497869018190385759 108.85833419059011362
14.009497869018190385759 284.35241231794447003 14.009497869018190385759 111.21456765915631593
15.009497869018190385759 291.11528706524671861 15.009497869018190385759 113.38206741589755211
16.009497869018204596614 297.50290180461774980 16.009497869018204596614 115.38325302931303895
17.009497869018204596614 303.55189279801197699 17.009497869018204596614 117.23879023003536304
18.009497869018204596614 309.29400323497611680 18.009497869018204596614 118.97078420261786391
19.009497869018204596614 314.75619806999759476 19.009497869018204596614 120.58384805565077613
20.009497869018204596614 319.96286015256970359 20.009497869018204596614 122.08672038750454192
21.009497869018204596614 324.93390249509093337 21.009497869018204596614 123.48643307002434710
22.009497869018190385759 329.68633672162809489 22.009497869018190385759 124.79546690965594280
23.009497869018190385759 334.23577189855086544 23.009497869018190385759 126.01797190314036357
24.009497869018190385759 338.59662360809659276 24.009497869018190385759 127.16780524296123644
25.009497869018190385759 342.78244299608974188 25.009497869018190385759 128.25088915428801783
26.009497869018190385759 346.80515163078149499 26.009497869018190385759 129.27322921057259464
27.009497869018204596614 350.67562676495310825 27.009497869018204596614 130.24256642313000043
28.009497869018190385759 354.40329591589664915 28.009497869018190385759 131.16080688421502032
29.009497869018190385759 357.99660744735206208 29.009497869018190385759 132.02340456247307543
30.009497869018190385759 361.46340734006088269 30.009497869018190385759 132.84919169103895342
31.009497869018190385759 364.81088315431412639 31.009497869018190385759 133.63133965299454076
32.009497869018190385759 368.04565457359188940 32.009497869018190385759 134.37303832645744706
33.009497869018218807469 371.17387745067907190 33.009497869018218807469 135.07218675863359181
34.009497869018190385759 374.20142334535364625 34.009497869018190385759 135.74549574392148088
35.009497869018218807469 377.13353563002391411 35.009497869018218807469 136.38436109881891412
36.009497869018190385759 379.97506291395842482 36.009497869018190385759 136.99991416325835303
37.009497869018218807469 382.73049705462233305 37.009497869018218807469 137.59032627907302526
38.009497869018190385759 385.40411362778775128 38.009497869018190385759 138.15811811718461399
39.009497869018190385759 387.99982560138647614 39.009497869018190385759 138.70584634771930155
40.009497869018190385759 390.52129672815937056 40.009497869018190385759 139.23059042948347042
41.009497869018190385759 392.97204310565751939 41.009497869018190385759 139.74036218747261273
42.009497869018190385759 395.35528564121995032 42.009497869018190385759 140.22273494730097809
43.009497869018190385759 397.67406380753811845 43.009497869018190385759 140.69741917896550376
44.009497869018218807469 399.93130502093094947 44.009497869018218807469 141.13757691921796322
46.009497869018218807469 404.27204760215420265 46.009497869018218807469 141.97806296072099030
48.009497869018218807469 408.39619478403301400 48.009497869018218807469 142.74982445171687573
50.009497869018218807469 412.31861420361838100 50.009497869018218807469 143.41593460163673512
52.009497869018190385759 416.05413130189691628 52.009497869018190385759 144.00717936609069625
54.009497869018190385759 419.61685093048868112 54.009497869018190385759 144.53582067017538293
56.009497869018190385759 423.01795013016152325 56.009497869018190385759 145.00398216622934910
58.009497869018190385759 426.26706629734439957 58.009497869018190385759 145.41420984738863353
60.009497869018190385759 429.37379163934934923 60.009497869018190385759 145.84343764437957702
62.009497869018190385759 432.34619097222025630 62.009497869018190385759 146.25324557351288490
64.009497869018190385759 435.19271709033688467 64.009497869018190385759 146.64352544509239351
66.009497869018218807469 437.92476649094840013 66.009497869018218807469 147.05575161947052720
68.009497869018218807469 440.55220506560374361 68.009497869018218807469 147.46919327083591611
70.009497869018218807469 443.08089527239894778 70.009497869018218807469 147.81033364576913414
72.009497869018218807469 445.51696698115614481 72.009497869018218807469 148.04320780807631763
74.009497869018190385759 447.86610437558744024 74.009497869018190385759 148.25425365071649253
76.009497869018190385759 450.13288641547006819 76.009497869018190385759 148.43820120902771009
78.009497869018190385759 452.32319109472871332 78.009497869018190385759 148.66426052720964890
80.009497869018190385759 454.44065614200434311 80.009497869018190385759 148.77684650569838709
82.009497869018190385759 456.48522320342920011 82.009497869018190385759 148.92909744684985185
84.009497869018190385759 458.45781859422618254 84.009497869018190385759 149.04842042002331937
86.009497869018190385759 460.36007503336452373 86.009497869018190385759 149.01706889498402120
88.009497869018218807469 462.19676943601155017 88.009497869018218807469 149.03224950772442980
91.009497869018190385759 464.83321861763835159 91.009497869018190385759 148.97503172095292712
94.009497869018218807469 467.33669058983014111 94.009497869018218807469 149.02478022761556531
97.009497869018190385759 469.72522656900980564 97.009497869018190385759 149.25289502399803609
99.504748934509109403734 471.63724575209482737 99.504748934509109403734 149.36509217562297636
nan nan nan nan

