Time Pressure difference Time.1 Pressure.1 difference.1
(hr) (psi) (hr) (psi)
0.000200000000006639311 0.65123750679379455 0.000200000000006639311 0.51427849383992974
0.000399999999999067768 1.18203620779160556 0.000399999999999067768 1.01728723266956056
0.000600000000005707079 1.65416051472754955 0.000600000000005707079 1.36247798462040537
0.000799999999998135536 2.08654680110217594 0.000799999999998135536 1.67270418478868588
0.001007140329434719206 2.50297134783331954 0.001007140329434719206 1.96581583435973584
0.001267914553963578328 2.99182908128857949 0.001267914553963578328 2.30235743914240842
0.001596209851982166583 3.56323232710435978 0.001596209851982166583 2.68496959660585377
0.002009509145224797066 4.22828301799635575 0.002009509145224797066 3.11811795112543289
0.002529822128138903281 4.99914910726366113 0.002529822128138903281 3.60664852942890324
0.003184857364431081805 5.88916295916668187 0.003184857364431081805 4.15589519868202117
0.004009497869020606231 6.91294709664951412 0.004009497869020606231 4.77180854575016777
0.005047658755842121536 8.08657172879893693 0.005047658755842121536 5.46110139900637126
0.006354625877790454069 9.42774721191944387 0.006354625877790454069 6.23140554256253765
0.008000000000009777068 10.95605332023537137 0.008000000000009777068 7.09143486238469656
0.010071403294347192059 12.69320623675294435 0.010071403294347192059 8.05115177014781480
0.012679145539706837553 14.66336361575454816 0.012679145539706837553 9.12193398993429660
0.015962098519750611558 16.89346718276806314 0.015962098519750611558 10.31673397661716862
0.020095091452091651263 19.41361952112255906 0.020095091452091651263 11.65021718638020509
0.025298221281360611101 22.25748796567026488 0.025298221281360611101 13.13888459246993179
0.031848573644296607199 25.46273445704661853 0.031848573644296607199 14.80125966333626764
0.040094978690177640601 29.07150081512936879 0.040094978690177640601 16.65829096499208362
0.050476587558421215363 33.13101730093858066 0.050476587558421215363 18.73397532204054983
0.063546258777961384112 37.69436534905770486 0.063546258777961384112 21.05567989643413895
0.079999999999998294697 42.82122106019868113 0.079999999999998294697 23.65303209841572141
0.100714032943542974863 48.57808842332173782 0.100714032943542974863 26.55435062637031152
0.126791455396897845276 55.03737533084944999 0.126791455396897845276 29.78076673702974730
0.159620985197506115583 62.27488969469355595 0.159620985197506115583 33.34008082642515802
0.200950914520760193227 70.36604991023681066 0.200950914520760193227 37.22335505578097070
0.252982212813478213320 79.38176689521664287 0.252982212813478213320 41.40694949816506210
0.318485736442795541734 89.38553347024101470 0.318485736442795541734 45.85675791658570688
0.400949786901833249431 100.43118169288432284 0.400949786901833249431 50.54191521003164667
0.504765875584155310207 112.56616602544295347 0.504765875584155310207 55.43938277592265251
0.635462587779443310865 125.83128898788339711 0.635462587779443310865 60.54020185273933663
0.799999999999997157829 140.26664395438837118 0.799999999999997157829 65.85853863715544776
1.007140329435344483500 155.91520183066555205 1.007140329435344483500 71.44297532971663145
1.267914553968893187630 172.83346427411694890 1.267914553968893187630 77.31330152745908890
1.596209851975103788391 191.06576310696360110 1.596209851975103788391 83.58513152289125969
2.009509145207672986544 210.71058714086387909 2.009509145207672986544 90.30963828234781943
2.529822128134711078928 231.82168267171044818 2.529822128134711078928 97.60234830860545685
3.184857364427998049905 254.53016515569012768 3.184857364427998049905 105.62334816001535387
4.009497869018190385759 278.93629469176755720 4.009497869018190385759 114.41265405818003842
5.009497869018204596614 304.26210240722224398 5.009497869018204596614 123.69629626220269358
6.009497869018204596614 326.28088040885148757 6.009497869018204596614 131.84614309083116268
7.009497869018204596614 345.84855281053387444 7.009497869018204596614 139.10470865323688372
8.009497869018204596614 363.50228125936126844 8.009497869018204596614 145.60949454068568798
9.009497869018204596614 379.60523065389702424 9.009497869018204596614 151.48153858147242090
10.009497869018190385759 394.41736008376449263 10.009497869018190385759 156.80069323753579624
11.009497869018190385759 408.13299695508118248 11.009497869018190385759 161.59959663470075952
12.009497869018190385759 420.90249880630955204 12.009497869018190385759 165.98323004818354320
13.009497869018190385759 432.84475166705755100 13.009497869018190385759 169.99794654420921347
14.009497869018190385759 444.05719183898173696 14.009497869018190385759 173.67754401566878641
15.009497869018190385759 454.61839349915248931 15.009497869018190385759 177.06240664948384733
16.009497869018204596614 464.59357268118384354 16.009497869018204596614 180.18754582659846619
17.009497869018204596614 474.03994217771742115 17.009497869018204596614 183.08523405786343119
18.009497869018204596614 483.00707354503117585 18.009497869018204596614 185.78999176847173658
19.009497869018204596614 491.53707643807842942 19.009497869018204596614 188.30902299101629183
20.009497869018204596614 499.66802818346496906 20.009497869018204596614 190.65597430377422938
21.009497869018204596614 507.43102581425154085 21.009497869018204596614 192.84182698606542772
22.009497869018190385759 514.85263542829591188 22.009497869018190385759 194.88607161233940701
23.009497869018190385759 521.95723282787400876 23.009497869018190385759 196.79518899942468124
24.009497869018190385759 528.76733001812340262 24.009497869018190385759 198.59081914654220213
25.009497869018190385759 535.30408906238676536 25.009497869018190385759 200.28221046012100715
26.009497869018190385759 541.58612720423411702 26.009497869018190385759 201.87874150692158537
27.009497869018204596614 547.63043083841989755 27.009497869018204596614 203.39250098954545365
28.009497869018190385759 553.45172238920861219 28.009497869018190385759 204.82646554521252824
29.009497869018190385759 559.06319519175519872 29.009497869018190385759 206.17353589208124731
30.009497869018190385759 564.47710187351970035 30.009497869018190385759 207.46312127093753475
31.009497869018190385759 569.70466684372343025 31.009497869018190385759 208.68455781426544604
32.009497869018190385759 574.75622769026676906 32.009497869018190385759 209.84282697556372455
33.009497869018218807469 579.64139766270432119 33.009497869018218807469 210.93464781485243975
34.009497869018190385759 584.36934604616862998 34.009497869018190385759 211.98611664119246711
35.009497869018218807469 588.94826112085922887 35.009497869018218807469 212.98379678445692775
36.009497869018190385759 593.38571468755151272 36.009497869018190385759 213.94507143303357566
37.009497869018218807469 597.68872142776638157 37.009497869018218807469 214.86708487416882463
38.009497869018190385759 601.86395826805210163 38.009497869018190385759 215.75377349806910843
39.009497869018190385759 605.91753587065841202 39.009497869018190385759 216.60912991287668206
40.009497869018190385759 609.85517571246805346 40.009497869018190385759 217.42859327343992959
41.009497869018190385759 613.68236868554731700 41.009497869018190385759 218.22467519687506865
42.009497869018190385759 617.40414469998734148 42.009497869018190385759 218.97796964373031869
43.009497869018190385759 621.02525032958010343 43.009497869018190385759 219.71925734797355290
44.009497869018218807469 624.55025715597423641 44.009497869018218807469 220.40662696973762991
46.009497869018218807469 631.32895104993951918 46.009497869018218807469 221.71916681537248905
48.009497869018218807469 637.76940007369535124 48.009497869018218807469 222.92438339035240347
50.009497869018218807469 643.89482218099306010 50.009497869018218807469 223.96461019981626350
52.009497869018190385759 649.72836943035952117 52.009497869018190385759 224.88792394156627097
54.009497869018190385759 655.29206857637962003 54.009497869018190385759 225.71347337534237454
56.009497869018190385759 660.60337417586868014 56.009497869018190385759 226.44457488972801684
58.009497869018190385759 665.67733640955168539 58.009497869018190385759 227.08520441920961730
60.009497869018190385759 670.52893488884683393 60.009497869018190385759 227.75550536245577860
62.009497869018190385759 675.17076398401513870 62.009497869018190385759 228.39547938877350930
64.009497869018190385759 679.61602394929320781 64.009497869018190385759 229.00495754439083385
66.009497869018218807469 683.88251205435767588 66.009497869018218807469 229.64870800848825638
68.009497869018218807469 687.98563530792921483 68.009497869018218807469 230.29435661473004870
70.009497869018218807469 691.93454878155444021 70.009497869018218807469 230.82709637832442695
72.009497869018218807469 695.73882514865476878 72.009497869018218807469 231.19076287836574579
74.009497869018190385759 699.40734107968455646 74.009497869018190385759 231.52034131755726776
76.009497869018190385759 702.94724727895322758 76.009497869018190385759 231.80760188807067834
78.009497869018190385759 706.36772307943931537 78.009497869018190385759 232.16062602879316046
80.009497869018190385759 709.67444931765066940 80.009497869018190385759 232.33644522807691146
82.009497869018190385759 712.86733486562923190 82.009497869018190385759 232.57420697179293256
84.009497869018190385759 715.94782629783264838 84.009497869018190385759 232.76054695729669675
86.009497869018190385759 718.91847333977466405 86.009497869018190385759 232.71158704148189145
88.009497869018218807469 721.78673583157967641 88.009497869018218807469 232.73529375178884493
91.009497869018190385759 725.90393044398319944 91.009497869018190385759 232.64593994778948627
94.009497869018218807469 729.81346201699500398 94.009497869018218807469 232.72362939655036485
97.009497869018190385759 733.54350450502909098 97.009497869018190385759 233.07986346213391471
99.504748934509109403734 736.52939747587413422 99.504748934509109403734 233.25507545234273721
nan nan nan nan

