Time Pressure difference Time.1 Pressure.1 difference.1
(hr) (psi) (hr) (psi)
0.000200000000006639311 0.04316194002142109 0.000200000000006639311 0.03408473448451776
0.000399999999999067768 0.07834158102322533 0.000399999999999067768 0.06742254563501961
0.000600000000005707079 0.10963247076166996 0.000600000000005707079 0.09030068514053369
0.000799999999998135536 0.13828965153503700 0.000799999999998135536 0.11086148593141389
0.001007140329434719206 0.16588893923261769 0.001007140329434719206 0.13028798902189284
0.001267914553963578328 0.19828886698598772 0.001267914553963578328 0.15259289070339549
0.001596209851982166583 0.23615964741042539 0.001596209851982166583 0.17795120133450101
0.002009509145224797066 0.28023708111476814 0.002009509145224797066 0.20665888954827430
0.002529822128138903281 0.33132762114418035 0.002529822128138903281 0.23903713450405986
0.003184857364431081805 0.39031489397985808 0.003184857364431081805 0.27543944786586499
0.004009497869020606231 0.45816803369606918 0.004009497869020606231 0.31626021550780836
0.005047658755842121536 0.53595212237653767 0.005047658755842121536 0.36194434223434041
0.006354625877790454069 0.62484094581922245 0.006354625877790454069 0.41299763829849173
0.008000000000009777068 0.72613218886550213 0.008000000000009777068 0.46999763220483365
0.010071403294347192059 0.84126513070097486 0.010071403294347192059 0.53360460075053751
0.012679145539706837553 0.97184086342232856 0.012679145539706837553 0.60457262311455384
0.015962098519750611558 1.11964499846805898 0.015962098519750611558 0.68376014659840889
0.020095091452091651263 1.28667263882683636 0.020095091452091651263 0.77213915075424355
0.025298221281360611101 1.47515514782220092 0.025298221281360611101 0.87080326733718838
0.031848573644296607199 1.68758863847872331 0.031848573644296607199 0.98098017261877790
0.040094978690177640601 1.92676613589551371 0.040094978690177640601 1.10405827058427075
0.050476587558421215363 2.19581791078345345 0.050476587558421215363 1.24162799405336965
0.063546258777961384112 2.49826203093169985 0.063546258777961384112 1.39550315103072298
0.079999999999998294697 2.83805363751804141 0.079999999999998294697 1.56764735155191937
0.100714032943542974863 3.21960040232541767 0.100714032943542974863 1.75993746841440668
0.126791455396897845276 3.64770128898417401 0.126791455396897845276 1.97377401376025619
0.159620985197506115583 4.12738060354694181 0.159620985197506115583 2.20967397290147227
0.200950914520760193227 4.66363683615604518 0.200950914520760193227 2.46704497445721849
0.252982212813478213320 5.26116973574535240 0.252982212813478213320 2.74432023964446836
0.318485736442795541734 5.92418740348575934 0.318485736442795541734 3.03923931610899389
0.400949786901833249431 6.65625765605861019 0.400949786901833249431 3.34975656362782814
0.504765875584155310207 7.46052562351863635 0.504765875584155310207 3.67434505727362604
0.635462587779443310865 8.33969556644841248 0.635462587779443310865 4.01241103897297702
0.799999999999997157829 9.29642474551501685 0.799999999999997157829 4.36489339895377260
1.007140329435344483500 10.33356113497588602 1.007140329435344483500 4.73501201015665796
1.267914553968893187630 11.45484948405453451 1.267914553968893187630 5.12407846380820420
1.596209851975103788391 12.66322796420421604 1.596209851975103788391 5.53975530561072649
2.009509145207672986544 13.96522409900462414 2.009509145207672986544 5.98543411617899768
2.529822128134711078928 15.36440002112700576 2.529822128134711078928 6.46877162279256446
3.184857364427998049905 16.86944564384690892 3.184857364427998049905 7.00037785076125196
4.009497869018190385759 18.48700588600408423 4.009497869018190385759 7.58290494732577347
5.009497869018204596614 20.16551945778860855 5.009497869018204596614 8.19819507390817037
6.009497869018204596614 21.62485367232154232 6.009497869018204596614 8.73834086761844020
7.009497869018204596614 22.92173644358314277 7.009497869018204596614 9.21941538832369112
8.009497869018204596614 24.09176912830074713 8.009497869018204596614 9.65053180191678983
9.009497869018204596614 25.15902113495613435 9.009497869018204596614 10.03971210871357123
10.009497869018190385759 26.14072172095125168 10.009497869018190385759 10.39224867461250845
11.009497869018190385759 27.04975028552194871 11.009497869018190385759 10.71030465025307343
12.009497869018190385759 27.89607204564234877 12.009497869018190385759 11.00083785894393884
13.009497869018190385759 28.68756638729036368 13.009497869018190385759 11.26692043372926477
14.009497869018190385759 29.43069107704751985 14.009497869018190385759 11.51079239090202400
15.009497869018190385759 30.13065376017774710 15.009497869018190385759 11.73513026526793546
16.009497869018204596614 30.79177674690107480 16.009497869018204596614 11.94225449922874738
17.009497869018204596614 31.41785191821129075 17.009497869018204596614 12.13430401163227401
18.009497869018204596614 32.01216471838413469 18.009497869018204596614 12.31356670590261082
19.009497869018204596614 32.57750604073034850 19.009497869018204596614 12.48052004228957834
20.009497869018204596614 33.11639952872867809 20.009497869018204596614 12.63606847237489994
21.009497869018204596614 33.63090619431686434 21.009497869018204596614 12.78093980024605081
22.009497869018190385759 34.12278675353228863 22.009497869018190385759 12.91642579886849873
23.009497869018190385759 34.59365675662323270 23.009497869018190385759 13.04295599606323464
24.009497869018190385759 35.04500822732201470 24.009497869018190385759 13.16196462179811988
25.009497869018190385759 35.47824371953440448 25.009497869018190385759 13.27406463088521171
26.009497869018190385759 35.89459712464709185 26.009497869018190385759 13.37987760474723942
27.009497869018204596614 36.29519424660092852 27.009497869018204596614 13.48020474394648360
28.009497869018190385759 36.68101084061031258 28.009497869018190385759 13.57524333048191956
29.009497869018190385759 37.05292131875180672 29.009497869018190385759 13.66452284664866035
30.009497869018190385759 37.41173774600325430 30.009497869018190385759 13.74999244290814104
31.009497869018190385759 37.75820404032474897 31.009497869018190385759 13.83094535221252386
32.009497869018190385759 38.09300534399429239 32.009497869018190385759 13.90771172937459177
33.009497869018218807469 38.41677879245992955 33.009497869018218807469 13.98007412418125384
34.009497869018190385759 38.73013209662716605 34.009497869018190385759 14.04976211657026042
35.009497869018218807469 39.03360794953063362 35.009497869018218807469 14.11588516700104279
36.009497869018190385759 39.32770818591959028 36.009497869018190385759 14.17959537762795819
37.009497869018218807469 39.61289771646015367 37.009497869018218807469 14.24070348093906446
38.009497869018190385759 39.88961906649857525 38.009497869018190385759 14.29947036829307905
39.009497869018190385759 40.15827723119373616 39.009497869018190385759 14.35616065699377764
40.009497869018190385759 40.41925141174252190 40.009497869018190385759 14.41047206880498521
41.009497869018190385759 40.67290552691736849 41.009497869018190385759 14.46323383371101734
42.009497869018190385759 40.91957294307907489 42.009497869018190385759 14.51315978145581020
43.009497869018190385759 41.15956824796437274 43.009497869018190385759 14.56228996068440651
44.009497869018218807469 41.39319443139011412 44.009497869018218807469 14.60784662177598214
46.009497869018218807469 41.84246459200378609 46.009497869018218807469 14.69483756671084862
48.009497869018218807469 42.26931696394861859 48.009497869018218807469 14.77471546836643590
50.009497869018218807469 42.67529035897419476 50.009497869018218807469 14.84365837581628256
52.009497869018190385759 43.06191922150531326 52.009497869018190385759 14.90485265889522992
54.009497869018190385759 43.43066341441892320 54.009497869018190385759 14.95956743618253704
56.009497869018190385759 43.78267976994061428 56.009497869018190385759 15.00802250731140930
58.009497869018190385759 44.11896576593519370 58.009497869018190385759 15.05048138450901973
60.009497869018190385759 44.44051420315943801 60.009497869018190385759 15.09490678815496523
62.009497869018190385759 44.74815979621153161 62.009497869018190385759 15.13732222069843836
64.009497869018190385759 45.04277741574262706 64.009497869018190385759 15.17771648442356458
66.009497869018218807469 45.32554660789115530 66.009497869018218807469 15.22038220719025503
68.009497869018218807469 45.59748849994072373 68.009497869018218807469 15.26317373275013978
70.009497869018218807469 45.85920986076579453 70.009497869018218807469 15.29848202117549683
72.009497869018218807469 46.11134513655802181 72.009497869018218807469 15.32258467419968007
74.009497869018190385759 46.35448264465745183 74.009497869018190385759 15.34442807952621024
76.009497869018190385759 46.58909631088579317 76.009497869018190385759 15.36346679180195629
78.009497869018190385759 46.81579451208759934 78.009497869018190385759 15.38686410327284015
80.009497869018190385759 47.03495375594565786 80.009497869018190385759 15.39851683772829460
82.009497869018190385759 47.24656800279024083 82.009497869018190385759 15.41427492600576876
84.009497869018190385759 47.45073312695187440 84.009497869018190385759 15.42662494453818134
86.009497869018190385759 47.64761811608643427 86.009497869018190385759 15.42338003783700451
88.009497869018218807469 47.83771738454914413 88.009497869018218807469 15.42495124280861774
91.009497869018190385759 48.11059188127763520 91.009497869018190385759 15.41902915833302501
94.009497869018218807469 48.36970313562929391 94.009497869018218807469 15.42417816663296648
97.009497869018190385759 48.61691842723389101 97.009497869018190385759 15.44778822166189691
99.504748934509109403734 48.81481386779672960 99.504748934509109403734 15.45940071224103640
nan nan nan nan

