Time Pressure difference Time.1 Pressure.1 difference.1
(hr) (psi) (hr) (psi)
0.000200000000006639311 0.65948905415083103 0.000200000000006639311 0.52079469307961701
0.000399999999999067768 1.19701327475192820 0.000399999999999067768 1.03017683698213780
0.000600000000005707079 1.67511966354963349 0.000600000000005707079 1.37974135089727223
0.000799999999998135536 2.11298452860152119 0.000799999999998135536 1.69389829239322087
0.001007140329434719206 2.53468540974543721 0.001007140329434719206 1.99072383226097993
0.001267914553963578328 3.02973724703590097 0.001267914553963578328 2.33152960942393950
0.001596209851982166583 3.60838049499164670 0.001596209851982166583 2.71898967921391987
0.002009509145224797066 4.28185775409182590 0.002009509145224797066 3.15762626824495563
0.002529822128138903281 5.06249115248240233 0.002529822128138903281 3.65234680514291421
0.003184857364431081805 5.96378198301577189 0.003184857364431081805 4.20855274018579006
0.004009497869020606231 7.00053804426788062 0.004009497869020606231 4.83227005753842498
0.005047658755842121536 8.18903316395915759 0.005047658755842121536 5.53029664090411277
0.006354625877790454069 9.54720209862017732 0.006354625877790454069 6.31036097341371871
0.008000000000009777068 11.09487270928318736 0.008000000000009777068 7.18128735089444437
0.010071403294347192059 12.85403633526930633 0.010071403294347192059 8.15316441440894835
0.012679145539706837553 14.84915672199705128 0.012679145539706837553 9.23751405023560856
0.015962098519750611558 17.10751696188695803 0.015962098519750611558 10.44745282817274834
0.020095091452091651263 19.65960105501592281 0.020095091452091651263 11.79783202402439812
0.025298221281360611101 22.53950292040098091 0.025298221281360611101 13.30536168769615912
0.031848573644296607199 25.78536169675578549 0.031848573644296607199 14.98879999045456302
0.040094978690177640601 29.43985316463880508 0.040094978690177640601 16.86936092848613811
0.050476587558421215363 33.55080601917659067 0.050476587558421215363 18.97134537972722157
0.063546258777961384112 38.17197426673582328 0.063546258777961384112 21.32246726354295774
0.079999999999998294697 43.36379013795948367 0.079999999999998294697 23.95272938621241465
0.100714032943542974863 49.19360026494277349 0.100714032943542974863 26.89080926003777350
0.126791455396897845276 55.73472998903760356 0.126791455396897845276 30.15810588671920911
0.159620985197506115583 63.06394775125399832 0.159620985197506115583 33.76251849771514202
0.200950914520760193227 71.25762754067839921 0.200950914520760193227 37.69499600678013707
0.252982212813478213320 80.38757875646207651 0.252982212813478213320 41.93159895574414975
0.318485736442795541734 90.51809870914270562 0.318485736442795541734 46.43778896231242470
0.400949786901833249431 101.70370153889552967 0.400949786901833249431 51.18230984719578913
0.504765875584155310207 113.99244298288033406 0.504765875584155310207 56.14183109569555086
0.635462587779443310865 127.42564255205738277 0.635462587779443310865 61.30728043371946967
0.799999999999997157829 142.04390162632506645 0.799999999999997157829 66.69300355166132022
1.007140329435344483500 157.89073557705802386 1.007140329435344483500 72.34819821401127626
1.267914553968893187630 175.02336196959794279 1.267914553968893187630 78.29290476318712422
1.596209851975103788391 193.48667433541439209 1.596209851975103788391 84.64420239014036440
2.009509145207672986544 213.38040939508536553 2.009509145207672986544 91.45391245161734162
2.529822128134711078928 234.75899444045532505 2.529822128134711078928 98.83902523649226168
3.184857364427998049905 257.75520623466081815 3.184857364427998049905 106.96165569030794984
4.009497869018190385759 282.47057522879771341 4.009497869018190385759 115.86232706281585081
5.009497869018204596614 308.11727524474065376 5.009497869018204596614 125.26359826162631350
6.009497869018204596614 330.41504361091296005 6.009497869018204596614 133.51670825669938836
7.009497869018204596614 350.23064948357182402 7.009497869018204596614 140.86724394806344662
8.009497869018204596614 368.10806065153644795 8.009497869018204596614 147.45444914987567131
9.009497869018204596614 384.41504351793270189 9.009497869018204596614 153.40089530813824581
10.009497869018190385759 399.41485100100516092 10.009497869018190385759 158.78744666062345914
11.009497869018190385759 413.30427274496037171 11.009497869018190385759 163.64715487666092031
12.009497869018190385759 426.23557140327056914 12.009497869018190385759 168.08633140356988633
13.009497869018190385759 438.32913935874540812 13.009497869018190385759 172.15191662712803122
14.009497869018190385759 449.68364748606433068 14.009497869018190385759 175.87813667863534306
15.009497869018190385759 460.37866554153936249 15.009497869018190385759 179.30588743549094488
16.009497869018204596614 470.48023588279727392 16.009497869018204596614 182.47062389262745796
17.009497869018204596614 480.04629622090487828 17.009497869018204596614 185.40502747185198018
18.009497869018204596614 489.12704621178113484 18.009497869018204596614 188.14405599165900185
19.009497869018204596614 497.76512906351223364 19.009497869018204596614 190.69500476380693499
20.009497869018204596614 505.99910456395730307 20.009497869018204596614 193.07169327643416068
21.009497869018204596614 513.86046376316505757 21.009497869018204596614 195.28524194787715373
22.009497869018190385759 521.37610936647126891 22.009497869018190385759 197.35538830918190456
23.009497869018190385759 528.57072603134611199 23.009497869018190385759 199.28869529278972550
24.009497869018190385759 535.46711100275854278 24.009497869018190385759 201.10707708894477719
25.009497869018190385759 542.08669447935653807 25.009497869018190385759 202.81989928661374734
26.009497869018190385759 548.44832959571067477 26.009497869018190385759 204.43665928429970791
27.009497869018204596614 554.56921797379948202 27.009497869018204596614 205.96959895529991513
28.009497869018190385759 560.46426857932522125 28.009497869018190385759 207.42173265251051362
29.009497869018190385759 566.14684191445780925 29.009497869018190385759 208.78587114217583576
30.009497869018190385759 571.62934585437324131 30.009497869018190385759 210.09179629678763490
31.009497869018190385759 576.92314702790315550 31.009497869018190385759 211.32870913160019199
32.009497869018190385759 582.03871400603043185 32.009497869018190385759 212.50165421794415010
33.009497869018218807469 586.98578184361565491 33.009497869018218807469 213.60730904447532907
34.009497869018190385759 591.77363600581793435 34.009497869018190385759 214.67210057524266631
35.009497869018218807469 596.41056852297538171 35.009497869018218807469 215.68242188991300168
36.009497869018190385759 600.90424713485970187 36.009497869018190385759 216.65587643169774879
37.009497869018218807469 605.26177540297203450 37.009497869018218807469 217.58957230434833718
38.009497869018190385759 609.48991485429439763 38.009497869018190385759 218.48749577436041136
39.009497869018190385759 613.59485357662185834 39.009497869018190385759 219.35369003847847580
40.009497869018190385759 617.58238554118349839 40.009497869018190385759 220.18353646306439941
41.009497869018190385759 621.45807121275220197 41.009497869018190385759 220.98970519449630956
42.009497869018190385759 625.22700423322294228 42.009497869018190385759 221.75254430783215298
43.009497869018190385759 628.89399131816162480 43.009497869018190385759 222.50322454633968050
44.009497869018218807469 632.46366197374004514 44.009497869018218807469 223.19930352978303745
46.009497869018218807469 639.32824575135202849 46.009497869018218807469 224.52847399724367961
48.009497869018218807469 645.85029890503847128 48.009497869018218807469 225.74896134754013133
50.009497869018218807469 652.05333357314987097 50.009497869018218807469 226.80236841872232390
52.009497869018190385759 657.96079516388272168 52.009497869018190385759 227.73738106753154398
54.009497869018190385759 663.59498952325373011 54.009497869018190385759 228.57339067931846444
56.009497869018190385759 668.97359236718079956 56.009497869018190385759 229.31375566318462234
58.009497869018190385759 674.11184457068623033 58.009497869018190385759 229.96250233095400972
60.009497869018190385759 679.02491554533321505 60.009497869018190385759 230.64129636607364660
62.009497869018190385759 683.72555923917320797 62.009497869018190385759 231.28937922508350766
64.009497869018190385759 688.22714316112637789 64.009497869018190385759 231.90657981347180794
66.009497869018218807469 692.54769008233688510 66.009497869018218807469 232.55848695986287566
68.009497869018218807469 696.70280222703547679 68.009497869018218807469 233.21231629893227932
70.009497869018218807469 700.70175066670083197 70.009497869018218807469 233.75180617649030523
72.009497869018218807469 704.55422936593799932 72.009497869018218807469 234.12008053666863816
74.009497869018190385759 708.26922746763375471 74.009497869018190385759 234.45383492099608702
76.009497869018190385759 711.85398627956374185 76.009497869018190385759 234.74473524532692181
78.009497869018190385759 715.31780144204424232 78.009497869018190385759 235.10223240147766433
80.009497869018190385759 718.66642577099321443 80.009497869018190385759 235.28027932940733535
82.009497869018190385759 721.89976698380974085 82.009497869018190385759 235.52105364882345384
84.009497869018190385759 725.01928998386756575 84.009497869018190385759 235.70975466728194192
86.009497869018190385759 728.02757680314414301 86.009497869018190385759 235.66017440165660446
88.009497869018218807469 730.93218180215524171 88.009497869018218807469 235.68418148938462764
91.009497869018190385759 735.10154359775685862 91.009497869018190385759 235.59369552217668797
94.009497869018218807469 739.06061114586532312 94.009497869018218807469 235.67236934017137173
97.009497869018190385759 742.83791538082380157 97.009497869018190385759 236.03311709274578334
99.504748934509109403734 745.86164130354120516 99.504748934509109403734 236.21054911791821951
nan nan nan nan

