Time Pressure difference Time.1 Pressure.1 difference.1
(hr) (psi) (hr) (psi)
0.000200000000006639311 0.63600388090388127 0.000200000000006639311 0.50224858755127644
0.000399999999999067768 1.15438623801870266 0.000399999999999067768 0.99349104009249467
0.000600000000005707079 1.61546670151754834 0.000600000000005707079 1.33060715457080536
0.000799999999998135536 2.03773868879569209 0.000799999999998135536 1.63357660151877493
0.001007140329434719206 2.44442231045710123 0.001007140329434719206 1.91983183823436199
0.001267914553963578328 2.92184477529352504 0.001267914553963578328 2.24850112477650432
0.001596209851982166583 3.47988186331244487 0.001596209851982166583 2.62216329025250028
0.002009509145224797066 4.12937581289702482 0.002009509145224797066 3.04517951952015942
0.002529822128138903281 4.88220994685983367 0.002529822128138903281 3.52228248195688165
0.003184857364431081805 5.75140476129143785 0.003184857364431081805 4.05868127590583416
0.004009497869020606231 6.75124073181560735 0.004009497869020606231 4.66018729321799974
0.005047658755842121536 7.89741215619545400 0.005047658755842121536 5.33335633704130974
0.006354625877790454069 9.20721511339501220 0.006354625877790454069 6.08564167022189295
0.008000000000009777068 10.69977137122401700 0.008000000000009777068 6.92555334513593124
0.010071403294347192059 12.39628913179966041 0.010071403294347192059 7.86282073458880237
0.012679145539706837553 14.32036095807607801 0.012679145539706837553 8.90855541707033716
0.015962098519750611558 16.49829835977933712 0.015962098519750611558 10.07540686605302405
0.020095091452091651263 18.95949976624249800 0.020095091452091651263 11.37769748611400189
0.025298221281360611101 21.73684497232125423 0.025298221281360611101 12.83154226282151100
0.031848573644296607199 24.86711493758354052 0.031848573644296607199 14.45503136711787384
0.040094978690177640601 28.39146570834271799 0.040094978690177640601 16.26862334007998712
0.050476587558421215363 32.35602274419147761 0.050476587558421215363 18.29575367708053690
0.063546258777961384112 36.81262580872886758 0.063546258777961384112 20.56314937254094488
0.079999999999998294697 41.81955507048643739 0.079999999999998294697 23.09974479786798796
0.100714032943542974863 47.44175886955982691 0.100714032943542974863 25.93319622575346273
0.126791455396897845276 53.74995134650209394 0.126791455396897845276 29.08414061452612742
0.159620985197506115583 60.81816712873580855 0.159620985197506115583 32.56019589481287113
0.200950914520760193227 68.72006043865231106 0.200950914520760193227 36.35263330009019000
0.252982212813478213320 77.52488345907123346 0.252982212813478213320 40.43836588417289590
0.318485736442795541734 87.29464379842249855 0.318485736442795541734 44.78408521678252896
0.400949786901833249431 98.08191428486364316 0.400949786901833249431 49.35964818757476280
0.504765875584155310207 109.93303933478932777 0.504765875584155310207 54.14255510864960286
0.635462587779443310865 122.88786702325457156 0.635462587779443310865 59.12405678016063604
0.799999999999997157829 136.98555286773600415 0.799999999999997157829 64.31798802576000185
1.007140329435344483500 152.26806260655644110 1.007140329435344483500 69.77179462024956536
1.267914553968893187630 168.79057622092119573 1.267914553968893187630 75.50480324611500293
1.596209851975103788391 186.59638853136209491 1.596209851975103788391 81.62992376796981375
2.009509145207672986544 205.78168451768578961 2.009509145207672986544 88.19713212369642008
2.529822128134711078928 226.39895325248915015 2.529822128134711078928 95.31925244173748979
3.184857364427998049905 248.57624316374412388 3.184857364427998049905 103.15262656562903487
4.009497869018190385759 272.41146908494255285 4.009497869018190385759 111.73633466500623967
5.009497869018204596614 297.14486024564979516 5.009497869018204596614 120.80281564788216997
6.009497869018204596614 318.64857911273799118 6.009497869018204596614 128.76202278461289552
7.009497869018204596614 337.75852818338694306 7.009497869018204596614 135.85079733971085147
8.009497869018204596614 354.99930391996105072 8.009497869018204596614 142.20342449295034726
9.009497869018204596614 370.72557613567715862 9.009497869018204596614 147.93811077839703216
10.009497869018190385759 385.19122300578169416 10.009497869018190385759 153.13284076414313972
11.009497869018190385759 398.58602626607341790 11.009497869018190385759 157.81948911108204925
12.009497869018190385759 411.05682631961224160 12.009497869018190385759 162.10058139208570083
13.009497869018190385759 422.71972823624923876 13.009497869018190385759 166.02138639112828855
14.009497869018190385759 433.66988910590612250 14.009497869018190385759 169.61491140711510184
15.009497869018190385759 443.98404511320740085 15.009497869018190385759 172.92059596762456408
16.009497869018204596614 453.72588677051288641 16.009497869018204596614 175.97263247392947960
17.009497869018204596614 462.95128855952521008 17.009497869018204596614 178.80253852434617556
18.009497869018204596614 471.70866246795441157 18.009497869018204596614 181.44402704874138976
19.009497869018204596614 480.03913312958542292 19.009497869018204596614 183.90413356432586056
20.009497869018204596614 487.97988717332549413 20.009497869018204596614 186.19618543117132958
21.009497869018204596614 495.56129421625735176 21.009497869018204596614 188.33090705656681507
22.009497869018190385759 502.80929892704921258 22.009497869018190385759 190.32733309509168862
23.009497869018190385759 509.74770691377170806 23.009497869018190385759 192.19179276552000601
24.009497869018190385759 516.39850358495084492 24.009497869018190385759 193.94541986826052948
25.009497869018190385759 522.78235598490402936 25.009497869018190385759 195.59724647274975950
26.009497869018190385759 528.91744586612333023 26.009497869018190385759 197.15643176406962311
27.009497869018204596614 534.82036228079607554 27.009497869018204596614 198.63478166815261261
28.009497869018190385759 540.50548326899308904 28.009497869018190385759 200.03520319327770949
29.009497869018190385759 545.98569354984283564 29.009497869018190385759 201.35076312267582921
30.009497869018190385759 551.27295913963621388 30.009497869018190385759 202.61018276167584418
31.009497869018190385759 556.37824188831473293 31.009497869018190385759 203.80304768995512177
32.009497869018190385759 561.31163756885700877 32.009497869018190385759 204.93422283578445331
33.009497869018218807469 566.08253455948317878 33.009497869018218807469 206.00050400631789671
34.009497869018190385759 570.69988765912376039 34.009497869018190385759 207.02737707063826633
35.009497869018218807469 575.17169360926015997 35.009497869018218807469 208.00171966669185508
36.009497869018190385759 579.50534709252099219 36.009497869018190385759 208.94050835857666470
37.009497869018218807469 583.70769870430990522 37.009497869018218807469 209.84095423383737966
38.009497869018190385759 587.78526918575835225 38.009497869018190385759 210.70690160337744601
39.009497869018190385759 591.74402625964887648 39.009497869018190385759 211.54224968099654802
40.009497869018190385759 595.58955756714715335 40.009497869018190385759 212.34254430797932400
41.009497869018190385759 599.32722555840007317 41.009497869018190385759 213.12000443203589839
42.009497869018190385759 602.96194248478286681 42.009497869018190385759 213.85567795615767750
43.009497869018190385759 606.49834388912211125 43.009497869018190385759 214.57962559714374606
44.009497869018218807469 609.94089441548373998 44.009497869018218807469 215.25091639734611704
46.009497869018218807469 616.56102237040875025 46.009497869018218807469 216.53275355653337897
48.009497869018218807469 622.85081761583114712 48.009497869018218807469 217.70977793092893648
50.009497869018218807469 628.83295499547273266 50.009497869018218807469 218.72567194952813452
52.009497869018190385759 634.53004499924008996 52.009497869018190385759 219.62738770901501084
54.009497869018190385759 639.96359913599644642 54.009497869018190385759 220.43362604492500623
56.009497869018190385759 645.15066366883081628 56.009497869018190385759 221.14762576950047901
58.009497869018190385759 650.10593672745676486 58.009497869018190385759 221.77326981291233210
60.009497869018190385759 654.84404752302589259 60.009497869018190385759 222.42789120193049257
62.009497869018190385759 659.37729582064639544 62.009497869018190385759 223.05289507558580908
64.009497869018190385759 663.71857309667814206 64.009497869018190385759 223.64811643224132354
66.009497869018218807469 667.88526031039612008 66.009497869018218807469 224.27680840595053269
68.009497869018218807469 671.89240407265594968 68.009497869018218807469 224.90735412081821210
70.009497869018218807469 675.74894530128415226 70.009497869018218807469 225.42763213555659263
72.009497869018218807469 679.46423274751680310 72.009497869018218807469 225.78279181688350263
74.009497869018190385759 683.04693544039355402 74.009497869018190385759 226.10466081890095325
76.009497869018190385759 686.50403681628768027 76.009497869018190385759 226.38520184390526424
78.009497869018190385759 689.84450148693781557 78.009497869018190385759 226.72996810999097761
80.009497869018190385759 693.07387740378749186 80.009497869018190385759 226.90167457946694185
82.009497869018190385759 696.19207557052675384 82.009497869018190385759 227.13387464496736357
84.009497869018190385759 699.20050872361446181 84.009497869018190385759 227.31585580040086825
86.009497869018190385759 702.10166694586189351 86.009497869018190385759 227.26804114577470273
88.009497869018218807469 704.90283557820941951 88.009497869018218807469 227.29119331315052932
91.009497869018190385759 708.92372154470876922 91.009497869018190385759 227.20392965661315543
94.009497869018218807469 712.74180208677296378 94.009497869018218807469 227.27980180832696533
97.009497869018190385759 716.38459211894644341 97.009497869018190385759 227.62770291331210615
99.504748934509109403734 719.30063964018120259 99.504748934509109403734 227.79881637743412170
nan nan nan nan

