Time Pressure difference Time.1 Pressure.1 difference.1
(hr) (psi) (hr) (psi)
0.000200000000006639311 0.59220720647038050 0.000200000000006639311 0.46766260697139811
0.000399999999999067768 1.07489257492160628 0.000399999999999067768 0.92507698643343073
0.000600000000005707079 1.50422198853879507 0.000600000000005707079 1.23897851817820470
0.000799999999998135536 1.89741536591455162 0.000799999999998135536 1.52108479961778165
0.001007140329434719206 2.27609382800047477 0.001007140329434719206 1.78762784937391173
0.001267914553963578328 2.72063989555774333 0.001267914553963578328 2.09366422097452931
0.001596209851982166583 3.24024927991068967 0.001596209851982166583 2.44159515948660966
0.002009509145224797066 3.84501759823645139 0.002009509145224797066 2.83548152865499858
0.002529822128138903281 4.54600986069882662 0.002529822128138903281 3.27973009547482119
0.003184857364431081805 5.35534994240011120 0.003184857364431081805 3.77919124792429484
0.004009497869020606231 6.28633493291812506 0.004009497869020606231 4.33927619218801830
0.005047658755842121536 7.35357838496043659 0.005047658755842121536 4.96608928389175830
0.006354625877790454069 8.57318533013727091 0.006354625877790454069 5.66657053724254123
0.008000000000009777068 9.96296076781637474 0.008000000000009777068 6.44864398304573250
0.010071403294347192059 11.54265245505896331 0.010071403294347192059 7.32136900735663954
0.012679145539706837553 13.33422831725048141 0.012679145539706837553 8.29509202008645019
0.015962098519750611558 15.36218799368674937 0.015962098519750611558 9.38159142318110995
0.020095091452091651263 17.65390547096232865 0.020095091452091651263 10.59420334784866569
0.025298221281360611101 20.23999636644284195 0.025298221281360611101 11.94793306508230657
0.031848573644296607199 23.15470881912718681 0.031848573644296607199 13.45962501548999768
0.040094978690177640601 26.43636477633109294 0.040094978690177640601 15.14832891845771456
0.050476587558421215363 30.12791339354356523 0.050476587558421215363 17.03586644782049930
0.063546258777961384112 34.27762463028346929 0.063546258777961384112 19.14712411634800304
0.079999999999998294697 38.93976535006371620 0.079999999999998294697 21.50904380879324407
0.100714032943542974863 44.17481140249433480 0.100714032943542974863 24.14737732398002024
0.126791455396897845276 50.04860739150345239 0.126791455396897845276 27.08134051232821804
0.159620985197506115583 56.63008975160729364 0.159620985197506115583 30.31802671642755698
0.200950914520760193227 63.98784070784692091 0.200950914520760193227 33.84930825247918307
0.252982212813478213320 72.18634358015314945 0.252982212813478213320 37.65368799394542521
0.318485736442795541734 81.28333599194431258 0.318485736442795541734 41.70015120484841020
0.400949786901833249431 91.32777048680416954 0.400949786901833249431 45.96063049801123412
0.504765875584155310207 102.36280009916011124 0.504765875584155310207 50.41417556523960286
0.635462587779443310865 114.42552887494660752 0.635462587779443310865 55.05263969649688249
0.799999999999997157829 127.55241599361046667 0.799999999999997157829 59.88890501799808419
1.007140329435344483500 141.78253733724267249 1.007140329435344483500 64.96715008053179474
1.267914553968893187630 157.16727306798352970 1.267914553968893187630 70.30537068725080019
1.596209851975103788391 173.74693662650784631 1.596209851975103788391 76.00870147257070641
2.009509145207672986544 191.61108947604876107 2.009509145207672986544 82.12367691757360433
2.529822128134711078928 210.80860617222791120 2.529822128134711078928 88.75535182449209515
3.184857364427998049905 231.45871743689946243 3.184857364427998049905 96.04930198176835177
4.009497869018190385759 253.65259546532075774 4.009497869018190385759 104.04191640963155407
5.009497869018204596614 276.68278903112900480 5.009497869018204596614 112.48405888171063793
6.009497869018204596614 296.70571288641173169 6.009497869018204596614 119.89517690423535612
7.009497869018204596614 314.49970738033931639 7.009497869018204596614 126.49580231332360825
8.009497869018204596614 330.55324406918526847 8.009497869018204596614 132.41097310571126400
9.009497869018204596614 345.19656939579522259 9.009497869018204596614 137.75075584455532862
10.009497869018190385759 358.66607890658116276 10.009497869018190385759 142.58776490313928775
11.009497869018190385759 371.13848553517618711 11.009497869018190385759 146.95167998067819326
12.009497869018190385759 382.75051792035753806 12.009497869018190385759 150.93796650580432583
13.009497869018190385759 393.61028587267514922 13.009497869018190385759 154.58877595102066493
14.009497869018190385759 403.80639374831378063 14.009497869018190385759 157.93484265752334750
15.009497869018190385759 413.41029350361526440 15.009497869018190385759 161.01289025727916737
16.009497869018204596614 422.48128977733381362 16.009497869018204596614 163.85475658500618579
17.009497869018204596614 431.07140940722257483 17.009497869018204596614 166.48978886548400169
18.009497869018204596614 439.22573062135876398 18.009497869018204596614 168.94937847951666754
19.009497869018204596614 446.98254611766782318 19.009497869018204596614 171.24007646259084936
20.009497869018204596614 454.37648176917434739 20.009497869018204596614 173.37429242243797489
21.009497869018204596614 461.43581587202407945 21.009497869018204596614 175.36201225925830727
22.009497869018190385759 468.18470648596502315 22.009497869018190385759 177.22095985800453377
23.009497869018190385759 474.64531991072755090 23.009497869018190385759 178.95702859304407184
24.009497869018190385759 480.83812758958003997 24.009497869018190385759 180.58989694320064245
25.009497869018190385759 486.78237338714114912 25.009497869018190385759 182.12797500905739412
26.009497869018190385759 492.49498701905497455 26.009497869018190385759 183.57979125337018900
27.009497869018204596614 497.99141517762745934 27.009497869018204596614 184.95633861914805607
28.009497869018190385759 503.28504579837380106 28.009497869018190385759 186.26032393146516597
29.009497869018190385759 508.38787632934463545 29.009497869018190385759 187.48529141063528414
30.009497869018190385759 513.31104877972109080 30.009497869018190385759 188.65798454754846603
31.009497869018190385759 518.06477014151460025 31.009497869018190385759 189.76870608256302830
32.009497869018190385759 522.65844096980413269 32.009497869018190385759 190.82198593391902364
33.009497869018218807469 527.10080313772232330 33.009497869018218807469 191.81484055678103573
34.009497869018190385759 531.40019479636976030 34.009497869018190385759 192.77100080529490356
35.009497869018218807469 535.56406201341292217 35.009497869018218807469 193.67824795311724984
36.009497869018190385759 539.59929025680855830 36.009497869018190385759 194.55238951951298532
37.009497869018218807469 543.51225837437232258 37.009497869018218807469 195.39082864288451447
38.009497869018190385759 547.30903807416427753 38.009497869018190385759 196.19714490613887392
39.009497869018190385759 550.99518612799636230 39.009497869018190385759 196.97496901434109873
40.009497869018190385759 554.57590539934960816 40.009497869018190385759 197.72015353228016465
41.009497869018190385759 558.05618906785161926 41.009497869018190385759 198.44407598312324126
42.009497869018190385759 561.44061111607027215 42.009497869018190385759 199.12908935438633762
43.009497869018190385759 564.73348787280531269 43.009497869018190385759 199.80318431350809760
44.009497869018218807469 567.93897653657313640 44.009497869018218807469 200.42824850172047491
46.009497869018218807469 574.10322741675781799 46.009497869018218807469 201.62181543737088418
48.009497869018218807469 579.95989304947158871 48.009497869018218807469 202.71778723508654707
50.009497869018218807469 585.53008683710186233 50.009497869018218807469 203.66372447994984896
52.009497869018190385759 590.83486225977139839 52.009497869018190385759 204.50334604043013087
54.009497869018190385759 595.89424949489489336 54.009497869018190385759 205.25406496997507588
56.009497869018190385759 600.72412096109701451 56.009497869018190385759 205.91889704884624734
58.009497869018190385759 605.33816264143433727 58.009497869018190385759 206.50145781980756965
60.009497869018190385759 609.74999634629057255 60.009497869018190385759 207.11100049042033788
62.009497869018190385759 613.97107485096114488 62.009497869018190385759 207.69296517517122425
64.009497869018190385759 618.01340189540985648 64.009497869018190385759 208.24719823481154890
66.009497869018218807469 621.89316154650646240 66.009497869018218807469 208.83259704865452022
68.009497869018218807469 625.62436427124544025 68.009497869018218807469 209.41972195082178132
70.009497869018218807469 629.21533529550720232 70.009497869018218807469 209.90417243759910093
72.009497869018218807469 632.67477959424468281 72.009497869018218807469 210.23487501512209974
74.009497869018190385759 636.01076922743243358 74.009497869018190385759 210.53457938526403836
76.009497869018190385759 639.22980673612414648 76.009497869018190385759 210.79580171692975910
78.009497869018190385759 642.34023940849601786 78.009497869018190385759 211.11682659343472324
80.009497869018190385759 645.34723315143082800 80.009497869018190385759 211.27670896471323658
82.009497869018190385759 648.25070509710724309 82.009497869018190385759 211.49291920534386691
84.009497869018190385759 651.05197069773669227 84.009497869018190385759 211.66236872432534710
86.009497869018190385759 653.75334856336235134 86.009497869018190385759 211.61784669561657779
88.009497869018218807469 656.36162234976973195 88.009497869018218807469 211.63940455206531510
91.009497869018190385759 660.10562095929458337 91.009497869018190385759 211.55815006948108703
94.009497869018218807469 663.66077978738439924 94.009497869018218807469 211.62879749218467396
97.009497869018190385759 667.05271900895922954 97.009497869018190385759 211.95274133544930351
99.504748934509109403734 669.76796086256388207 99.504748934509109403734 212.11207153707189832
nan nan nan nan

