Time Pressure difference Time.1 Pressure.1 difference.1
(hr) (psi) (hr) (psi)
0.000200000000006639311 0.48430235641682778 0.000200000000006639311 0.38245077076010370
0.000399999999999067768 0.87903862236354313 0.000399999999999067768 0.75652062234588169
0.000600000000005707079 1.23014081163462019 0.000600000000005707079 1.01322680532687071
0.000799999999998135536 1.55169123707695933 0.000799999999998135536 1.24393108478924685
0.001007140329434719206 1.86137147991893048 0.001007140329434719206 1.46190787681917977
0.001267914553963578328 2.22491772809277411 0.001267914553963578328 1.71218199421604056
0.001596209851982166583 2.64985016138462592 0.001596209851982166583 1.99671715615035739
0.002009509145224797066 3.14442489544953130 0.002009509145224797066 2.31883430478431274
0.002529822128138903281 3.71769080783837635 0.002529822128138903281 2.68213725921467150
0.003184857364431081805 4.37956270745046616 0.003184857364431081805 3.09059262825963232
0.004009497869020606231 5.14091484867795323 0.004009497869020606231 3.54862565341849701
0.005047658755842121536 6.01369807901909326 0.005047658755842121536 4.06122842830590791
0.006354625877790454069 7.01108296558921573 0.006354625877790454069 4.63407644149631182
0.008000000000009777068 8.14763029565262009 0.008000000000009777068 5.27364990253364851
0.010071403294347192059 9.43948962830652682 0.010071403294347192059 5.98735750548029610
0.012679145539706837553 10.90462615869465779 0.012679145539706837553 6.78366046230006692
0.015962098519750611558 12.56307549751660169 0.015962098519750611558 7.67219105668508838
0.020095091452091651263 14.43722387389523831 0.020095091452091651263 8.66385547096305686
0.025298221281360611101 16.55210849688734243 0.025298221281360611101 9.77092489673933429
0.031848573644296607199 18.93573722293038131 0.031848573644296607199 11.00717458394305126
0.040094978690177640601 21.61944943659230844 0.040094978690177640601 12.38818324199703724
0.050476587558421215363 24.63836861658492694 0.050476587558421215363 13.93179646268707472
0.063546258777961384112 28.03196955295421944 0.063546258777961384112 15.65836623877119749
0.079999999999998294697 31.84463125626860958 0.079999999999998294697 17.58992542991344976
0.100714032943542974863 36.12581039668079086 0.100714032943542974863 19.74753365294400709
0.126791455396897845276 40.92935416904301604 0.126791455396897845276 22.14690547792757869
0.159620985197506115583 46.31163824273993868 0.159620985197506115583 24.79384178417387119
0.200950914520760193227 52.32874861745681017 0.200950914520760193227 27.68169581633613774
0.252982212813478213320 59.03341924078976177 0.252982212813478213320 30.79288739483425275
0.318485736442795541734 66.47286748322990491 0.318485736442795541734 34.10205291457592125
0.400949786901833249431 74.68712634665763517 0.400949786901833249431 37.58623908894166021
0.504765875584155310207 83.71148604036352481 0.504765875584155310207 41.22831292205553666
0.635462587779443310865 93.57628995882558343 0.635462587779443310865 45.02161209906443418
0.799999999999997157829 104.31135412982293076 0.799999999999997157829 48.97667152061364959
1.007140329435344483500 115.94863449980294945 1.007140329435344483500 53.12962005514014407
1.267914553968893187630 128.53014935784719341 1.267914553968893187630 57.49517452773029191
1.596209851975103788391 142.08886671599731244 1.596209851975103788391 62.15931320854389242
2.009509145207672986544 156.69802922853719451 2.009509145207672986544 67.16009162712610703
2.529822128134711078928 172.39760611941036927 2.529822128134711078928 72.58342276751069733
3.184857364427998049905 189.28510332728220078 3.184857364427998049905 78.54835735486521742
4.009497869018190385759 207.43508075031056137 4.009497869018190385759 85.08465404131713683
5.009497869018204596614 226.26899038665749231 5.009497869018204596614 91.98857119694019957
6.009497869018204596614 242.64357870560786523 6.009497869018204596614 98.04932473518925917
7.009497869018204596614 257.19536627138143103 7.009497869018204596614 103.44726384251437423
8.009497869018204596614 270.32382124843337579 8.009497869018204596614 108.28464360091926721
9.009497869018204596614 282.29901655840484409 9.009497869018204596614 112.65147557277138901
10.009497869018190385759 293.31427460420303532 10.009497869018190385759 116.60714321660800863
11.009497869018190385759 303.51410982137127803 11.009497869018190385759 120.17591835504551057
12.009497869018190385759 313.01033780625164127 12.009497869018190385759 123.43587185844450005
13.009497869018190385759 321.89136990444922048 13.009497869018190385759 126.42147486669750833
14.009497869018190385759 330.22966605569502008 14.009497869018190385759 129.15786168026829728
15.009497869018190385759 338.08365910317087355 15.009497869018190385759 131.67506459410932962
16.009497869018204596614 345.50184791008115326 16.009497869018204596614 133.99912033693431113
17.009497869018204596614 352.52677961169428045 17.009497869018204596614 136.15402883640331311
18.009497869018204596614 359.19531882539843082 18.009497869018204596614 138.16546171476016980
19.009497869018204596614 365.53878101584200522 19.009497869018204596614 140.03877635686689018
20.009497869018204596614 371.58548294735265927 20.009497869018204596614 141.78412124150074192
21.009497869018204596614 377.35855038623185465 21.009497869018204596614 143.40966275864320778
22.009497869018190385759 382.87773960213434066 22.009497869018190385759 144.92989536083328517
23.009497869018190385759 388.16117801916948338 23.009497869018190385759 146.34963860288598880
24.009497869018190385759 393.22560702127498189 24.009497869018190385759 147.68498538870537118
25.009497869018190385759 398.08676408830518767 25.009497869018190385759 148.94281343184437105
26.009497869018190385759 402.75849420743725204 26.009497869018190385759 150.13009724150211355
27.009497869018204596614 407.25342956112513093 27.009497869018204596614 151.25582675928185949
28.009497869018190385759 411.58251869684806934 28.009497869018190385759 152.32221560526036797
29.009497869018190385759 415.75557303246512220 29.009497869018190385759 153.32398429401365547
30.009497869018190385759 419.78170441471297636 30.009497869018190385759 154.28300344027812230
31.009497869018190385759 423.66926004070268164 31.009497869018190385759 155.19134270203173287
32.009497869018190385759 427.42592760981830224 32.009497869018190385759 156.05270661048257352
33.009497869018218807469 431.05885615657246035 33.009497869018218807469 156.86465524632788515
34.009497869018190385759 434.57486455480187715 34.009497869018190385759 157.64659551386924363
35.009497869018218807469 437.98004213958637365 35.009497869018218807469 158.38853503561463754
36.009497869018190385759 441.28001979200951155 36.009497869018190385759 159.10340107544311650
37.009497869018218807469 444.48001408322198813 37.009497869018218807469 159.78906994053684798
38.009497869018190385759 447.58499040791787138 38.009497869018190385759 160.44846898540617985
39.009497869018190385759 450.59949305001202902 39.009497869018190385759 161.08456737185665020
40.009497869018190385759 453.52777686999331763 40.009497869018190385759 161.69397336026770517
41.009497869018190385759 456.37392525055815895 41.009497869018190385759 162.28599139884568103
42.009497869018190385759 459.14167875837262045 42.009497869018190385759 162.84618990074679346
43.009497869018190385759 461.83456725289437372 43.009497869018190385759 163.39745941179708666
44.009497869018218807469 464.45599045809791505 44.009497869018218807469 163.90863194728052576
46.009497869018218807469 469.49706593674835631 46.009497869018218807469 164.88472152059378573
48.009497869018218807469 474.28660063959995341 48.009497869018218807469 165.78099856417045999
50.009497869018218807469 478.84186093966633280 50.009497869018218807469 166.55457854040915322
52.009497869018190385759 483.18006420600812589 52.009497869018190385759 167.24121439319205251
54.009497869018190385759 487.31759095884757471 54.009497869018190385759 167.85514637951874306
56.009497869018190385759 491.26742153624547882 56.009497869018190385759 168.39884078056772410
58.009497869018190385759 495.04074822659634947 58.009497869018190385759 168.87525435853501676
60.009497869018190385759 498.64871083839193489 60.009497869018190385759 169.37373352003291416
62.009497869018190385759 502.10067536043231939 62.009497869018190385759 169.84965962342513990
64.009497869018190385759 505.40645835605329239 64.009497869018190385759 170.30290702375265255
66.009497869018218807469 508.57929502677870914 66.009497869018218807469 170.78164153067888265
68.009497869018218807469 511.63064302139372330 68.009497869018218807469 171.26178761894641411
70.009497869018218807469 514.56731064359269112 70.009497869018218807469 171.65796738466033844
72.009497869018218807469 517.39641675284963185 72.009497869018218807469 171.92841332962285605
74.009497869018190385759 520.12456261578881822 74.009497869018190385759 172.17350918644851276
76.009497869018190385759 522.75706595890972039 76.009497869018190385759 172.38713473742487281
78.009497869018190385759 525.30075312827705147 78.009497869018190385759 172.64966633525258999
80.009497869018190385759 527.75984876156667269 80.009497869018190385759 172.78041687039248586
82.009497869018190385759 530.13428509013169787 82.009497869018190385759 172.95723189032943878
84.009497869018190385759 532.42513788035705602 84.009497869018190385759 173.09580636297988576
86.009497869018190385759 534.63430327314631541 86.009497869018190385759 173.05939660102404787
88.009497869018218807469 536.76732888839705993 88.009497869018218807469 173.07702644504374234
91.009497869018190385759 539.82914125610056999 91.009497869018190385759 173.01057717364852806
94.009497869018218807469 542.73652194831106499 94.009497869018218807469 173.06835207560226308
97.009497869018190385759 545.51042294087437767 97.009497869018190385759 173.33327078129454435
99.504748934509109403734 547.73092619307203677 99.504748934509109403734 173.46356975646929754
nan nan nan nan

