Time Pressure difference Time.1 Pressure.1 difference.1
(hr) (psi) (hr) (psi)
0.000200000000006639311 0.46018244875779835 0.000200000000006639311 0.36340341913640256
0.000399999999999067768 0.83525950355644651 0.000399999999999067768 0.71884331743219432
0.000600000000005707079 1.16887560738545160 0.000600000000005707079 0.96276465774833719
0.000799999999998135536 1.47441172592502667 0.000799999999998135536 1.18197907794522150
0.001007140329434719206 1.76866883740658554 0.001007140329434719206 1.38909988295400422
0.001267914553963578328 2.11410924360060459 0.001267914553963578328 1.62690949647002525
0.001596209851982166583 2.51787859371409439 0.001596209851982166583 1.89727383775754777
0.002009509145224797066 2.98782182070892555 0.002009509145224797066 2.20334845474263030
0.002529822128138903281 3.53253713719898155 0.002529822128138903281 2.54855768405063809
0.003184857364431081805 4.16144556081466277 0.003184857364431081805 2.93667058386400148
0.004009497869020606231 4.88487977102426729 0.004009497869020606231 3.37189200357589813
0.005047658755842121536 5.71419542239691047 0.005047658755842121536 3.85896541352789324
0.006354625877790454069 6.66190714292553299 0.006354625877790454069 4.40328364362362468
0.008000000000009777068 7.74185054305131004 0.008000000000009777068 5.01100416688977113
0.010071403294347192059 8.96937087879715733 0.010071403294347192059 5.68916669917852502
0.012679145539706837553 10.36153861737041559 0.012679145539706837553 6.44581105526546327
0.015962098519750611558 11.93739152778445067 0.015962098519750611558 7.29008979829185932
0.020095091452091651263 13.71820092866847673 0.020095091452091651263 8.23236594554156831
0.025298221281360611101 15.72775709075140504 0.025298221281360611101 9.28429954146266923
0.031848573644296607199 17.99267298378050484 0.031848573644296607199 10.45897978159726449
0.040094978690177640601 20.54272718418010868 0.040094978690177640601 11.77120950255288534
0.050476587558421215363 23.41129390173535185 0.050476587558421215363 13.23794552483372122
0.063546258777961384112 26.63588194743356397 0.063546258777961384112 14.87852624260697176
0.079999999999998294697 30.25866010589088262 0.079999999999998294697 16.71388720404619832
0.100714032943542974863 34.32662193655775695 0.100714032943542974863 18.76403918530066051
0.126791455396897845276 38.89093286049303089 0.126791455396897845276 21.04391411729684691
0.159620985197506115583 44.00516084664018024 0.159620985197506115583 23.55902397578775620
0.200950914520760193227 49.72259862078136905 0.200950914520760193227 26.30305303649240045
0.252982212813478213320 56.09335380022618978 0.252982212813478213320 29.25929667267999079
0.318485736442795541734 63.16229216951727921 0.318485736442795541734 32.40365447322089665
0.400949786901833249431 70.96745295062488879 0.400949786901833249431 35.71431630338493335
0.504765875584155310207 79.54236878016192236 0.504765875584155310207 39.17500244887321514
0.635462587779443310865 88.91587184816322065 0.635462587779443310865 42.77938240081483201
0.799999999999997157829 99.11629324262335672 0.799999999999997157829 46.53746638590418883
1.007140329435344483500 110.17399739496349298 1.007140329435344483500 50.48358393181730719
1.267914553968893187630 122.12890994028731484 1.267914553968893187630 54.63171891560217830
1.596209851975103788391 135.01235697129493474 1.596209851975103788391 59.06356759658495292
2.009509145207672986544 148.89393340850517689 2.009509145207672986544 63.81529020926137719
2.529822128134711078928 163.81161787231002336 2.529822128134711078928 68.96852097830307571
3.184857364427998049905 179.85806017336776108 3.184857364427998049905 74.63638149708687308
4.009497869018190385759 197.10410687283766151 4.009497869018190385759 80.84714833545861268
5.009497869018204596614 215.00002363083441992 5.009497869018204596614 87.40722689093270503
6.009497869018204596614 230.55910165342820051 6.009497869018204596614 93.16613425034366003
7.009497869018204596614 244.38616061173206617 7.009497869018204596614 98.29523759609818967
8.009497869018204596614 256.86077379438296475 8.009497869018204596614 102.89169935867164440
9.009497869018204596614 268.23956357122347072 9.009497869018204596614 107.04104821790204483
10.009497869018190385759 278.70622423073024265 10.009497869018190385759 110.79971013373631195
11.009497869018190385759 288.39807289710898885 11.009497869018190385759 114.19074810931584807
12.009497869018190385759 297.42135636898092343 12.009497869018190385759 117.28834481962287839
13.009497869018190385759 305.86008280566932171 13.009497869018190385759 120.12525462431936774
14.009497869018190385759 313.78310339499199699 14.009497869018190385759 122.72536005005832749
15.009497869018190385759 321.24594082542449769 15.009497869018190385759 125.11719768116549290
16.009497869018204596614 328.29467855151881395 16.009497869018204596614 127.32550752854179166
17.009497869018204596614 334.96974471622331748 17.009497869018204596614 129.37309424166764416
18.009497869018204596614 341.30616795336027280 18.009497869018204596614 131.28435090852048006
19.009497869018204596614 347.33370411072797879 19.009497869018204596614 133.06436809794035980
20.009497869018204596614 353.07925968129842431 20.009497869018204596614 134.72278885987944363
21.009497869018204596614 358.56480868940775508 21.009497869018204596614 136.26737287027040679
22.009497869018190385759 363.80912347516039063 22.009497869018190385759 137.71189270852443087
23.009497869018190385759 368.82942865517412656 23.009497869018190385759 139.06092789920359110
24.009497869018190385759 373.64163183541853641 24.009497869018190385759 140.32976986475935632
25.009497869018190385759 378.26068671562416057 25.009497869018190385759 141.52495378517323843
26.009497869018190385759 382.69974875542857262 26.009497869018190385759 142.65310681531983050
27.009497869018204596614 386.97082101155405098 27.009497869018204596614 143.72277116707647338
28.009497869018190385759 391.08430675650697594 28.009497869018190385759 144.73605021469694520
29.009497869018190385759 395.04952876610383328 29.009497869018190385759 145.68792740912172690
30.009497869018190385759 398.87514508606409436 30.009497869018190385759 146.59918413394709091
31.009497869018190385759 402.56908719463888247 31.009497869018190385759 147.46228500520706461
32.009497869018190385759 406.13865991758621021 32.009497869018190385759 148.28075005583204415
33.009497869018218807469 409.59065624313899434 33.009497869018218807469 149.05226088281483499
34.009497869018190385759 412.93155544198083362 34.009497869018190385759 149.79525786049174485
35.009497869018218807469 416.16714357955453352 35.009497869018218807469 150.50024626581995335
36.009497869018190385759 419.30277109987798667 36.009497869018190385759 151.17950954088630056
37.009497869018218807469 422.34339477108250094 37.009497869018218807469 151.83102976001208617
38.009497869018190385759 425.29373269428629101 38.009497869018190385759 152.45758848547768594
39.009497869018190385759 428.15810283258025493 39.009497869018190385759 153.06200700471305254
40.009497869018190385759 430.94054813990186403 40.009497869018190385759 153.64106249828842010
41.009497869018190385759 433.64494863257488078 41.009497869018190385759 154.20359602118364251
42.009497869018190385759 436.27485858429901100 42.009497869018190385759 154.73589472875679007
43.009497869018190385759 438.83363205550250541 43.009497869018190385759 155.25970913964994224
44.009497869018218807469 441.32449945232104938 44.009497869018218807469 155.74542354099395425
46.009497869018218807469 446.11451219415801006 46.009497869018218807469 156.67290052743183537
48.009497869018218807469 450.66551174798166812 48.009497869018218807469 157.52453992008329919
50.009497869018218807469 454.99390456259254734 50.009497869018218807469 158.25959297745299637
52.009497869018190385759 459.11605052340223665 52.009497869018190385759 158.91203202498590485
54.009497869018190385759 463.04751434490759721 54.009497869018190385759 159.49538810635792174
56.009497869018190385759 466.80062990010213753 56.009497869018190385759 160.01200467354075840
58.009497869018190385759 470.38603206327962880 58.009497869018190385759 160.46469123189763195
60.009497869018190385759 473.81430584250875881 60.009497869018190385759 160.93834443253453514
62.009497869018190385759 477.09435076843175239 62.009497869018190385759 161.39056779421130727
64.009497869018190385759 480.23549450607947620 64.009497869018190385759 161.82124192951593500
66.009497869018218807469 483.25031309883951280 66.009497869018218807469 162.27613382666078223
68.009497869018218807469 486.14969356554450997 68.009497869018218807469 162.73236700358603457
70.009497869018218807469 488.94010513316464994 70.009497869018218807469 163.10881566694465050
72.009497869018218807469 491.62831211771418793 72.009497869018218807469 163.36579248227599237
74.009497869018190385759 494.22058702024492050 74.009497869018190385759 163.59868173024270277
76.009497869018190385759 496.72198272635586136 76.009497869018190385759 163.80166800082966461
78.009497869018190385759 499.13898560681627714 78.009497869018190385759 164.05112463048249083
80.009497869018190385759 501.47560989794999387 80.009497869018190385759 164.17536334342668169
82.009497869018190385759 503.73179120621944094 82.009497869018190385759 164.34337237285561173
84.009497869018190385759 505.90855172117807115 84.009497869018190385759 164.47504536456150959
86.009497869018190385759 508.00769314945091537 86.009497869018190385759 164.44044893282102748
88.009497869018218807469 510.03448682056063035 88.009497869018218807469 164.45720075053307596
91.009497869018190385759 512.94381049891603652 91.009497869018190385759 164.39406087928597344
94.009497869018218807469 515.70639372545952028 94.009497869018218807469 164.44895839424853534
97.009497869018190385759 518.34214499624374639 97.009497869018190385759 164.70068324565994544
99.504748934509109403734 520.45205961989154275 99.504748934509109403734 164.82449288786401098
nan nan nan nan

