Time Pressure difference Time.1 Pressure.1 difference.1
(hr) (psi) (hr) (psi)
0.000200000000006639311 0.43860147874708783 0.000200000000006639311 0.34636105189414373
0.000399999999999067768 0.79608871304483386 0.000399999999999067768 0.68513204461468458
0.000600000000005707079 1.11405937200461658 0.000600000000005707079 0.91761431517807024
0.000799999999998135536 1.40526690015750821 0.000799999999998135536 1.12654833497951445
0.001007140329434719206 1.68572436779027668 0.001007140329434719206 1.32395588844305800
0.001267914553963578328 2.01496481010761075 0.001267914553963578328 1.55061305111832759
0.001596209851982166583 2.39979877000888164 0.001596209851982166583 1.80829823709029713
0.002009509145224797066 2.84770328015154162 0.002009509145224797066 2.10001900996849322
0.002529822128138903281 3.36687332662689132 0.002529822128138903281 2.42903911679860851
0.003184857364431081805 3.96628811382473412 0.003184857364431081805 2.79895085993106907
0.004009497869020606231 4.65579575417623293 0.004009497869020606231 3.21376189582199379
0.005047658755842121536 5.44621936120864092 0.005047658755842121536 3.67799324241072334
0.006354625877790454069 6.34948667001592248 0.006354625877790454069 4.19678482447437862
0.008000000000009777068 7.37878444861855876 0.008000000000009777068 4.77600535078735433
0.010071403294347192059 8.54873831344666968 0.010071403294347192059 5.42236439880325616
0.012679145539706837553 9.87561818565925087 0.012679145539706837553 6.14352474370818680
0.015962098519750611558 11.37756902855042185 0.015962098519750611558 6.94820972499265466
0.020095091452091651263 13.07486460925505689 0.020095091452091651263 7.84629637016444725
0.025298221281360611101 14.99017951684030692 0.025298221281360611101 8.84889790779407548
0.031848573644296607199 17.14887866454114373 0.031848573644296607199 9.96848969528787521
0.040094978690177640601 19.57934411623235249 0.040094978690177640601 11.21918036726075130
0.050476587558421215363 22.31338494634362490 0.050476587558421215363 12.61713152780703595
0.063546258777961384112 25.38675093196771471 0.063546258777961384112 14.18077466709160994
0.079999999999998294697 28.83963328713186058 0.079999999999998294697 15.93006352827023875
0.100714032943542974863 32.71682173539505101 0.100714032943542974863 17.88407045109345717
0.126791455396897845276 37.06708221600094788 0.126791455396897845276 20.05702711041671904
0.159620985197506115583 41.94147054486671067 0.159620985197506115583 22.45418698933702117
0.200950914520760193227 47.39078020270334690 0.200950914520760193227 25.06953054926378854
0.252982212813478213320 53.46276893235351224 0.252982212813478213320 27.88713655285775772
0.318485736442795541734 60.20019846777440620 0.318485736442795541734 30.88403481516639459
0.400949786901833249431 67.63932412259559612 0.400949786901833249431 34.03943802157101572
0.504765875584155310207 75.81210596840261928 0.504765875584155310207 37.33782992023640190
0.635462587779443310865 84.74602406493902151 0.635462587779443310865 40.77317688132833950
0.799999999999997157829 94.46808086986584385 0.799999999999997157829 44.35501968642730475
1.007140329435344483500 105.00721682747554553 1.007140329435344483500 48.11607792673898132
1.267914553968893187630 116.40148519826004758 1.267914553968893187630 52.06967968369807664
1.596209851975103788391 128.68074298919282228 1.596209851975103788391 56.29368994377959012
2.009509145207672986544 141.91132135900286926 2.009509145207672986544 60.82257315117187346
2.529822128134711078928 156.12941786174650360 2.529822128134711078928 65.73413516690678193
3.184857364427998049905 171.42333735144430307 3.184857364427998049905 71.13619257170624621
4.009497869018190385759 187.86060392983563361 4.009497869018190385759 77.05569586179572639
5.009497869018204596614 204.91726390194011742 5.009497869018204596614 83.30812935397861452
6.009497869018204596614 219.74667481726740448 6.009497869018204596614 88.79696381653444348
7.009497869018204596614 232.92529238994049479 7.009497869018204596614 93.68552990193633434
8.009497869018204596614 244.81488923023263737 8.009497869018204596614 98.06643345771325926
9.009497869018204596614 255.66005300374541775 9.009497869018204596614 102.02119216354526543
10.009497869018190385759 265.63586337025463990 10.009497869018190385759 105.60358579643005328
11.009497869018190385759 274.87319775434804114 11.009497869018190385759 108.83559578418930869
12.009497869018190385759 283.47332034615976681 12.009497869018190385759 111.78792589015091608
13.009497869018190385759 291.51629961202417007 13.009497869018190385759 114.49179440745474778
14.009497869018190385759 299.06775785646823351 14.009497869018190385759 116.96996385460732881
15.009497869018190385759 306.18061394533560815 15.009497869018190385759 119.24963254853152250
16.009497869018204596614 312.89879017806828188 16.009497869018204596614 121.35438027892742241
17.009497869018204596614 319.26081875711764724 17.009497869018204596614 123.30594223585150360
18.009497869018204596614 325.30008559416819480 18.009497869018204596614 125.12756755556917199
19.009497869018204596614 331.04495109036281519 19.009497869018204596614 126.82410807679558218
20.009497869018204596614 336.52105991693406395 20.009497869018204596614 128.40475462369198567
21.009497869018204596614 341.74935559224934423 21.009497869018204596614 129.87690297014736984
22.009497869018190385759 346.74773009839424276 22.009497869018190385759 131.25367980909015841
23.009497869018190385759 351.53260027686252442 23.009497869018190385759 132.53944990117199154
24.009497869018190385759 356.11912772175759301 24.009497869018190385759 133.74878755386029638
25.009497869018190385759 360.52156485585697965 25.009497869018190385759 134.88792146973062813
26.009497869018190385759 364.75245019310500538 26.009497869018190385759 135.96316801294622678
27.009497869018204596614 368.82322388825355119 27.009497869018204596614 136.98266879510322269
28.009497869018190385759 372.74380133620184097 28.009497869018190385759 137.94842854945596855
29.009497869018190385759 376.52306810672791926 29.009497869018190385759 138.85566598579740116
30.009497869018190385759 380.16927621306251694 30.009497869018190385759 139.72418791249302217
31.009497869018190385759 383.68998517447647600 31.009497869018190385759 140.54681232910078847
32.009497869018190385759 387.09215724558907823 32.009497869018190385759 141.32689419114475982
33.009497869018218807469 390.38226684690897628 33.009497869018218807469 142.06222382072419919
34.009497869018190385759 393.56648939366726836 34.009497869018190385759 142.77037680220664129
35.009497869018218807469 396.65033960478922381 35.009497869018218807469 143.44230368231941952
36.009497869018190385759 399.63891700691823416 36.009497869018190385759 144.08971185207232679
37.009497869018218807469 402.53694591285238857 37.009497869018218807469 144.71067801954254151
38.009497869018190385759 405.34892316103702115 38.009497869018190385759 145.30785330133113575
39.009497869018190385759 408.07896421698336553 39.009497869018190385759 145.88392667621619125
40.009497869018190385759 410.73092243403061730 40.009497869018190385759 146.43582646388597368
41.009497869018190385759 413.30849586911625693 41.009497869018190385759 146.97197910432814183
42.009497869018190385759 415.81507211275948066 42.009497869018190385759 147.47931483802889829
43.009497869018190385759 418.25384793152034035 43.009497869018190385759 147.97856415930772300
44.009497869018218807469 420.62790223662602784 44.009497869018218807469 148.44150023010593031
46.009497869018218807469 425.19327989815616320 46.009497869018218807469 149.32548174407642705
48.009497869018218807469 429.53085326600728422 48.009497869018218807469 150.13718218590008746
50.009497869018218807469 433.65625938310546417 50.009497869018218807469 150.83776378954485153
52.009497869018190385759 437.58509091264954805 52.009497869018190385759 151.45960569553827213
54.009497869018190385759 441.33218263769811074 54.009497869018190385759 152.01560438826666655
56.009497869018190385759 444.90929001513183039 56.009497869018190385759 152.50799341988505375
58.009497869018190385759 448.32654918031198577 58.009497869018190385759 152.93945053964310432
60.009497869018190385759 451.59404874092899718 60.009497869018190385759 153.39089103845705608
62.009497869018190385759 454.72027087032597592 62.009497869018190385759 153.82190668386209609
64.009497869018190385759 457.71410579820820885 64.009497869018190385759 154.23238368730415004
66.009497869018218807469 460.58753979489392805 66.009497869018218807469 154.66594272306568314
68.009497869018218807469 463.35094931557409836 68.009497869018218807469 155.10078013721096113
70.009497869018218807469 466.01050020278182728 70.009497869018218807469 155.45957465635689232
72.009497869018218807469 468.57263954943522322 72.009497869018218807469 155.70450014517618342
74.009497869018190385759 471.04334569791615195 74.009497869018190385759 155.92646769047959765
76.009497869018190385759 473.42743457091296477 76.009497869018190385759 156.11993460492868735
78.009497869018190385759 475.73108835077249523 78.009497869018190385759 156.35769257884606986
80.009497869018190385759 477.95813301997719691 80.009497869018190385759 156.47610492456254860
82.009497869018190385759 480.10850720482432052 82.009497869018190385759 156.63623490985276021
84.009497869018190385759 482.18318515770215527 84.009497869018190385759 156.76173289229242869
86.009497869018190385759 484.18388409140771955 86.009497869018190385759 156.72875891390251013
88.009497869018218807469 486.11562812828611868 88.009497869018218807469 156.74472512912873867
91.009497869018190385759 488.88851455827716563 91.009497869018190385759 156.68454630011942186
94.009497869018218807469 491.52154215764483070 94.009497869018218807469 156.73686931093206454
97.009497869018190385759 494.03368578262677602 97.009497869018190385759 156.97678913482900498
99.504748934509109403734 496.04465268599324190 99.504748934509109403734 157.09479253174347946
nan nan nan nan

