Time Pressure difference Time.1 Pressure.1 difference.1
(hr) (psi) (hr) (psi)
0.000200000000006639311 0.42781099374173254 0.000200000000006639311 0.33783986827301427
0.000399999999999067768 0.77650331778902748 0.000399999999999067768 0.66827640820592960
0.000600000000005707079 1.08665125431419907 0.000600000000005707079 0.89503914389293693
0.000799999999998135536 1.37069448727374898 0.000799999999998135536 1.09883296349666115
0.001007140329434719206 1.64425213298212203 0.001007140329434719206 1.29138389118758479
0.001267914553963578328 1.96539259336111383 0.001267914553963578328 1.51246482844247887
0.001596209851982166583 2.34075885815627505 0.001596209851982166583 1.76381043675667204
0.002009509145224797066 2.77764400987284921 0.002009509145224797066 2.04835428758142468
0.002529822128138903281 3.28404142134084598 0.002529822128138903281 2.36927983317259327
0.003184857364431081805 3.86870939032976935 0.003184857364431081805 2.73009099796460308
0.004009497869020606231 4.54125374575221485 0.004009497869020606231 3.13469684194504206
0.005047658755842121536 5.31223133061450614 0.005047658755842121536 3.58750715685213839
0.006354625877790454069 6.19327643356111679 0.006354625877790454069 4.09353541489975559
0.008000000000009777068 7.19725140140218311 0.008000000000009777068 4.65850594273614593
0.010071403294347192059 8.33842203077142763 0.010071403294347192059 5.28896324861562128
0.012679145539706837553 9.63265796980367028 0.012679145539706837553 5.99238158792954767
0.015962098519750611558 11.09765777893340655 0.015962098519750611558 6.77726968834305232
0.020095091452091651263 12.75319644954834963 0.020095091452091651263 7.65326158247588584
0.025298221281360611101 14.62139072988475519 0.025298221281360611101 8.63119709095977861
0.031848573644296607199 16.72698150492146496 0.031848573644296607199 9.72324465213318057
0.040094978690177640601 19.09765258225847262 0.040094978690177640601 10.94316579961468250
0.050476587558421215363 21.76443046864775965 0.050476587558421215363 12.30672452929369420
0.063546258777961384112 24.76218542423479008 0.063546258777961384112 13.83189887933392903
0.079999999999998294697 28.13011987775235312 0.079999999999998294697 15.53815169038225896
0.100714032943542974863 31.91192163481369448 0.100714032943542974863 17.44408608398985550
0.126791455396897845276 36.15515689375489927 0.126791455396897845276 19.56358360697665688
0.159620985197506115583 40.90962539397997944 0.159620985197506115583 21.90176849611165011
0.200950914520760193227 46.22487099366433938 0.200950914520760193227 24.45276930564948970
0.252982212813478213320 52.14747649841716992 0.252982212813478213320 27.20105649294664119
0.318485736442795541734 58.71915161690296259 0.318485736442795541734 30.12422498613915067
0.400949786901833249431 65.97525970858092137 0.400949786901833249431 33.20199888066406402
0.504765875584155310207 73.94697456252296774 0.504765875584155310207 36.41924365591800239
0.635462587779443310865 82.66110017332691484 0.635462587779443310865 39.77007412158510391
0.799999999999997157829 92.14397468348710163 0.799999999999997157829 43.26379633668886271
1.007140329435344483500 102.42382654373157891 1.007140329435344483500 46.93232492419981128
1.267914553968893187630 113.53777282724641395 1.267914553968893187630 50.78866006774602226
1.596209851975103788391 125.51493599814178026 1.596209851975103788391 54.90875111737691583
2.009509145207672986544 138.42001533425172966 2.009509145207672986544 59.32621462212712515
2.529822128134711078928 152.28831785646477215 2.529822128134711078928 64.11694226120864926
3.184857364427998049905 167.20597594048257406 3.184857364427998049905 69.38609810901593278
4.009497869018190385759 183.23885245833463387 4.009497869018190385759 75.15996962496427614
5.009497869018204596614 199.87588403749296617 5.009497869018204596614 81.25858058550157637
6.009497869018204596614 214.34046139918703489 6.009497869018204596614 86.61237859962982100
7.009497869018204596614 227.19485827904469488 7.009497869018204596614 91.38067605485541378
8.009497869018204596614 238.79194694815743105 8.009497869018204596614 95.65380050723406669
9.009497869018204596614 249.37029772000641969 9.009497869018204596614 99.51126413636686152
10.009497869018190385759 259.10068294001678169 10.009497869018190385759 103.00552362777692395
11.009497869018190385759 268.11076018296756729 11.009497869018190385759 106.15801962162605321
12.009497869018190385759 276.49930233474918850 12.009497869018190385759 109.03771642541492781
13.009497869018190385759 284.34440801520156583 13.009497869018190385759 111.67506429902242360
14.009497869018190385759 291.71008508720632335 14.009497869018190385759 114.09226575688182947
15.009497869018190385759 298.64795050529119180 15.009497869018190385759 116.31584998221453020
16.009497869018204596614 305.20084599134298742 16.009497869018204596614 118.36881665412023779
17.009497869018204596614 311.40635577756484054 17.009497869018204596614 120.27236623294342621
18.009497869018204596614 317.29704441457215580 18.009497869018204596614 122.04917587909351084
19.009497869018204596614 322.90057458018020498 19.009497869018204596614 123.70397806622317205
20.009497869018204596614 328.24196003475191219 20.009497869018204596614 125.24573750559828511
21.009497869018204596614 333.34162904367008196 21.009497869018204596614 126.68166802008585137
22.009497869018190385759 338.21703341001119725 22.009497869018190385759 128.02457335937305061
23.009497869018190385759 342.88418608770672336 23.009497869018190385759 129.27871090215617755
24.009497869018190385759 347.35787566492706446 24.009497869018190385759 130.45829639841076641
25.009497869018190385759 351.65200392597336077 25.009497869018190385759 131.56940531200930877
26.009497869018190385759 355.77880091194322176 26.009497869018190385759 132.61819861175939650
27.009497869018204596614 359.74942532660332972 27.009497869018204596614 133.61261760911662577
28.009497869018190385759 363.57354862604927348 28.009497869018190385759 134.55461771683548022
29.009497869018190385759 367.25983777703999067 29.009497869018190385759 135.43953527413526672
30.009497869018190385759 370.81634177656167140 30.009497869018190385759 136.28668980176598780
31.009497869018190385759 374.25043416439530120 31.009497869018190385759 137.08907599104767883
32.009497869018190385759 377.56890590959051224 32.009497869018190385759 137.84996625880111765
33.009497869018218807469 380.77807214879402409 33.009497869018218807469 138.56720528967889550
34.009497869018190385759 383.88395636951042889 34.009497869018190385759 139.25793627306407529
35.009497869018218807469 386.89193761740654054 35.009497869018218807469 139.91333239056913840
36.009497869018190385759 389.80698996043832949 36.009497869018190385759 140.54481300766533991
37.009497869018218807469 392.63372148373741766 37.009497869018218807469 141.15050214930778338
38.009497869018190385759 395.37651839441235779 38.009497869018190385759 141.73298570925786066
39.009497869018190385759 398.03939490918492083 39.009497869018190385759 142.29488651196774640
40.009497869018190385759 400.62610958109502235 40.009497869018190385759 142.83320844668472205
41.009497869018190385759 403.14026948738683132 41.009497869018190385759 143.35617064590039149
42.009497869018190385759 405.58517887698968707 42.009497869018190385759 143.85102489266492398
43.009497869018190385759 407.96395586952922940 43.009497869018190385759 144.33799166913661338
44.009497869018218807469 410.27960362877848866 44.009497869018218807469 144.78953857466197519
46.009497869018218807469 414.73266375015521135 46.009497869018218807469 145.65177235239869447
48.009497869018218807469 418.96352402502014911 48.009497869018218807469 146.44350331880849581
50.009497869018218807469 422.98743679336189416 50.009497869018218807469 147.12684919559077912
52.009497869018190385759 426.81961110727320374 52.009497869018190385759 147.73339253081448419
54.009497869018190385759 430.47451678409339593 54.009497869018190385759 148.27571252922101053
56.009497869018190385759 433.96362007264667682 56.009497869018190385759 148.75598779305721564
58.009497869018190385759 437.29680773882819267 58.009497869018190385759 149.17683019351588314
60.009497869018190385759 440.48392019013914478 60.009497869018190385759 149.61716434141831655
62.009497869018190385759 443.53323092127311611 62.009497869018190385759 150.03757612868747628
64.009497869018190385759 446.45341144427254676 64.009497869018190385759 150.43795456619827178
66.009497869018218807469 449.25615314292110725 66.009497869018218807469 150.86084717126811938
68.009497869018218807469 451.95157719058892098 68.009497869018218807469 151.28498670402342441
70.009497869018218807469 454.54569773759038753 70.009497869018218807469 151.63495415106302744
72.009497869018218807469 457.04480326529562717 72.009497869018218807469 151.87385397662623632
74.009497869018190385759 459.45472503675182452 74.009497869018190385759 152.09036067059804509
76.009497869018190385759 461.78016049319148806 76.009497869018190385759 152.27906790697818451
78.009497869018190385759 464.02713972275057586 78.009497869018190385759 152.51097655302785938
80.009497869018190385759 466.19939458099077001 80.009497869018190385759 152.62647571513045364
82.009497869018190385759 468.29686520412678874 82.009497869018190385759 152.78266617835132024
84.009497869018190385759 470.32050187596416890 84.009497869018190385759 152.90507665615785982
86.009497869018190385759 472.27197956238609322 86.009497869018190385759 152.87291390444326566
88.009497869018218807469 474.15619878214880600 88.009497869018218807469 152.88848731842659845
91.009497869018190385759 476.86086658795778703 91.009497869018190385759 152.82978901053618870
94.009497869018218807469 479.42911637373748590 94.009497869018218807469 152.88082476927382913
97.009497869018190385759 481.87945617581829083 97.009497869018190385759 153.11484207941353475
99.504748934509109403734 483.84094921904397779 99.504748934509109403734 153.22994235368321370
nan nan nan nan

