Time Pressure difference Time.1 Pressure.1 difference.1
(hr) (psi) (hr) (psi)
0.000200000000006639311 0.03744933031270360 0.000200000000006639311 0.02957351962627276
0.000399999999999067768 0.06797284235838669 0.000399999999999067768 0.05849897341861995
0.000600000000005707079 0.09512229080791952 0.000600000000005707079 0.07834912387193364
0.000799999999998135536 0.11998660942010562 0.000799999999998135536 0.09618864220519734
0.001007140329434719206 0.14393305021653591 0.001007140329434719206 0.11304399047487759
0.001267914553963578328 0.17204475223784230 0.001267914553963578328 0.13239677281618137
0.001596209851982166583 0.20490322348845735 0.001596209851982166583 0.15439883645199354
0.002009509145224797066 0.24314687920251946 0.002009509145224797066 0.17930697769629680
0.002529822128138903281 0.28747543599274472 0.002529822128138903281 0.20739986670205193
0.003184857364431081805 0.33865556977664157 0.003184857364431081805 0.23898422682479464
0.004009497869020606231 0.39752814688335414 0.004009497869020606231 0.27440224580824546
0.005047658755842121536 0.46501728265023129 0.005047658755842121536 0.31403994399744239
0.006354625877790454069 0.54214140887256057 0.006354625877790454069 0.35833618617075019
0.008000000000009777068 0.63002645798624446 0.008000000000009777068 0.40779206323654688
0.010071403294347192059 0.72992121634349294 0.010071403294347192059 0.46298046241590757
0.012679145539706837553 0.84321486679290281 0.012679145539706837553 0.52455565829056872
0.015962098519750611558 0.97145668984728628 0.015962098519750611558 0.59326248013685468
0.020095091452091651263 1.11637773074681390 0.020095091452091651263 0.66994426315441724
0.025298221281360611101 1.27991402531632148 0.025298221281360611101 0.75554989371903114
0.031848573644296607199 1.46423131868006862 0.031848573644296607199 0.85114456153688089
0.040094978690177640601 1.67175297085051922 0.040094978690177640601 0.95793291124223501
0.050476587558421215363 1.90519495200329092 0.050476587558421215363 1.07729487719336503
0.063546258777961384112 2.16760970330838632 0.063546258777961384112 1.21080420457077409
0.079999999999998294697 2.46242889137594778 0.079999999999998294697 1.36016461384651821
0.100714032943542974863 2.79347681966470018 0.100714032943542974863 1.52700456818308816
0.126791455396897845276 3.16491729485391593 0.126791455396897845276 1.71253921782139873
0.159620985197506115583 3.58110964131278697 0.159620985197506115583 1.91721712354686558
0.200950914520760193227 4.04639078431186316 0.200950914520760193227 2.14052431607317484
0.252982212813478213320 4.56483844719082033 0.252982212813478213320 2.38110138439740604
0.318485736442795541734 5.14010377655382023 0.318485736442795541734 2.63698705368280395
0.400949786901833249431 5.77528237805085265 0.400949786901833249431 2.90640643020649803
0.504765875584155310207 6.47310311452352227 0.504765875584155310207 3.18803468204623419
0.635462587779443310865 7.23591232971259402 0.635462587779443310865 3.48135663675596563
0.799999999999997157829 8.06601558802038276 0.799999999999997157829 3.78718691968047905
1.007140329435344483500 8.96588392593495875 1.007140329435344483500 4.10831924410651173
1.267914553968893187630 9.93876646410613951 1.267914553968893187630 4.44589160830417729
1.596209851975103788391 10.98721249835365832 1.596209851975103788391 4.80655239751518959
2.009509145207672986544 12.11688561531283526 2.009509145207672986544 5.19324430668471848
2.529822128134711078928 13.33087648891902077 2.529822128134711078928 5.61261067271707770
3.184857364427998049905 14.63672489686716993 3.184857364427998049905 6.07385725286637967
4.009497869018190385759 16.04019628344472181 4.009497869018190385759 6.57928517488559716
5.009497869018204596614 17.49655364719894024 5.009497869018204596614 7.11313984353797224
6.009497869018204596614 18.76274068627898473 6.009497869018204596614 7.58179575278658824
7.009497869018204596614 19.88797720840302219 7.009497869018204596614 7.99919864575143880
8.009497869018204596614 20.90315262602565127 8.009497869018204596614 8.37325553401603884
9.009497869018204596614 21.82915069062370605 9.009497869018204596614 8.71092668256030400
10.009497869018190385759 22.68092031670770226 10.009497869018190385759 9.01680399709026581
11.009497869018190385759 23.46963627714404410 11.009497869018190385759 9.29276432889604820
12.009497869018190385759 24.20394486313086091 12.009497869018190385759 9.54484461290724084
13.009497869018190385759 24.89068260073722882 13.009497869018190385759 9.77571037632392148
14.009497869018190385759 25.53545255214417153 14.009497869018190385759 9.98730516269440294
15.009497869018190385759 26.14277311544833893 15.009497869018190385759 10.18195125957070779
16.009497869018204596614 26.71639453039945877 16.009497869018204596614 10.36166199197788274
17.009497869018204596614 27.25960681138920805 17.009497869018204596614 10.52829318656329782
18.009497869018204596614 27.77526056448034808 18.009497869018204596614 10.68382993600373432
19.009497869018204596614 28.26577730004544975 19.009497869018204596614 10.82868650728066306
20.009497869018204596614 28.73334664992635368 20.009497869018204596614 10.96364764514881074
21.009497869018204596614 29.17975684506904699 21.009497869018204596614 11.08934482668407284
22.009497869018190385759 29.60653556556477994 22.009497869018190385759 11.20689885490060966
23.009497869018190385759 30.01508453883485927 23.009497869018190385759 11.31668240834898143
24.009497869018190385759 30.40669831488233754 24.009497869018190385759 11.41993989244248553
25.009497869018190385759 30.78259381547838203 25.009497869018190385759 11.51720313562099207
26.009497869018190385759 31.14384162285556812 26.009497869018190385759 11.60901145117775179
27.009497869018204596614 31.49141853749198106 27.009497869018204596614 11.69605999842415400
28.009497869018190385759 31.82617117052953759 28.009497869018190385759 11.77851994850637318
29.009497869018190385759 32.14885820303465636 29.009497869018190385759 11.85598305812163034
30.009497869018190385759 32.46018422079693977 30.009497869018190385759 11.93014050193500530
31.009497869018190385759 32.76079468204647327 31.009497869018190385759 12.00037905559616114
32.009497869018190385759 33.05128404846563228 32.009497869018190385759 12.06698517695736861
33.009497869018218807469 33.33220512875199404 33.009497869018218807469 12.12977019598079487
34.009497869018190385759 33.60408520148533285 34.009497869018190385759 12.19023477761243157
35.009497869018218807469 33.86739513268098989 35.009497869018218807469 12.24760624783914054
36.009497869018190385759 34.12257033778318061 36.009497869018190385759 12.30288422470661125
37.009497869018218807469 34.37001419516395373 37.009497869018218807469 12.35590449081477615
38.009497869018190385759 34.61011066063846897 38.009497869018190385759 12.40689340778370209
39.009497869018190385759 34.84321112706514612 39.009497869018190385759 12.45608057003871849
40.009497869018190385759 35.06964460724719146 40.009497869018190385759 12.50320370675726522
41.009497869018190385759 35.28972685423713074 41.009497869018190385759 12.54898229689632494
42.009497869018190385759 35.50374711237743952 42.009497869018190385759 12.59230039861607153
43.009497869018190385759 35.71197833279262568 43.009497869018190385759 12.63492805412323428
44.009497869018218807469 35.91468340370612822 44.009497869018218807469 12.67445515712916304
46.009497869018218807469 36.30449133717976196 46.009497869018218807469 12.74993259464617701
48.009497869018218807469 36.67484854224954205 48.009497869018218807469 12.81923842108264289
50.009497869018218807469 37.02709016440407908 50.009497869018218807469 12.87905653195824485
52.009497869018190385759 37.36254755983549103 52.009497869018190385759 12.93215157168850915
54.009497869018190385759 37.68248737427523309 54.009497869018190385759 12.97962468727602392
56.009497869018190385759 37.98791332980141533 56.009497869018190385759 13.02166658722607551
58.009497869018190385759 38.27969088514965534 58.009497869018190385759 13.05850590714753245
60.009497869018190385759 38.55868144097657080 60.009497869018190385759 13.09705147795798474
62.009497869018190385759 38.82560923494823868 62.009497869018190385759 13.13385310325305788
64.009497869018190385759 39.08123334601199161 64.009497869018190385759 13.16890106736750354
66.009497869018218807469 39.32657720390555767 66.009497869018218807469 13.20591985623860332
68.009497869018218807469 39.56252678671327772 68.009497869018218807469 13.24304779753320993
70.009497869018218807469 39.78960855566444366 70.009497869018218807469 13.27368293013756251
72.009497869018218807469 40.00837298613122783 72.009497869018218807469 13.29459552614384066
74.009497869018190385759 40.21933052992338276 74.009497869018190385759 13.31354789253009585
76.009497869018190385759 40.42289238738619872 76.009497869018190385759 13.33006677523993133
78.009497869018190385759 40.61958641489952981 78.009497869018190385759 13.35036738372202336
80.009497869018190385759 40.80973928824696628 80.009497869018190385759 13.36047784449955067
82.009497869018190385759 40.99334576712682576 82.009497869018190385759 13.37415030344618216
84.009497869018190385759 41.17048903662000470 84.009497869018190385759 13.38486576070224743
86.009497869018190385759 41.34131571836910979 86.009497869018190385759 13.38205032694681407
88.009497869018218807469 41.50625478953528358 88.009497869018218807469 13.38341357831924228
91.009497869018190385759 41.74301354404971676 91.009497869018190385759 13.37827529914189029
94.009497869018218807469 41.96783066179600752 94.009497869018218807469 13.38274282104919166
97.009497869018190385759 42.18232628245294080 97.009497869018190385759 13.40322801585370627
99.504748934509109403734 42.35402967941186603 99.504748934509109403734 13.41330355915031269
nan nan nan nan

