Time Pressure difference Time.1 Pressure.1 difference.1
(hr) (psi) (hr) (psi)
0.000200000000006639311 0.42844572815381227 0.000200000000006639311 0.33834111436837483
0.000399999999999067768 0.77765539986289856 0.000399999999999067768 0.66926791622997406
0.000600000000005707079 1.08826349653128251 0.000600000000005707079 0.89636709514500357
0.000799999999998135536 1.37272815861985253 0.000799999999998135536 1.10046327946624056
0.001007140329434719206 1.64669167620613122 0.001007140329434719206 1.29329989102614196
0.001267914553963578328 1.96830860611090741 0.001267914553963578328 1.51470884154105812
0.001596209851982166583 2.34423179414760519 0.001596209851982166583 1.76642736618806162
0.002009509145224797066 2.78176514341865433 0.002009509145224797066 2.05139338889831091
0.002529822128138903281 3.28891388635767212 0.002529822128138903281 2.37279508515059412
0.003184857364431081805 3.87444931524123781 0.003184857364431081805 2.73414157808027758
0.004009497869020606231 4.54799151095362753 0.004009497869020606231 3.13934772746721524
0.005047658755842121536 5.32011297947298534 0.005047658755842121536 3.59282986776734914
0.006354625877790454069 6.20246527099963441 0.006354625877790454069 4.09960890958061608
0.008000000000009777068 7.20792981594432280 0.008000000000009777068 4.66541767262151019
0.010071403294347192059 8.35079357681114764 0.010071403294347192059 5.29681037509724728
0.012679145539706837553 9.64694974720693743 0.012679145539706837553 6.00127236179887902
0.015962098519750611558 11.11412314655793843 0.015962098519750611558 6.78732498461655887
0.020095091452091651263 12.77211810600168285 0.020095091452091651263 7.66461656998697727
0.025298221281360611101 14.64308418794096589 0.025298221281360611101 8.64400302136179732
0.031848573644296607199 16.75179898489909291 0.031848573644296607199 9.73767083114228171
0.040094978690177640601 19.12598737837458529 0.040094978690177640601 10.95940195065268696
0.050476587558421215363 21.79672190851222524 0.050476587558421215363 12.32498376450036126
0.063546258777961384112 24.79892457174848985 0.063546258777961384112 13.85242098449614545
0.079999999999998294697 28.17185596065703024 0.079999999999998294697 15.56120532790508015
0.100714032943542974863 31.95926869955377825 0.100714032943542974863 17.46996751734888775
0.126791455396897845276 36.20879955976937481 0.126791455396897845276 19.59260969541430697
0.159620985197506115583 40.97032216756154810 0.159620985197506115583 21.93426370159549776
0.200950914520760193227 46.29345388831368524 0.200950914520760193227 24.48904937880326926
0.252982212813478213320 52.22484664158989887 0.252982212813478213320 27.24141414352964929
0.318485736442795541734 58.80627201989540254 0.318485736442795541734 30.16891968196428309
0.400949786901833249431 66.07314585058179546 0.400949786901833249431 33.25126000659976455
0.504765875584155310207 74.05668817463353548 0.504765875584155310207 36.47327814205437591
0.635462587779443310865 82.78374275518646641 0.635462587779443310865 39.82908016627587955
0.799999999999997157829 92.28068681209761337 0.799999999999997157829 43.32798594549700510
1.007140329435344483500 102.57579067806946682 1.007140329435344483500 47.00195745376093726
1.267914553968893187630 113.70622649612955968 1.267914553968893187630 50.86401416280202881
1.596209851975103788391 125.70115993879186078 1.596209851975103788391 54.99021810716530467
2.009509145207672986544 138.62538627688414294 2.009509145207672986544 59.41423571207094056
2.529822128134711078928 152.51426491559897158 2.529822128134711078928 64.21207125566148477
3.184857364427998049905 167.45405602348031948 3.184857364427998049905 69.48904484211536214
4.009497869018190385759 183.51072019195231633 4.009497869018190385759 75.27148293301317494
5.009497869018204596614 200.17243579422515154 5.009497869018204596614 81.37914227776492737
6.009497869018204596614 214.65847395319178759 6.009497869018204596614 86.74088361238892730
7.009497869018204596614 227.53194263850915036 7.009497869018204596614 91.51625569291900320
8.009497869018204596614 239.14623767063241644 8.009497869018204596614 95.79572009255636544
9.009497869018204596614 249.74028332493224980 9.009497869018204596614 99.65890696149500627
10.009497869018190385759 259.48510531826610759 10.009497869018190385759 103.15835081416828700
11.009497869018190385759 268.50855062834284581 11.009497869018190385759 106.31552410177683043
12.009497869018190385759 276.90953868836152196 12.009497869018190385759 109.19949345275233554
13.009497869018190385759 284.76628399148523840 13.009497869018190385759 111.84075430540080731
14.009497869018190385759 292.14288936775113825 14.009497869018190385759 114.26154211557155804
15.009497869018190385759 299.09104835470554917 15.009497869018190385759 116.48842542729200034
16.009497869018204596614 305.65366623762093923 16.009497869018204596614 118.54443804381476468
17.009497869018204596614 311.86838301165619214 17.009497869018204596614 120.45081188017331897
18.009497869018204596614 317.76781154278370423 18.009497869018204596614 122.23025774241560271
19.009497869018204596614 323.37965555136742068 19.009497869018204596614 123.88751512566859958
20.009497869018204596614 328.72896591017433821 20.009497869018204596614 125.43156204195673808
21.009497869018204596614 333.83620119358653255 21.009497869018204596614 126.86962301714829948
22.009497869018190385759 338.71883909756314779 22.009497869018190385759 128.21452079759168896
23.009497869018190385759 343.39291633412761939 23.009497869018190385759 129.47051907856885578
24.009497869018190385759 347.87324343297586893 24.009497869018190385759 130.65185470167250514
25.009497869018190385759 352.17374280420182231 25.009497869018190385759 131.76461214481645356
26.009497869018190385759 356.30666263436455665 26.009497869018190385759 132.81496151771156633
27.009497869018204596614 360.28317818317100318 27.009497869018204596614 133.81085591417465253
28.009497869018190385759 364.11297525605823466 28.009497869018190385759 134.75425364816612728
29.009497869018190385759 367.80473367878636282 29.009497869018190385759 135.64048413952713190
30.009497869018190385759 371.36651439047346912 30.009497869018190385759 136.48889557298520003
31.009497869018190385759 374.80570187087067779 31.009497869018190385759 137.29247224622727686
32.009497869018190385759 378.12909716464923804 32.009497869018190385759 138.05449143129192180
33.009497869018218807469 381.34302477809495713 33.009497869018218807469 138.77279461503451330
34.009497869018190385759 384.45351713563735530 34.009497869018190385759 139.46455042183714568
35.009497869018218807469 387.46596126372315894 35.009497869018218807469 140.12091893714270441
36.009497869018190385759 390.38533861023125837 36.009497869018190385759 140.75333646910104335
37.009497869018218807469 393.21626409721477557 37.009497869018218807469 141.35992425932158767
38.009497869018190385759 395.96313043950794963 38.009497869018190385759 141.94327203820336081
39.009497869018190385759 398.62995780964365622 39.009497869018190385759 142.50600652162938786
40.009497869018190385759 401.22051033715001722 40.009497869018190385759 143.04512715357887487
41.009497869018190385759 403.73840045101803753 41.009497869018190385759 143.56886526110201885
42.009497869018190385759 406.18693730262322106 42.009497869018190385759 144.06445371298045188
43.009497869018190385759 408.56924363788169785 43.009497869018190385759 144.55214299208785178
44.009497869018218807469 410.88832707629887864 44.009497869018218807469 145.00435984851159787
46.009497869018218807469 415.34799411180227935 46.009497869018218807469 145.86787290485031576
48.009497869018218807469 419.58513162743116709 48.009497869018218807469 146.66077854628449018
50.009497869018218807469 423.61501459275859816 50.009497869018218807469 147.34513828935277502
52.009497869018190385759 427.45287462523657496 52.009497869018190385759 147.95258154050412713
54.009497869018190385759 431.11320301077603290 54.009497869018190385759 148.49570616798843048
56.009497869018190385759 434.60748301043992115 56.009497869018190385759 148.97669400640000958
58.009497869018190385759 437.94561605891550471 58.009497869018190385759 149.39816080211159033
60.009497869018190385759 441.13745716371499839 60.009497869018190385759 149.83914826477354154
62.009497869018190385759 444.19129209474687059 62.009497869018190385759 150.26018380840361033
64.009497869018190385759 447.11580522979818397 64.009497869018190385759 150.66115627920450493
66.009497869018218807469 449.92270529891953856 66.009497869018218807469 151.08467632137384840
68.009497869018218807469 452.62212849205866405 68.009497869018218807469 151.50944514126976514
70.009497869018218807469 455.22009788260163532 70.009497869018218807469 151.85993182784500277
72.009497869018218807469 457.72291128200976118 72.009497869018218807469 152.09918610418799290
74.009497869018190385759 460.13640860505557839 74.009497869018190385759 152.31601402470872131
76.009497869018190385759 462.46529426246922867 76.009497869018190385759 152.50500124215173514
78.009497869018190385759 464.71560728910480975 78.009497869018190385759 152.73725396631127182
80.009497869018190385759 466.89108507740172627 80.009497869018190385759 152.85292449215586430
82.009497869018190385759 468.99166767475605866 82.009497869018190385759 153.00934669196902860
84.009497869018190385759 471.01830677488993615 84.009497869018190385759 153.13193878769519074
86.009497869018190385759 472.97267982879918691 86.009497869018190385759 153.09972831676438432
88.009497869018218807469 474.85969462603929969 88.009497869018218807469 153.11532483670319493
91.009497869018190385759 477.56837529209423110 91.009497869018190385759 153.05653943933518235
94.009497869018218807469 480.14043553749672810 94.009497869018218807469 153.10765091878312205
97.009497869018190385759 482.59441085857179132 97.009497869018190385759 153.34201543561442804
99.504748934509109403734 484.55881412886452608 99.504748934509109403734 153.45728648180443088
nan nan nan nan

