Time Pressure difference Time.1 Pressure.1 difference.1
(hr) (psi) (hr) (psi)
0.000200000000006639311 0.23040859158493904 0.000200000000006639311 0.18195233261588156
0.000399999999999067768 0.41820579281515874 0.000399999999999067768 0.35991741272811939
0.000600000000005707079 0.58524392480126752 0.000600000000005707079 0.48204630450020192
0.000799999999998135536 0.73822269863556511 0.000799999999998135536 0.59180469695740057
0.001007140329434719206 0.88555419031529725 0.001007140329434719206 0.69550794139628080
0.001267914553963578328 1.05851262817519909 0.001267914553963578328 0.81457675478430236
0.001596209851982166583 1.26067576485271204 0.001596209851982166583 0.94994538359446867
0.002009509145224797066 1.49597147712736533 0.002009509145224797066 1.10319377802975849
0.002529822128138903281 1.76870480110790362 0.002529822128138903281 1.27603646801431947
0.003184857364431081805 2.08359274286306562 0.003184857364431081805 1.47036058198983821
0.004009497869020606231 2.44580876811283998 0.004009497869020606231 1.68827144454903588
0.005047658755842121536 2.86103853562769439 0.005047658755842121536 1.93214406222155222
0.006354625877790454069 3.33554799018202575 0.006354625877790454069 2.20467856915224258
0.008000000000009777068 3.87626447879672487 0.008000000000009777068 2.50895794838756769
0.010071403294347192059 4.49087121241843956 0.010071403294347192059 2.84850691283007551
0.012679145539706837553 5.18791519738684226 0.012679145539706837553 3.22735091456739775
0.015962098519750611558 5.97692844770449039 0.015962098519750611558 3.65007254728268249
0.020095091452091651263 6.86856129256090497 0.020095091452091651263 4.12186046652632943
0.025298221281360611101 7.87472527440380787 0.025298221281360611101 4.64855273593234397
0.031848573644296607199 9.00874523187906640 0.031848573644296607199 5.23670298030318193
0.040094978690177640601 10.28553099014810890 0.040094978690177640601 5.89372282679544490
0.050476587558421215363 11.72179267079990694 0.050476587558421215363 6.62810238002019414
0.063546258777961384112 13.33631054747363365 0.063546258777961384112 7.44952417388459320
0.079999999999998294697 15.15019809439777987 0.079999999999998294697 8.36847042078451153
0.100714032943542974863 17.18698450064891858 0.100714032943542974863 9.39496030932984638
0.126791455396897845276 19.47228776325375321 0.126791455396897845276 10.53647010286725028
0.159620985197506115583 22.03292881011087800 0.159620985197506115583 11.79575959063580193
0.200950914520760193227 24.89559075771535746 0.200950914520760193227 13.16966655482309179
0.252982212813478213320 28.08536197169945581 0.252982212813478213320 14.64982716163149945
0.318485736442795541734 31.62470628625486313 0.318485736442795541734 16.22417458452301275
0.400949786901833249431 35.53266954631287433 0.400949786901833249431 17.88178871466032049
0.504765875584155310207 39.82604119613624505 0.504765875584155310207 19.61451846750479433
0.635462587779443310865 44.51925721501138611 0.635462587779443310865 21.41919422275280738
0.799999999999997157829 49.62650268561693423 0.799999999999997157829 23.30082799735616916
1.007140329435344483500 55.16298076465068334 1.007140329435344483500 25.27660823068921658
1.267914553968893187630 61.14868180458523028 1.267914553968893187630 27.35353650532908887
1.596209851975103788391 67.59929045597250763 1.596209851975103788391 29.57251729318667444
2.009509145207672986544 74.54965217556880930 2.009509145207672986544 31.95165564960258919
2.529822128134711078928 82.01878246572211140 2.529822128134711078928 34.53182498637794851
3.184857364427998049905 90.05307012818275325 3.184857364427998049905 37.36966411509315122
4.009497869018190385759 98.68798730322768620 4.009497869018190385759 40.47933082175375574
5.009497869018204596614 107.64828769378330264 5.009497869018204596614 43.76389429159802802
6.009497869018204596614 115.43855710371646239 6.009497869018204596614 46.64731963155137606
7.009497869018204596614 122.36162248559824661 7.009497869018204596614 49.21540861708088244
8.009497869018204596614 128.60753225842901770 8.009497869018204596614 51.51680947199697869
9.009497869018204596614 134.30477458807465041 9.009497869018204596614 53.59434552151509479
10.009497869018190385759 139.54532330448975586 10.009497869018190385759 55.47626866006383750
11.009497869018190385759 144.39793167124219053 11.009497869018190385759 57.17412629473331975
12.009497869018190385759 148.91579636129665687 12.009497869018190385759 58.72506092348014306
13.009497869018190385759 153.14097939097649714 13.009497869018190385759 60.14547231534887572
14.009497869018190385759 157.10795383776840595 14.009497869018190385759 61.44731820437404224
15.009497869018190385759 160.84451933741945595 15.009497869018190385759 62.64488656312147441
16.009497869018204596614 164.37374939889838288 16.009497869018204596614 63.75056445911815928
17.009497869018204596614 167.71588597515730612 17.009497869018204596614 64.77576994444875425
18.009497869018204596614 170.88846754078591061 18.009497869018204596614 65.73271638592127886
19.009497869018204596614 173.90639254095756883 19.009497869018204596614 66.62395257869289367
20.009497869018204596614 176.78313277836042516 20.009497869018204596614 67.45430669811895541
21.009497869018204596614 179.52969041966210284 21.009497869018204596614 68.22766393366642035
22.009497869018190385759 182.15546458135617058 22.009497869018190385759 68.95092007337153461
23.009497869018190385759 184.66907945079753972 23.009497869018190385759 69.62636803780813466
24.009497869018190385759 187.07849980173369886 24.009497869018190385759 70.26166408401054753
25.009497869018190385759 189.39121279692628264 25.009497869018190385759 70.86008030899017740
26.009497869018190385759 191.61380523892492533 26.009497869018190385759 71.42493486063600017
27.009497869018204596614 193.75228693406083380 27.009497869018204596614 71.96050473606725006
28.009497869018190385759 195.81186669325799699 28.009497869018190385759 72.46784307301378192
29.009497869018190385759 197.79721233392510271 29.009497869018190385759 72.94443813725682446
30.009497869018190385759 199.71265884998794604 30.009497869018190385759 73.40069495258316579
31.009497869018190385759 201.56217745055710111 31.009497869018190385759 73.83284063019333132
32.009497869018190385759 203.34942558632246801 32.009497869018190385759 74.24263761416143836
33.009497869018218807469 205.07780443621993527 33.009497869018218807469 74.62892510408521218
34.009497869018190385759 206.75055810405385159 34.009497869018190385759 75.00093600463242183
35.009497869018218807469 208.37058361293557596 35.009497869018218807469 75.35391640619674547
36.009497869018190385759 209.94055987483548620 36.009497869018190385759 75.69401650116101621
37.009497869018218807469 211.46296869227992943 37.009497869018218807469 76.02022593501294523
38.009497869018190385759 212.94017236969091300 38.009497869018190385759 76.33393740721157883
39.009497869018190385759 214.37433286651946673 39.009497869018190385759 76.63656350718737542
40.009497869018190385759 215.76747444797845787 40.009497869018190385759 76.92649060259131488
41.009497869018190385759 217.12153979810301507 41.009497869018190385759 77.20814531819263493
42.009497869018190385759 218.43830850496627249 42.009497869018190385759 77.47466177453615899
43.009497869018190385759 219.71945991192748693 43.009497869018190385759 77.73693023130059032
44.009497869018218807469 220.96661144992074810 44.009497869018218807469 77.98012240742180268
46.009497869018218807469 223.36492127790259588 46.009497869018218807469 78.44450053994172833
48.009497869018218807469 225.64355967519631463 48.009497869018218807469 78.87090757377966099
50.009497869018218807469 227.81074118099459724 50.009497869018218807469 79.23894103560749613
52.009497869018190385759 229.87465702068277551 52.009497869018190385759 79.56561051733777390
54.009497869018190385759 231.84310028579511709 54.009497869018190385759 79.85769087256265664
56.009497869018190385759 233.72224641894769093 56.009497869018190385759 80.11635544344179038
58.009497869018190385759 235.51742019168344200 58.009497869018190385759 80.34301092024666957
60.009497869018190385759 237.23392140804233463 60.009497869018190385759 80.58016417794489428
62.009497869018190385759 238.87620597095275343 62.009497869018190385759 80.80658773696372066
64.009497869018190385759 240.44894414580255670 64.009497869018190385759 81.02222182126108407
66.009497869018218807469 241.95843262741897206 66.009497869018218807469 81.24998148838326983
68.009497869018218807469 243.41012243350709809 68.009497869018218807469 81.47841272041618765
70.009497869018218807469 244.80725263908797729 70.009497869018218807469 81.66689667186331292
72.009497869018218807469 246.15321006721416097 72.009497869018218807469 81.79556230491887447
74.009497869018190385759 247.45113529427433718 74.009497869018190385759 81.91216754217668949
76.009497869018190385759 248.70355824781680099 76.009497869018190385759 82.01380066800160762
78.009497869018190385759 249.91372658658525552 78.009497869018190385759 82.13870102188295164
80.009497869018190385759 251.08365019718050348 80.009497869018190385759 82.20090606022604618
82.009497869018190385759 252.21329683842438385 82.009497869018190385759 82.28502644323668846
84.009497869018190385759 253.30317831005189078 84.009497869018190385759 82.35095374804940604
86.009497869018190385759 254.35419670793197611 86.009497869018190385759 82.33363167257107307
88.009497869018218807469 255.36899133222556202 88.009497869018218807469 82.34201913440482201
91.009497869018190385759 256.82565960152624029 91.009497869018190385759 82.31040565404248355
94.009497869018218807469 258.20885644460935282 94.009497869018218807469 82.33789227187892834
97.009497869018190385759 259.52854983949862344 97.009497869018190385759 82.46392830093041937
99.504748934509109403734 260.58496226485607394 99.504748934509109403734 82.52591850799259987
nan nan nan nan

