Time Pressure difference Time.1 Pressure.1 difference.1
(hr) (psi) (hr) (psi)
0.000200000000006639311 0.58205145587710494 0.000200000000006639311 0.45964266944562920
0.000399999999999067768 1.05645926173967108 0.000399999999999067768 0.90921285804872032
0.000600000000005707079 1.47842611306546101 0.000600000000005707079 1.21773129814513803
0.000799999999998135536 1.86487662437689594 0.000799999999998135536 1.49499974410450776
0.001007140329434719206 2.23706113641632953 0.001007140329434719206 1.75697185195699590
0.001267914553963578328 2.67398369156104021 0.001267914553963578328 2.05776001139725961
0.001596209851982166583 3.18468230404941322 0.001596209851982166583 2.39972428858437414
0.002009509145224797066 3.77907946150356500 0.002009509145224797066 2.78685590758481672
0.002529822128138903281 4.46805042042960743 0.002529822128138903281 3.22348606382680725
0.003184857364431081805 5.26351114381661489 0.003184857364431081805 3.71438196607350291
0.004009497869020606231 6.17853068969552144 0.004009497869020606231 4.26486202383323931
0.005047658755842121536 7.22747200322478189 0.005047658755842121536 4.88092590924838365
0.006354625877790454069 8.42616393112098550 0.006354625877790454069 5.56939462234877780
0.008000000000009777068 9.79210613514213790 0.008000000000009777068 6.33805630487988925
0.010071403294347192059 11.34470771842343950 0.010071403294347192059 7.19581498365063066
0.012679145539706837553 13.10555987879816620 0.012679145539706837553 8.15283963817714330
0.015962098519750611558 15.09874211169426417 0.015962098519750611558 9.22070668280501415
0.020095091452091651263 17.35115896770895461 0.020095091452091651263 10.41252354767119748
0.025298221281360611101 19.89290103754350270 0.025298221281360611101 11.74303817865002664
0.031848573644296607199 22.75762913948513599 0.031848573644296607199 13.22880615134440241
0.040094978690177640601 25.98300803847332574 0.040094978690177640601 14.88855050184965023
0.050476587558421215363 29.61125035571216202 0.050476587558421215363 16.74371868451382284
0.063546258777961384112 33.68979827006424443 0.063546258777961384112 18.81877043375254033
0.079999999999998294697 38.27198802358888230 0.079999999999998294697 21.14018560842808725
0.100714032943542974863 43.41725836665305849 0.100714032943542974863 23.73327439023545793
0.126791455396897845276 49.19032473527187932 0.126791455396897845276 26.61692309732580952
0.159620985197506115583 55.65894137430213107 0.159620985197506115583 29.79810342868603001
0.200950914520760193227 62.89051439345725925 0.200950914520760193227 33.26882708201866734
0.252982212813478213320 70.94842128938954318 0.252982212813478213320 37.00796558461731678
0.318485736442795541734 79.88940954406530182 0.318485736442795541734 40.98503607164629159
0.400949786901833249431 89.76159221479038308 0.400949786901833249431 45.17245248303997585
0.504765875584155310207 100.60738230539102744 0.504765875584155310207 49.54962378705756976
0.635462587779443310865 112.46324756519405241 0.635462587779443310865 54.10854298144441543
0.799999999999997157829 125.36502193584225040 0.799999999999997157829 58.86187127706778455
1.007140329435344483500 139.35111118783657957 1.007140329435344483500 63.85302960755375068
1.267914553968893187630 154.47201436585305601 1.267914553968893187630 69.09970516635475235
1.596209851975103788391 170.76735357610684218 1.596209851975103788391 74.70522963595641386
2.009509145207672986544 188.32515439393000634 2.009509145207672986544 80.71533947847265722
2.529822128134711078928 207.19345322608037918 2.529822128134711078928 87.23328791324678377
3.184857364427998049905 227.48943610893550726 3.184857364427998049905 94.40215425217746770
4.009497869018190385759 249.30271172743744046 4.009497869018190385759 102.25770348084903105
5.009497869018204596614 271.93796092341398207 5.009497869018204596614 110.55507180549695079
6.009497869018204596614 291.61751202233608637 6.009497869018204596614 117.83909670008983994
7.009497869018204596614 309.10635762890797196 7.009497869018204596614 124.32652810430626289
8.009497869018204596614 324.88459250958510438 8.009497869018204596614 130.14025974055434176
9.009497869018204596614 339.27679971698205463 9.009497869018204596614 135.38847064250506946
10.009497869018190385759 352.51532085459257360 10.009497869018190385759 140.14252992087750727
11.009497869018190385759 364.77383840917099178 11.009497869018190385759 144.43160829826570080
12.009497869018190385759 376.18673626255929321 12.009497869018190385759 148.34953406840577372
13.009497869018190385759 386.86027025213621755 13.009497869018190385759 151.93773584896672446
14.009497869018190385759 396.88152525959668537 14.009497869018190385759 155.22642091848760515
15.009497869018190385759 406.32072791298520542 15.009497869018190385759 158.25168313603964521
16.009497869018204596614 415.23616583688652781 16.009497869018204596614 161.04481434989352806
17.009497869018204596614 423.67897366176111973 17.009497869018204596614 163.63465850980583127
18.009497869018204596614 431.69345656997427341 18.009497869018204596614 166.05206866636314089
19.009497869018204596614 439.31725057867242867 19.009497869018204596614 168.30348351146389518
20.009497869018204596614 446.58438776241462165 20.009497869018204596614 170.40109984070269888
21.009497869018204596614 453.52266147336126778 21.009497869018204596614 172.35473230625925112
22.009497869018190385759 460.15581548513392818 22.009497869018190385759 174.18180084650606432
23.009497869018190385759 466.50563596799264587 23.009497869018190385759 175.88809777044096450
24.009497869018190385759 472.59224330079837273 24.009497869018190385759 177.49296409101287963
25.009497869018190385759 478.43455133548604863 25.009497869018190385759 179.00466568414324797
26.009497869018190385759 484.04919946031446898 26.009497869018190385759 180.43158475813555697
27.009497869018204596614 489.45136947254491133 27.009497869018204596614 181.78452573821948590
28.009497869018190385759 494.65421971823025160 28.009497869018190385759 183.06614903017529628
29.009497869018190385759 499.66954190140307901 29.009497869018190385759 184.27010956436501488
30.009497869018190385759 504.50828695713209981 30.009497869018190385759 185.42269220804067231
31.009497869018190385759 509.18048683790868836 31.009497869018190385759 186.51436599968948826
32.009497869018190385759 513.69538088886417881 32.009497869018190385759 187.54958317406618562
33.009497869018218807469 518.06156106890819046 33.009497869018218807469 188.52541135109132142
34.009497869018190385759 522.28722253833984723 34.009497869018190385759 189.46517442492540795
35.009497869018218807469 526.37968367234691414 35.009497869018218807469 190.35686320794053472
36.009497869018190385759 530.34571186012158250 36.009497869018190385759 191.21601413654173029
37.009497869018218807469 534.19157655873470958 37.009497869018218807469 192.04007488266356063
38.009497869018190385759 537.92324535263526286 38.009497869018190385759 192.83256364301107055
39.009497869018190385759 541.54617972065670983 39.009497869018190385759 193.59704885975432376
40.009497869018190385759 545.06549330246900809 40.009497869018190385759 194.32945422197309426
41.009497869018190385759 548.48609364975334302 41.009497869018190385759 195.04096213989711828
42.009497869018190385759 551.81247630593406939 42.009497869018190385759 195.71422822933789121
43.009497869018190385759 555.04888357916672703 43.009497869018190385759 196.37676314628825480
44.009497869018218807469 558.19940137624610088 44.009497869018218807469 196.99110812012614247
46.009497869018218807469 564.25794163040393414 46.009497869018218807469 198.16420659814482974
48.009497869018218807469 570.01417141089541474 48.009497869018218807469 199.24138359547089294
50.009497869018218807469 575.48884204675493947 50.009497869018218807469 200.17109897975777244
52.009497869018190385759 580.70264597235836845 52.009497869018190385759 200.99632188539595745
54.009497869018190385759 585.67526986797281552 54.009497869018190385759 201.73416674969683982
56.009497869018190385759 590.42231395640510527 56.009497869018190385759 202.38759763536120317
58.009497869018190385759 594.95722952003779938 58.009497869018190385759 202.96016808227605566
60.009497869018190385759 599.29340476907657376 60.009497869018190385759 203.55925771673679492
62.009497869018190385759 603.44209607538198270 62.009497869018190385759 204.13124229971276691
64.009497869018190385759 607.41510132699988844 64.009497869018190385759 204.67597082671190378
66.009497869018218807469 611.22832705053212976 66.009497869018218807469 205.25133064696268548
68.009497869018218807469 614.89554344773000594 68.009497869018218807469 205.82838695488055691
70.009497869018218807469 618.42493297532701035 70.009497869018218807469 206.30452960908721138
72.009497869018218807469 621.82505132681922078 72.009497869018218807469 206.62956097413390921
74.009497869018190385759 625.10383213457180318 74.009497869018190385759 206.92412571949319045
76.009497869018190385759 628.26766642768041038 76.009497869018190385759 207.18086835415280689
78.009497869018190385759 631.32475834682827553 78.009497869018190385759 207.49638798089992520
80.009497869018190385759 634.28018520885541420 80.009497869018190385759 207.65352853230658070
82.009497869018190385759 637.13386556703903807 82.009497869018190385759 207.86603098746016371
84.009497869018190385759 639.88709231492453000 84.009497869018190385759 208.03257461972813758
86.009497869018190385759 642.54214430075387554 86.009497869018190385759 207.98881609847845198
88.009497869018218807469 645.10568884752296981 88.009497869018218807469 208.01000425963974294
91.009497869018190385759 648.78548169311170568 91.009497869018190385759 207.93014320869684752
94.009497869018218807469 652.27967316723629665 94.009497869018218807469 207.99957910003573147
97.009497869018190385759 655.61344408490413116 97.009497869018190385759 208.31796763623472657
99.504748934509109403734 658.28212230543533678 99.504748934509109403734 208.47456548713282132
nan nan nan nan

