Time Pressure difference Time.1 Pressure.1 difference.1
(hr) (psi) (hr) (psi)
0.000200000000006639311 0.66329746062330930 0.000200000000006639311 0.52380216965178028
0.000399999999999067768 1.20392576719515398 0.000399999999999067768 1.03612588512640413
0.000600000000005707079 1.68479311685213395 0.000600000000005707079 1.38770905840967229
0.000799999999998135536 2.12518655667814205 0.000799999999998135536 1.70368018821069844
0.001007140329434719206 2.54932266908949190 0.001007140329434719206 2.00221983129232362
0.001267914553963578328 3.04723332353466470 0.001267914553963578328 2.34499368801541586
0.001596209851982166583 3.62921811093962576 0.001596209851982166583 2.73469125580225825
0.002009509145224797066 4.30658455536665752 0.002009509145224797066 3.17586087614627388
0.002529822128138903281 5.09172594258335920 0.002529822128138903281 3.67343831701091972
0.003184857364431081805 5.99822153248458267 0.003184857364431081805 4.23285622087983704
0.004009497869020606231 7.04096463547635754 0.004009497869020606231 4.86017537067146677
0.005047658755842121536 8.23632305711002921 0.005047658755842121536 5.56223290639537726
0.006354625877790454069 9.60233512325128480 0.006354625877790454069 6.34680194149888077
0.008000000000009777068 11.15894319653602551 0.008000000000009777068 7.22275773020663525
0.010071403294347192059 12.92826561150762821 0.010071403294347192059 8.20024717329870079
0.012679145539706837553 14.93490738641666837 0.012679145539706837553 9.29085869345159843
0.015962098519750611558 17.20630916763414220 0.015962098519750611558 10.50778460581378404
0.020095091452091651263 19.77313099373593985 0.020095091452091651263 11.86596194909095026
0.025298221281360611101 22.66966366873823091 0.025298221281360611101 13.38219727010826254
0.031848573644296607199 25.93426657662155677 0.031848573644296607199 15.07535706450916102
0.040094978690177640601 29.60986194133547045 0.040094978690177640601 16.96677783471415779
0.050476587558421215363 33.74455465836336998 0.050476587558421215363 19.08090079096722746
0.063546258777961384112 38.39240915181802904 0.063546258777961384112 21.44559989451625626
0.079999999999998294697 43.61420663538755349 0.079999999999998294697 24.09105121134934535
0.100714032943542974863 49.47768265338325477 0.100714032943542974863 27.04609786019198481
0.126791455396897845276 56.05658598512444257 0.126791455396897845276 30.33226241734511319
0.159620985197506115583 63.42812839274343872 0.159620985197506115583 33.95748973061821374
0.200950914520760193227 71.66912490857451701 0.200950914520760193227 37.91267644570283579
0.252982212813478213320 80.85179961549843597 0.252982212813478213320 42.17374485924219130
0.318485736442795541734 91.04082112709731689 0.318485736442795541734 46.70595713726321918
0.400949786901833249431 102.29101839090070314 0.400949786901833249431 51.47787660281000655
0.504765875584155310207 114.65072465554375469 0.504765875584155310207 56.46603801251380617
0.635462587779443310865 128.16149804321457850 0.635462587779443310865 61.66131670186413061
0.799999999999997157829 142.86417439798816531 0.799999999999997157829 67.07814120451017459
1.007140329435344483500 158.80252038308529450 1.007140329435344483500 72.76599339137804634
1.267914553968893187630 176.03408398289687398 1.267914553968893187630 78.74502933352313505
1.596209851975103788391 194.60401797931478995 1.596209851975103788391 85.13300432887072589
2.009509145207672986544 214.61263505087987369 2.009509145207672986544 91.98203899128019145
2.529822128134711078928 236.11467679526063534 2.529822128134711078928 99.40979920320926055
3.184857364427998049905 259.24368673264734753 3.184857364427998049905 107.57933608890452604
4.009497869018190385759 284.10178163050397870 4.009497869018190385759 116.53140691110931471
5.009497869018204596614 309.89658578513376597 5.009497869018204596614 125.98696841520644796
6.009497869018204596614 332.32311893494136257 6.009497869018204596614 134.28773833325396936
7.009497869018204596614 352.25315564035861371 7.009497869018204596614 141.68072177644495468
8.009497869018204596614 370.23380498638653080 8.009497869018204596614 148.30596666180949228
9.009497869018204596614 386.63495714748768251 9.009497869018204596614 154.28675225890708589
10.009497869018190385759 401.72138527050088896 10.009497869018190385759 159.70440977897166590
11.009497869018190385759 415.69101541721227022 11.009497869018190385759 164.59218175756561209
12.009497869018190385759 428.69698952494485411 12.009497869018190385759 169.05699356759436114
13.009497869018190385759 440.86039521644750039 13.009497869018190385759 173.14605666539827666
14.009497869018190385759 452.28047316933322008 14.009497869018190385759 176.89379483077374289
15.009497869018190385759 463.03725263802567724 15.009497869018190385759 180.34134010595576569
16.009497869018204596614 473.19715736046504162 16.009497869018204596614 183.52435223079470461
17.009497869018204596614 482.81845962545293105 17.009497869018204596614 186.47570135523127988
18.009497869018204596614 491.95164898105031170 18.009497869018204596614 189.23054717159158145
19.009497869018204596614 500.63961489063547106 19.009497869018204596614 191.79622712047955702
20.009497869018204596614 508.92113981649214338 20.009497869018204596614 194.18664049458487852
21.009497869018204596614 516.82789666266364748 21.009497869018204596614 196.41297193025181400
22.009497869018190385759 524.38694349178297216 22.009497869018190385759 198.49507293849381995
23.009497869018190385759 531.62310750987160191 23.009497869018190385759 200.43954435126588010
24.009497869018190385759 538.55931761105159694 24.009497869018190385759 202.26842690851520956
25.009497869018190385759 545.21712774872719365 25.009497869018190385759 203.99114028345655925
26.009497869018190385759 551.61549993023845673 26.009497869018190385759 205.61723672001269847
27.009497869018204596614 557.77173511320540911 27.009497869018204596614 207.15902878564816092
28.009497869018190385759 563.70082835937910204 28.009497869018190385759 208.61954824049422541
29.009497869018190385759 569.41621732493592845 29.009497869018190385759 209.99156433452719739
30.009497869018190385759 574.93038153784414135 30.009497869018190385759 211.30503092410305044
31.009497869018190385759 580.25475326675530141 31.009497869018190385759 212.54908666267778017
32.009497869018190385759 585.39986153638278665 32.009497869018190385759 213.72880525288897502
33.009497869018218807469 590.37549761942091209 33.009497869018218807469 214.84084499660897905
34.009497869018190385759 595.19100060257915175 34.009497869018190385759 215.91178546788120229
35.009497869018218807469 599.85471040087509209 35.009497869018218807469 216.92794116935425563
36.009497869018190385759 604.37433903361727516 36.009497869018190385759 217.90701720031199784
37.009497869018218807469 608.75703108383618201 37.009497869018218807469 218.84610496443121974
38.009497869018190385759 613.00958712486783497 38.009497869018190385759 219.74921374803332697
39.009497869018190385759 617.13823097937427065 39.009497869018190385759 220.62041009644849510
40.009497869018190385759 621.14879007751369500 40.009497869018190385759 221.45504870442954370
41.009497869018190385759 625.04685699453898451 41.009497869018190385759 222.26587288570610212
42.009497869018190385759 628.83755478702414621 42.009497869018190385759 223.03311722972529196
43.009497869018190385759 632.52571792827609443 43.009497869018190385759 223.78813248404713931
44.009497869018218807469 636.11600265886272609 44.009497869018218807469 224.48823117288094409
46.009497869018218807469 643.02022792123466388 46.009497869018218807469 225.82507731195346423
48.009497869018218807469 649.57994451950457915 48.009497869018218807469 227.05261271239598386
50.009497869018218807469 655.81880036952998125 50.009497869018218807469 228.11210298129429930
52.009497869018190385759 661.76037627166249422 52.009497869018190385759 229.05251512566934480
54.009497869018190385759 667.42710688334955194 54.009497869018190385759 229.89335251192278520
56.009497869018190385759 672.83676999394026552 56.009497869018190385759 230.63799294324149969
58.009497869018190385759 678.00469449120998888 58.009497869018190385759 231.29048598252830971
60.009497869018190385759 682.94613738678845039 60.009497869018190385759 231.97319990620496810
62.009497869018190385759 687.67392628001550747 62.009497869018190385759 232.62502530338042561
64.009497869018190385759 692.20150587428008748 64.009497869018190385759 233.24579009150920683
66.009497869018218807469 696.54700301832735931 66.009497869018218807469 233.90146186049730659
68.009497869018218807469 700.72611003585382150 68.009497869018218807469 234.55906692241023848
70.009497869018218807469 704.74815153676843238 70.009497869018218807469 235.10167223718227092
72.009497869018218807469 708.62287746622257600 72.009497869018218807469 235.47207330203920606
74.009497869018190385759 712.35932887745639164 74.009497869018190385759 235.80775504566017275
76.009497869018190385759 715.96478889523018552 76.009497869018190385759 236.10033525636828244
78.009497869018190385759 719.44860684016964569 78.009497869018190385759 236.45989688117822425
80.009497869018190385759 722.81656874945895197 80.009497869018190385759 236.63897199155982776
82.009497869018190385759 726.06858180758536037 82.009497869018190385759 236.88113673052984609
84.009497869018190385759 729.20611937742216924 84.009497869018190385759 237.07092745650589904
86.009497869018190385759 732.23177840162247776 86.009497869018190385759 237.02106087558340164
88.009497869018218807469 735.15315686549774910 88.009497869018218807469 237.04520659904420654
91.009497869018190385759 739.34659582257540933 91.009497869018190385759 236.95419809497076358
94.009497869018218807469 743.32852612842089002 94.009497869018218807469 237.03332623722721451
97.009497869018190385759 747.12764347734446346 97.009497869018190385759 237.39615722995122837
99.504748934509109403734 750.16883076246438122 99.504748934509109403734 237.57461388664538049
nan nan nan nan

