Time Pressure difference Time.1 Pressure.1 difference.1
(hr) (psi) (hr) (psi)
0.000200000000006639311 0.32371455016065814 0.000200000000006639311 0.25563550863388323
0.000399999999999067768 0.58756185767418989 0.000399999999999067768 0.50566909226264711
0.000600000000005707079 0.82224353071252465 0.000600000000005707079 0.67725513855400266
0.000799999999998135536 1.03717238651277754 0.000799999999998135536 0.83146114448560415
0.001007140329434719206 1.24416704424463243 0.001007140329434719206 0.97715991766419619
0.001267914553963578328 1.48716650239490789 0.001267914553963578328 1.14444668027546603
0.001596209851982166583 1.77119735557819058 0.001596209851982166583 1.33463401000875770
0.002009509145224797066 2.10177810836076118 0.002009509145224797066 1.54994167161205731
0.002529822128138903281 2.48495715858135213 0.002529822128138903281 1.79277850878044887
0.003184857364431081805 2.92736170484893510 0.003184857364431081805 2.06579585899398710
0.004009497869020606231 3.43626025272051905 0.004009497869020606231 2.37195161630856299
0.005047658755842121536 4.01964091782403354 0.005047658755842121536 2.71458256675755294
0.006354625877790454069 4.68630709364416820 0.006354625877790454069 3.09748228723868824
0.008000000000009777068 5.44599141649126661 0.008000000000009777068 3.52498224153625239
0.010071403294347192059 6.30948848025731124 0.010071403294347192059 4.00203450562903118
0.012679145539706837553 7.28880647566746465 0.012679145539706837553 4.53429467335915337
0.015962098519750611558 8.39733748851044126 0.015962098519750611558 5.12820109948806646
0.020095091452091651263 9.65004479120127101 0.020095091452091651263 5.79104363065682737
0.025298221281360611101 11.06366360866650744 0.025298221281360611101 6.53102450502891330
0.031848573644296607199 12.65691478859042540 0.031848573644296607199 7.35735129464083393
0.040094978690177640601 14.45074601921635349 0.040094978690177640601 8.28043702938203019
0.050476587558421215363 16.46863433087590423 0.050476587558421215363 9.31220995540027197
0.063546258777961384112 18.73696523198774955 0.063546258777961384112 10.46627363273042022
0.079999999999998294697 21.28540228138531276 0.079999999999998294697 11.75735513663939535
0.100714032943542974863 24.14700301744062827 0.100714032943542974863 13.19953101310805010
0.126791455396897845276 27.35775966738130549 0.126791455396897845276 14.80330510320191983
0.159620985197506115583 30.95535452660205777 0.159620985197506115583 16.57255479676104315
0.200950914520760193227 34.97727627117033933 0.200950914520760193227 18.50283730842913599
0.252982212813478213320 39.45877301809014170 0.252982212813478213320 20.58240179733351027
0.318485736442795541734 44.43140552614319461 0.318485736442795541734 22.79429487081745620
0.400949786901833249431 49.92193242043957468 0.400949786901833249431 25.12317422720871107
0.504765875584155310207 55.95394217638977352 0.504765875584155310207 27.55758792955219150
0.635462587779443310865 62.54771674836310069 0.635462587779443310865 30.09308279229733074
0.799999999999997157829 69.72318559136263616 0.799999999999997157829 32.73670049215328959
1.007140329435344483500 77.50170851231914071 1.007140329435344483500 35.51259007617493779
1.267914553968893187630 85.91137113040900886 1.267914553968893187630 38.43058847856153193
1.596209851975103788391 94.97420973153163004 1.596209851975103788391 41.54816479208044910
2.009509145207672986544 104.73918074253468546 2.009509145207672986544 44.89075587134248480
2.529822128134711078928 115.23300015845255473 2.529822128134711078928 48.51578717094423610
3.184857364427998049905 126.52084232885179915 3.184857364427998049905 52.50283388070938884
4.009497869018190385759 138.65254414503064595 4.009497869018190385759 56.87178710494330147
5.009497869018204596614 151.24139593341456589 5.009497869018204596614 61.48646305431127956
6.009497869018204596614 162.18640254241154253 6.009497869018204596614 65.53755650713830505
7.009497869018204596614 171.91302332687359922 7.009497869018204596614 69.14561541242768783
8.009497869018204596614 180.68826846225562122 8.009497869018204596614 72.37898851437591929
9.009497869018204596614 188.69265851217099339 9.009497869018204596614 75.29784081535179041
10.009497869018190385759 196.05541290713441072 10.009497869018190385759 77.94186505959380895
11.009497869018190385759 202.87312714141464198 11.009497869018190385759 80.32728487689804808
12.009497869018190385759 209.22054034231760511 12.009497869018190385759 82.50628394207953420
13.009497869018190385759 215.15674790467772937 13.009497869018190385759 84.50190325296949823
14.009497869018190385759 220.73018307785639536 14.009497869018190385759 86.33094293176517908
15.009497869018190385759 225.97990320133311570 15.009497869018190385759 88.01347698950951326
16.009497869018204596614 230.93832560175803792 16.009497869018204596614 89.56690874421560977
17.009497869018204596614 235.63388938658465577 17.009497869018204596614 91.00728008724205154
18.009497869018204596614 240.09123538788099950 18.009497869018204596614 92.35175029426956428
19.009497869018204596614 244.33129530547762442 19.009497869018204596614 93.60390031717183490
20.009497869018204596614 248.37299646546506438 20.009497869018204596614 94.77051354281175577
21.009497869018204596614 252.23179645737647547 21.009497869018204596614 95.85704850184538373
22.009497869018190385759 255.92090065149213274 22.009497869018190385759 96.87319349151373160
23.009497869018190385759 259.45242567467420258 23.009497869018190385759 97.82216997047426332
24.009497869018190385759 262.83756170491517423 24.009497869018190385759 98.71473466348588488
25.009497869018190385759 266.08682789650799805 25.009497869018190385759 99.55548473163909762
26.009497869018190385759 269.20947843485322437 26.009497869018190385759 100.34908203560429740
27.009497869018204596614 272.21395684950698524 27.009497869018204596614 101.10153557959861814
28.009497869018190385759 275.10758130457730886 28.009497869018190385759 101.81432497861440822
29.009497869018190385759 277.89690989063859661 29.009497869018190385759 102.48392134986495705
30.009497869018190385759 280.58803309502445700 30.009497869018190385759 103.12494332181105960
31.009497869018190385759 283.18653030243564217 31.009497869018190385759 103.73209014159394314
32.009497869018190385759 285.69754007995715028 32.009497869018190385759 104.30783797030943560
33.009497869018218807469 288.12584094344953201 33.009497869018218807469 104.85055593135940910
34.009497869018190385759 290.47599072470370629 34.009497869018190385759 105.37321587427696556
35.009497869018218807469 292.75205962147975924 35.009497869018218807469 105.86913875250782269
36.009497869018190385759 294.95781139439696972 36.009497869018190385759 106.34696533220967751
37.009497869018218807469 297.09673287345117387 37.009497869018218807469 106.80527610704297103
38.009497869018190385759 299.17214299873933214 38.009497869018190385759 107.24602776219809641
39.009497869018190385759 301.18707923395299986 39.009497869018190385759 107.67120492745333138
40.009497869018190385759 303.14438558806892843 40.009497869018190385759 108.07854051603739265
41.009497869018190385759 305.04679145188026723 41.009497869018190385759 108.47425375283262383
42.009497869018190385759 306.89679707309306878 42.009497869018190385759 108.84869836091857564
43.009497869018190385759 308.69676185973281690 43.009497869018190385759 109.21717470513304704
44.009497869018218807469 310.44895823542583457 44.009497869018218807469 109.55884966331987584
46.009497869018218807469 313.81848444002844190 46.009497869018218807469 110.21128175033135221
48.009497869018218807469 317.01987722961467853 48.009497869018218807469 110.81036601274827547
50.009497869018218807469 320.06467769230647491 50.009497869018218807469 111.32743781862211563
52.009497869018190385759 322.96439416128987432 52.009497869018190385759 111.78639494171422086
54.009497869018190385759 325.72997560814189910 54.009497869018190385759 112.19675577136902689
56.009497869018190385759 328.37009827455460709 56.009497869018190385759 112.56016880483556974
58.009497869018190385759 330.89224324451396342 58.009497869018190385759 112.87861038381764445
60.009497869018190385759 333.30385652369579930 60.009497869018190385759 113.21180091116222854
62.009497869018190385759 335.61119847158647644 62.009497869018190385759 113.52991665523829568
64.009497869018190385759 337.82083061806969226 64.009497869018190385759 113.83287363317673169
66.009497869018218807469 339.94159955918365768 66.009497869018218807469 114.15286655392691273
68.009497869018218807469 341.98116374955543506 68.009497869018218807469 114.47380299562604478
70.009497869018218807469 343.94407395574347674 70.009497869018218807469 114.73861515881623063
72.009497869018218807469 345.83508852418515289 72.009497869018218807469 114.91938505649760316
74.009497869018190385759 347.65861983493090293 74.009497869018190385759 115.08321059644659101
76.009497869018190385759 349.41822233164339195 76.009497869018190385759 115.22600093851465886
78.009497869018190385759 351.11845884065695600 78.009497869018190385759 115.40148077454630027
80.009497869018190385759 352.76215316959240909 80.009497869018190385759 115.48887628296222374
82.009497869018190385759 354.34926002092680619 82.009497869018190385759 115.60706194504327016
84.009497869018190385759 355.88049845213902245 84.009497869018190385759 115.69968708403636981
86.009497869018190385759 357.35713587064827834 86.009497869018190385759 115.67535028377754713
88.009497869018218807469 358.78288038411852767 88.009497869018218807469 115.68713432106463301
91.009497869018190385759 360.82943910958226752 91.009497869018190385759 115.64271868749770533
94.009497869018218807469 362.77277351721971854 94.009497869018218807469 115.68133624974726104
97.009497869018190385759 364.62688820425421454 97.009497869018190385759 115.85841166246423484
99.504748934509109403734 366.11110400847542223 99.504748934509109403734 115.94550534180778811
nan nan nan nan

