Time Pressure difference Time.1 Pressure.1 difference.1
(hr) (psi) (hr) (psi)
0.000200000000006639311 0.19168979244807599 0.000200000000006639311 0.15137632079888769
0.000399999999999067768 0.34792878630903012 0.000399999999999067768 0.29943542326141065
0.000600000000005707079 0.48689714955918129 0.000600000000005707079 0.40104127812413493
0.000799999999998135536 0.61416874652325260 0.000799999999998135536 0.49235542281304401
0.001007140329434719206 0.73674205365074308 0.001007140329434719206 0.57863195124428879
0.001267914553963578328 0.88063585043776893 0.001267914553963578328 0.67769195577096231
0.001596209851982166583 1.04882666938159508 0.001596209851982166583 0.79031268827969570
0.002009509145224797066 1.24458233083323533 0.002009509145224797066 0.91780859769968870
0.002529822128138903281 1.47148443508150684 0.002529822128138903281 1.06160609735626577
0.003184857364431081805 1.73345732326348712 0.003184857364431081805 1.22327519493369463
0.004009497869020606231 2.03480509082665995 0.004009497869020606231 1.40456742769644305
0.005047658755842121536 2.38025795526050610 0.005047658755842121536 1.60745869639368810
0.006354625877790454069 2.77502890643242894 0.006354625877790454069 1.83419539361977213
0.008000000000009777068 3.22488119172620058 0.008000000000009777068 2.08734242538029102
0.010071403294347192059 3.73620690399550615 0.010071403294347192059 2.36983219745091667
0.012679145539706837553 4.31611677578740061 0.012679145539706837553 2.68501370853816557
0.015962098519750611558 4.97254102260814346 0.015962098519750611558 3.03669947459881584
0.020095091452091651263 5.71434024890741998 0.020095091452091651263 3.42920622834972910
0.025298221281360611101 6.55142433297506876 0.025298221281360611101 3.86739098140927773
0.031848573644296607199 7.49487895324374165 0.031848573644296607199 4.35670606074810163
0.040094978690177640601 8.55710842706537100 0.040094978690177640601 4.90331761347720185
0.050476587558421215363 9.75201483906769084 0.050476587558421215363 5.51428903241349477
0.063546258777961384112 11.09522254913784245 0.063546258777961384112 6.19767575898938627
0.079999999999998294697 12.60429703721247741 0.079999999999998294697 6.96219853189234783
0.100714032943542974863 14.29881355150405930 0.100714032943542974863 7.81619287442868771
0.126791455396897845276 16.20008513637089109 0.126791455396897845276 8.76587870817055048
0.159620985197506115583 18.33042562163494438 0.159620985197506115583 9.81355205612124415
0.200950914520760193227 20.71203418410479102 0.200950914520760193227 10.95658209244235159
0.252982212813478213320 23.36578323816318203 0.252982212813478213320 12.18801047606807764
0.318485736442795541734 26.31036170371616478 0.318485736442795541734 13.49779813918994442
0.400949786901833249431 29.56161488426029749 0.400949786901833249431 14.87686003258241385
0.504765875584155310207 33.13351085739159174 0.504765875584155310207 16.31841481318580733
0.635462587779443310865 37.03805972157971382 0.635462587779443310865 17.81982549661528381
0.799999999999997157829 41.28706284037552621 0.799999999999997157829 19.38526186005940133
1.007140329435344483500 45.89316857003996120 1.007140329435344483500 21.02902392746045024
1.267914553968893187630 50.87300800271278689 1.267914553968893187630 22.75693670691290649
1.596209851975103788391 56.23963007631872557 1.596209851975103788391 24.60303091609469917
2.009509145207672986544 62.02202467499112259 2.009509145207672986544 26.58236916303025765
2.529822128134711078928 68.23601185853463846 2.529822128134711078928 28.72895632475521310
3.184857364427998049905 74.92018506532009781 3.184857364427998049905 31.08991339602791371
4.009497869018190385759 82.10405555254756393 4.009497869018190385759 33.67701903077034586
5.009497869018204596614 89.55863053311999522 5.009497869018204596614 36.40963106353334666
6.009497869018204596614 96.03979130942801135 6.009497869018204596614 38.80851385324660185
7.009497869018204596614 101.79947655826630637 7.009497869018204596614 40.94505069520227636
8.009497869018204596614 106.99579818745333171 8.009497869018204596614 42.85971476733633523
9.009497869018204596614 111.73565268759931257 9.009497869018204596614 44.58813318869850661
10.009497869018190385759 116.09555823128349061 10.009497869018190385759 46.15381029019084735
11.009497869018190385759 120.13271450334747215 11.009497869018190385759 47.56635300553570289
12.009497869018190385759 123.89137879094101891 12.009497869018190385759 48.85666225589807965
13.009497869018190385759 127.40654483767190186 13.009497869018190385759 50.03838192626821524
14.009497869018190385759 130.70689272453458329 14.009497869018190385759 51.12146032430016618
15.009497869018190385759 133.81555052314234899 15.009497869018190385759 52.11778441339583168
16.009497869018204596614 136.75171437594300983 16.009497869018204596614 53.03765968775120143
17.009497869018204596614 139.53222469558542684 17.009497869018204596614 53.89058546342568690
18.009497869018204596614 142.17167271988247990 18.009497869018204596614 54.68672272327335548
19.009497869018204596614 144.68245329853769476 19.009497869018204596614 55.42819195252136666
20.009497869018204596614 147.07577437758911287 20.009497869018204596614 56.11900998025323162
21.009497869018204596614 149.36078927476020795 21.009497869018204596614 56.76240911285746193
22.009497869018190385759 151.54531764068750022 22.009497869018190385759 57.36412634203362160
23.009497869018190385759 153.63653441912080666 23.009497869018190385759 57.92606927663376837
24.009497869018190385759 155.64106595075367068 24.009497869018190385759 58.45460758504458454
25.009497869018190385759 157.56514122499103792 25.009497869018190385759 58.95246350775491351
26.009497869018190385759 159.41424017122679402 26.009497869018190385759 59.42239759755391759
27.009497869018204596614 161.19336268343354845 27.009497869018204596614 59.86796812752702834
28.009497869018190385759 162.90684226271048374 28.009497869018190385759 60.29005126184617325
29.009497869018190385759 164.55856232739773759 29.009497869018190385759 60.68655734835139981
30.009497869018190385759 166.15212940136737529 30.009497869018190385759 61.06614290820968449
31.009497869018190385759 167.69084735555992438 31.009497869018190385759 61.42566906423797235
32.009497869018190385759 169.17775902773934149 32.009497869018190385759 61.76660209222245612
33.009497869018218807469 170.61569404886617463 33.009497869018218807469 62.08797625739322257
34.009497869018190385759 172.00735137031477962 34.009497869018190385759 62.39747292947380686
35.009497869018218807469 173.35514118762131375 35.009497869018218807469 62.69113706521051199
36.009497869018190385759 174.66129223746642651 36.009497869018190385759 62.97408535358298565
37.009497869018218807469 175.92786927016126697 37.009497869018218807469 63.24547722417054274
38.009497869018190385759 177.15683761886131720 38.009497869018190385759 63.50647134153690843
39.009497869018190385759 178.34999593853689248 39.009497869018190385759 63.75824291782531361
40.009497869018190385759 179.50902832862121272 40.009497869018190385759 63.99944948204566941
41.009497869018190385759 180.63555101660361402 41.009497869018190385759 64.23377379089303929
42.009497869018190385759 181.73104454132177921 42.009497869018190385759 64.45550373528904231
43.009497869018190385759 182.79690604243003804 43.009497869018190385759 64.67369953127486326
44.009497869018218807469 183.83448115117371913 44.009497869018218807469 64.87602470259334098
46.009497869018218807469 185.82976921742860554 46.009497869018218807469 65.26236684039228919
48.009497869018218807469 187.72549592812475794 48.009497869018218807469 65.61711869774505601
50.009497869018218807469 189.52849541779715992 50.009497869018218807469 65.92330631612524883
52.009497869018190385759 191.24558242492065574 52.009497869018190385759 66.19508092626999485
54.009497869018190385759 192.88324045815460295 54.009497869018190385759 66.43807890775185854
56.009497869018190385759 194.44660721355978694 56.009497869018190385759 66.65327642953008080
58.009497869018190385759 195.94011266635922652 58.009497869018190385759 66.84184379590769254
60.009497869018190385759 197.36816601991398556 60.009497869018190385759 67.03914485327645423
62.009497869018190385759 198.73447438905708395 62.009497869018190385759 67.22751927427836449
64.009497869018190385759 200.04292322873931198 64.009497869018190385759 67.40691732788111779
66.009497869018218807469 201.29875111151659439 66.009497869018218807469 67.59640333193318895
68.009497869018218807469 202.50649304385439109 68.009497869018218807469 67.78644804839032645
70.009497869018218807469 203.66884379340103806 70.009497869018218807469 67.94325838816176599
72.009497869018218807469 204.78862104765474328 72.009497869018218807469 68.05030252365151000
74.009497869018190385759 205.86843762774338984 74.009497869018190385759 68.14731294142524121
76.009497869018190385759 206.91039832187510683 76.009497869018190385759 68.23186722241456437
78.009497869018190385759 207.91720503897727212 78.009497869018190385759 68.33577881159408207
80.009497869018190385759 208.89052991611160337 80.009497869018190385759 68.38753066167566885
82.009497869018190385759 209.83034613003900404 82.009497869018190385759 68.45751511255504340
84.009497869018190385759 210.73707947558037290 84.009497869018190385759 68.51236372427251808
86.009497869018190385759 211.61148045673681395 86.009497869018190385759 68.49795252098199683
88.009497869018218807469 212.45574485490942607 88.009497869018218807469 68.50493051953239387
91.009497869018190385759 213.66762864920360698 91.009497869018190385759 68.47862949730254911
94.009497869018218807469 214.81838745529481116 94.009497869018218807469 68.50149715181112242
97.009497869018190385759 215.91631419153875981 97.009497869018190385759 68.60635357267490519
99.504748934509109403734 216.79520276580311133 99.504748934509109403734 68.65792669259990078
nan nan nan nan

