Time Pressure difference Time.1 Pressure.1 difference.1
(hr) (psi) (hr) (psi)
0.000200000000006639311 0.20755815275006906 0.000200000000006639311 0.16390747318290158
0.000399999999999067768 0.37673083815580416 0.000399999999999067768 0.32422312386252078
0.000600000000005707079 0.52720320498626572 0.000600000000005707079 0.43424005942580174
0.000799999999998135536 0.66501053017583966 0.000799999999998135536 0.53311332205253437
0.001007140329434719206 0.79773063425097024 0.001007140329434719206 0.62653194720821992
0.001267914553963578328 0.95353616918261752 0.001267914553963578328 0.73379228323544599
0.001596209851982166583 1.13565006916483968 0.001596209851982166583 0.85573592406443877
0.002009509145224797066 1.34761066947837049 0.002009509145224797066 0.99378613062184851
0.002529822128138903281 1.59329606050216110 0.002529822128138903281 1.14948739680628775
0.003184857364431081805 1.87695544605019982 0.003184857364431081805 1.32453969782555681
0.004009497869020606231 2.20324922086197983 0.004009497869020606231 1.52083956575078427
0.005047658755842121536 2.57729917672246822 0.005047658755842121536 1.74052646927396037
0.006354625877790454069 3.00474984239537823 0.006354625877790454069 1.98603276064127643
0.008000000000009777068 3.49184155527969420 0.008000000000009777068 2.26013567251442060
0.010071403294347192059 4.04549555498851188 0.010071403294347192059 2.56601035949155509
0.012679145539706837553 4.67341121086913880 0.012679145539706837553 2.90728305527145725
0.015962098519750611558 5.38417521322140047 0.015962098519750611558 3.28808188143646607
0.020095091452091651263 6.18738166024081604 0.020095091452091651263 3.71308091612702418
0.025298221281360611101 7.09376078438028923 0.025298221281360611101 4.18753924145971457
0.031848573644296607199 8.11531595268444939 0.031848573644296607199 4.71736053597559390
0.040094978690177640601 9.26547832996813270 0.040094978690177640601 5.30922138942730193
0.050476587558421215363 10.55930083567925593 0.050476587558421215363 5.97076991258017475
0.063546258777961384112 12.01370123698037951 0.063546258777961384112 6.71072838804479943
0.079999999999998294697 13.64769910982940360 0.079999999999998294697 7.53853946996290603
0.100714032943542974863 15.48249017000605221 0.100714032943542974863 8.46322870840457320
0.126791455396897845276 17.54115178673272268 0.126791455396897845276 9.49153091911182045
0.159620985197506115583 19.84784496117426400 0.159620985197506115583 10.62593219321737514
0.200950914520760193227 22.42660655033863293 0.200950914520760193227 11.86358392128691719
0.252982212813478213320 25.30003681748132749 0.252982212813478213320 13.19695174064325194
0.318485736442795541734 28.48837177852710667 0.318485736442795541734 14.61516553481825120
0.400949786901833249431 32.00876843428184770 0.400949786901833249431 16.10838818097499825
0.504765875584155310207 35.87635116015579939 0.504765875584155310207 17.66927696659523050
0.635462587779443310865 40.10412426806810515 0.635462587779443310865 19.29497661388476004
0.799999999999997157829 44.70486605563839788 0.799999999999997157829 20.99000208026299319
1.007140329435344483500 49.69227192848698138 1.007140329435344483500 22.76983716648863521
1.267914553968893187630 55.08434972479165737 1.267914553968893187630 24.64078908331298123
1.596209851975103788391 60.89522859257027676 1.596209851975103788391 26.63970566080452329
2.009509145207672986544 67.15629824080164667 2.009509145207672986544 28.78289641162547596
2.529822128134711078928 73.88468833689016435 2.529822128134711078928 31.10718118607600857
3.184857364427998049905 81.12218714026379018 3.184857364427998049905 33.66358172351366562
4.009497869018190385759 88.90074889299023653 4.009497869018190385759 36.46485173199305763
5.009497869018204596614 96.97242445142462941 5.009497869018204596614 39.42367337011722839
6.009497869018204596614 103.99010515954623202 6.009497869018204596614 42.02113917222396822
7.009497869018204596614 110.22658554487776428 7.009497869018204596614 44.33454164679186960
8.009497869018204596614 115.85306624932860586 8.009497869018204596614 46.40770440039397471
9.009497869018204596614 120.98529281074493724 9.009497869018204596614 48.27920381690201879
10.009497869018190385759 125.70611768751558657 10.009497869018190385759 49.97448994997485983
11.009497869018190385759 130.07747563773054367 11.009497869018190385759 51.50396500930521881
12.009497869018190385759 134.14728763125069122 12.009497869018190385759 52.90108793933335107
13.009497869018190385759 137.95344424476394352 13.009497869018190385759 54.18063208572749545
14.009497869018190385759 141.52699973815498424 14.009497869018190385759 55.35336929154355801
15.009497869018190385759 144.89299675850182325 15.009497869018190385759 56.43217054033257085
16.009497869018204596614 148.07222053289191877 16.009497869018204596614 57.42819443011471492
17.009497869018204596614 151.08290554786898952 17.009497869018204596614 58.35172664417284949
18.009497869018204596614 153.94085092517076419 18.009497869018204596614 59.21376930632578706
19.009497869018204596614 156.65947757821800224 19.009497869018204596614 60.01661843865723966
20.009497869018204596614 159.25092126315112750 20.009497869018204596614 60.76462338921459860
21.009497869018204596614 161.72509302267081921 21.009497869018204596614 61.46128403941850848
22.009497869018190385759 164.09045982948612163 22.009497869018190385759 62.11281229749998545
23.009497869018190385759 166.35479057964406024 23.009497869018190385759 62.72127368695113603
24.009497869018190385759 168.52526015197500442 24.009497869018190385759 63.29356516658801723
25.009497869018190385759 170.60861318070220705 25.009497869018190385759 63.83263432793329883
26.009497869018190385759 172.61078323175883042 26.009497869018190385759 64.34147024635804257
27.009497869018204596614 174.53718409762507235 27.009497869018204596614 64.82392575397794587
28.009497869018190385759 176.39250801293488280 28.009497869018190385759 65.28094954511158221
29.009497869018190385759 178.18095987105650124 29.009497869018190385759 65.71027898314869731
30.009497869018190385759 179.90644474916268791 30.009497869018190385759 66.12128718869061572
31.009497869018190385759 181.57254001744402672 31.009497869018190385759 66.51057544372787333
32.009497869018190385759 183.18254040420782758 32.009497869018190385759 66.87973140449253151
33.009497869018218807469 184.73950978138822165 33.009497869018218807469 67.22770939128336920
34.009497869018190385759 186.24637052348651878 34.009497869018190385759 67.56282664880110644
35.009497869018218807469 187.70573234553700104 35.009497869018218807469 67.88080072954913646
36.009497869018190385759 189.12000848228981909 36.009497869018190385759 68.18717188947562136
37.009497869018218807469 190.49143460709515807 37.009497869018218807469 68.48102997451579199
38.009497869018190385759 191.82213874625051631 38.009497869018190385759 68.76362956517407099
39.009497869018190385759 193.11406845000516341 39.009497869018190385759 69.03624315936714595
40.009497869018190385759 194.36904722999710771 40.009497869018190385759 69.29741715440043492
41.009497869018190385759 195.58882510738206406 41.009497869018190385759 69.55113917093386533
42.009497869018190385759 196.77500518215967418 42.009497869018190385759 69.79122424317719720
43.009497869018190385759 197.92910025124044182 43.009497869018190385759 70.02748260505589428
44.009497869018218807469 199.05256733918480450 44.009497869018218807469 70.24655654883450495
46.009497869018218807469 201.21302825860644248 46.009497869018218807469 70.66488065168304900
48.009497869018218807469 203.26568598839998003 48.009497869018218807469 71.04899938464447473
50.009497869018218807469 205.21794040271416293 50.009497869018218807469 71.38053366017535950
52.009497869018190385759 207.07717037400348659 52.009497869018190385759 71.67480616851088371
54.009497869018190385759 208.85039612522038510 54.009497869018190385759 71.93791987693660417
56.009497869018190385759 210.54318065839089513 56.009497869018190385759 72.17093176310045521
58.009497869018190385759 212.16032066854131699 58.009497869018190385759 72.37510901080072756
60.009497869018190385759 213.70659035931083736 60.009497869018190385759 72.58874293715696524
62.009497869018190385759 215.18600372589958170 62.009497869018190385759 72.79271126718219875
64.009497869018190385759 216.60276786687998651 64.009497869018190385759 72.98696015303683282
66.009497869018218807469 217.96255501147658151 66.009497869018218807469 73.19213208457667008
68.009497869018218807469 219.27027558059728563 68.009497869018218807469 73.39790897954846116
70.009497869018218807469 220.52884741868257379 70.009497869018218807469 73.56770030771157565
72.009497869018218807469 221.74132146550695666 72.009497869018218807469 73.68360571269552395
74.009497869018190385759 222.91052683533806089 74.009497869018190385759 73.78864679419223194
76.009497869018190385759 224.03874255381842318 76.009497869018190385759 73.88020060175351489
78.009497869018190385759 225.12889419783300582 78.009497869018190385759 73.99271414367969157
80.009497869018190385759 226.18279232638573717 80.009497869018190385759 74.04875008731106334
82.009497869018190385759 227.20040789577069518 82.009497869018190385759 74.12452795299833497
84.009497869018190385759 228.18220194872446882 84.009497869018190385759 74.18391701270567751
86.009497869018190385759 229.12898711706267818 86.009497869018190385759 74.16831282901031841
88.009497869018218807469 230.04314095217011982 88.009497869018218807469 74.17586847644732018
91.009497869018190385759 231.35534625261450969 91.009497869018190385759 74.14739021727794466
94.009497869018218807469 232.60136654927620725 94.009497869018218807469 74.17215088954382907
97.009497869018190385759 233.79018126037476577 97.009497869018190385759 74.28568747769766389
99.504748934509109403734 234.74182551131659125 99.504748934509109403734 74.34152989562969083
nan nan nan nan

