Time Pressure difference Time.1 Pressure.1 difference.1
(hr) (psi) (hr) (psi)
0.000200000000006639311 0.65758485091459185 0.000200000000006639311 0.51929095479353526
0.000399999999999067768 1.19355702853031542 0.000399999999999067768 1.02720231291000452
0.000600000000005707079 1.67028293689838336 0.000600000000005707079 1.37575749714107198
0.000799999999998135536 2.10688351456321099 0.000799999999998135536 1.68900734448448220
0.001007140329434719206 2.52736678007341053 0.001007140329434719206 1.98497583274530842
0.001267914553963578328 3.02098920878651889 0.001267914553963578328 2.32479757012820176
0.001596209851982166583 3.59796168701765762 0.001596209851982166583 2.71113889091975135
0.002009509145224797066 4.26949435345440964 0.002009509145224797066 3.14850896429429650
0.002529822128138903281 5.04787375743192346 0.002529822128138903281 3.64180104920891168
0.003184857364431081805 5.94656220828136650 0.003184857364431081805 4.19640099983876702
0.004009497869020606231 6.98032474866364172 0.004009497869020606231 4.81831740097190409
0.005047658755842121536 8.16538821738372356 0.005047658755842121536 5.51432850815847964
0.006354625877790454069 9.51963558630462359 0.006354625877790454069 6.29214048937113901
0.008000000000009777068 11.06283746565676651 0.008000000000009777068 7.16055216123834892
0.010071403294347192059 12.81692169715014629 0.010071403294347192059 8.12962303496407124
0.012679145539706837553 14.80628138978724273 0.012679145539706837553 9.21084172862761363
0.015962098519750611558 17.05812085901336772 0.015962098519750611558 10.41728693935222871
0.020095091452091651263 19.60283608565591962 0.020095091452091651263 11.76376706149112472
0.025298221281360611101 22.47442254623235414 0.025298221281360611101 13.26694389649010475
0.031848573644296607199 25.71090925682290163 0.031848573644296607199 14.94552145342726490
0.040094978690177640601 29.35484877629047418 0.040094978690177640601 16.82065247537212471
0.050476587558421215363 33.45393169958320811 0.050476587558421215363 18.91656767410722040
0.063546258777961384112 38.06175682419472395 0.063546258777961384112 21.26090094805630670
0.079999999999998294697 43.23858188924545232 0.079999999999998294697 23.88356847364394753
0.100714032943542974863 49.05155907072253996 0.100714032943542974863 26.81316495996066607
0.126791455396897845276 55.57380199099418405 0.126791455396897845276 30.07102762140625529
0.159620985197506115583 62.88185743050927812 0.159620985197506115583 33.66503288126360616
0.200950914520760193227 71.05187885673034032 0.200950914520760193227 37.58615578731879481
0.252982212813478213320 80.15546832694390389 0.252982212813478213320 41.81052600399513608
0.318485736442795541734 90.25673750016538577 0.318485736442795541734 46.30370487483703101
0.400949786901833249431 101.41004311289295003 0.400949786901833249431 51.03452646938868043
0.504765875584155310207 113.66330214654863084 0.504765875584155310207 55.97972763728642320
0.635462587779443310865 127.05771480647877070 0.635462587779443310865 61.13026229964712854
0.799999999999997157829 141.63376524049351701 0.799999999999997157829 66.50043472523688592
1.007140329435344483500 157.43484317404440276 1.007140329435344483500 72.13930062532790544
1.267914553968893187630 174.51800096294849141 1.267914553968893187630 78.06684247801911170
1.596209851975103788391 192.92800251346420737 1.596209851975103788391 84.39980142077519076
2.009509145207672986544 212.76429656718809724 2.009509145207672986544 91.18984918178590249
2.529822128134711078928 234.08115326305264148 2.529822128134711078928 98.55363825313376935
3.184857364427998049905 257.01096598566755347 3.184857364427998049905 106.65281549100964753
4.009497869018190385759 281.65497202794460918 4.009497869018190385759 115.52778713866912597
5.009497869018204596614 307.22761997454409766 5.009497869018204596614 124.90191318483624627
6.009497869018204596614 329.46100594889878721 6.009497869018204596614 133.13119321842211207
7.009497869018204596614 349.21939640517848602 7.009497869018204596614 140.46050503387272101
8.009497869018204596614 367.04518848411140652 8.009497869018204596614 147.02869039390873240
9.009497869018204596614 383.30508670315526842 9.009497869018204596614 152.95796683275381156
10.009497869018190385759 398.26158386625729690 10.009497869018190385759 158.32896510144939839
11.009497869018190385759 412.11090140883442245 11.009497869018190385759 163.17464143620858863
12.009497869018190385759 425.00486234243339823 12.009497869018190385759 167.60100032155764893
13.009497869018190385759 437.06351142989439040 13.009497869018190385759 171.65484660799293692
14.009497869018190385759 448.38523464442988598 14.009497869018190385759 175.37030760256612893
15.009497869018190385759 459.04937199329629038 15.009497869018190385759 178.78816110025854869
16.009497869018204596614 469.12177514396341849 16.009497869018204596614 181.94375972354387727
17.009497869018204596614 478.66021451863082348 17.009497869018204596614 184.86969053016230191
18.009497869018204596614 487.71474482714643273 18.009497869018204596614 187.60081040169271205
19.009497869018204596614 496.32788614995058651 19.009497869018204596614 190.14439358547065240
20.009497869018204596614 504.53808693768991134 20.009497869018204596614 192.51421966735878755
21.009497869018204596614 512.37674731341576262 21.009497869018204596614 194.72137695668982360
22.009497869018190385759 519.87069230381541729 22.009497869018190385759 196.78554599452593266
23.009497869018190385759 527.04453529208331020 23.009497869018190385759 198.71327076355163399
24.009497869018190385759 533.92100769861190201 24.009497869018190385759 200.52640217915958942
25.009497869018190385759 540.52147784467115343 25.009497869018190385759 202.23427878819234138
26.009497869018190385759 546.86474442844689747 26.009497869018190385759 203.84637056644325526
27.009497869018204596614 552.96795940409651848 27.009497869018204596614 205.37488404012583487
28.009497869018190385759 558.84598868929833770 28.009497869018190385759 206.82282485851865772
29.009497869018190385759 564.51215420921869281 29.009497869018190385759 208.18302454600018336
30.009497869018190385759 569.97882801263779129 30.009497869018190385759 209.48517898312991292
31.009497869018190385759 575.25734390847708255 31.009497869018190385759 210.71852036606139791
32.009497869018190385759 580.35814024085425444 32.009497869018190385759 211.88807870047173765
33.009497869018218807469 585.29092395571308316 33.009497869018218807469 212.99054106840853251
34.009497869018190385759 590.06495370743743933 34.009497869018190385759 214.05225812892336990
35.009497869018218807469 594.68849758402541283 35.009497869018218807469 215.05966225019236049
36.009497869018190385759 599.16920118548091523 36.009497869018190385759 216.03030604739066689
37.009497869018218807469 603.51414756253996075 37.009497869018218807469 216.96130597430689591
38.009497869018190385759 607.73007871900779264 38.009497869018190385759 217.85663678752396777
39.009497869018190385759 611.82316487524576587 39.009497869018190385759 218.72033000949340931
40.009497869018190385759 615.79918327301845693 40.009497869018190385759 219.54778034238182727
41.009497869018190385759 619.66367832185881070 41.009497869018190385759 220.35162134889137064
42.009497869018190385759 623.42172895632245400 42.009497869018190385759 221.11225784688556928
43.009497869018190385759 627.07812801310421946 43.009497869018190385759 221.86077057748596530
44.009497869018218807469 630.63749163117881835 44.009497869018218807469 222.55483970823408413
46.009497869018218807469 637.48225466641065395 46.009497869018218807469 223.88017233988881571
48.009497869018218807469 643.98547609780553103 48.009497869018218807469 225.09713566511214822
50.009497869018218807469 650.17060017495987267 50.009497869018218807469 226.14750113743630777
52.009497869018190385759 656.06100460999277857 52.009497869018190385759 227.07981403846264357
54.009497869018190385759 661.67893084320598973 54.009497869018190385759 227.91340976301628984
56.009497869018190385759 667.04200355380112342 56.009497869018190385759 228.65163702315615524
58.009497869018190385759 672.16541961042435105 58.009497869018190385759 229.29851050516683131
60.009497869018190385759 677.06430462460559738 60.009497869018190385759 229.97534459600797163
62.009497869018190385759 681.75137571875222875 62.009497869018190385759 230.62155618593504869
64.009497869018190385759 686.23996180454946625 64.009497869018190385759 231.23697467445310849
66.009497869018218807469 690.54803361434164799 66.009497869018218807469 231.88699950954563178
68.009497869018218807469 694.69114832262630443 68.009497869018218807469 232.53894098719331396
70.009497869018218807469 698.67855023166703177 70.009497869018218807469 233.07687314614435081
72.009497869018218807469 702.51990531579576782 72.009497869018218807469 233.44408415398334000
74.009497869018190385759 706.22417676272232256 74.009497869018190385759 233.77687485866405837
76.009497869018190385759 709.79858497173052001 76.009497869018190385759 234.06693523980626992
78.009497869018190385759 713.25239874298154064 78.009497869018190385759 234.42340016162739857
80.009497869018190385759 716.59135428176034566 80.009497869018190385759 234.60093299833107494
82.009497869018190385759 719.81535957192193109 82.009497869018190385759 234.84101210797027193
84.009497869018190385759 722.92587528709032085 84.009497869018190385759 235.02916827266994915
86.009497869018190385759 725.92547600390503248 86.009497869018190385759 234.97973116469319166
88.009497869018218807469 728.82169427048404486 88.009497869018218807469 235.00366893455483819
91.009497869018190385759 732.97901748534764010 91.009497869018190385759 234.91344423577965017
94.009497869018218807469 736.92665365458765336 94.009497869018218807469 234.99189089164343613
97.009497869018190385759 740.69305133256341378 97.009497869018190385759 235.35159702414304661
99.504748934509109403734 743.70804657407950344 99.504748934509109403734 235.52851673355462481
nan nan nan nan

