Time Pressure difference Time.1 Pressure.1 difference.1
(hr) (psi) (hr) (psi)
0.000200000000006639311 0.59982401941533714 0.000200000000006639311 0.47367756011572476
0.000399999999999067768 1.08871755980805807 0.000399999999999067768 0.93697508272196361
0.000600000000005707079 1.52356889514379557 0.000600000000005707079 1.25491393320300504
0.000799999999998135536 1.92181942206779355 0.000799999999998135536 1.54064859125273701
0.001007140329434719206 2.30536834668858370 0.001007140329434719206 1.81061984743659865
0.001267914553963578328 2.75563204855527033 0.001267914553963578328 2.12059237815748114
0.001596209851982166583 3.28192451180664690 0.001596209851982166583 2.47299831266328640
0.002009509145224797066 3.89447120078611642 0.002009509145224797066 2.87195074445763554
0.002529822128138903281 4.60447944090074124 0.002529822128138903281 3.32191311921083177
0.003184857364431081805 5.42422904133773276 0.003184857364431081805 3.82779820931238834
0.004009497869020606231 6.36718811533507889 0.004009497869020606231 4.39508681845410187
0.005047658755842121536 7.44815817126217983 0.005047658755842121536 5.02996181487428906
0.006354625877790454069 8.68345137939948764 0.006354625877790454069 5.73945247341286358
0.008000000000009777068 10.09110174232205104 0.008000000000009777068 6.53158474167011516
0.010071403294347192059 11.69111100753560528 0.010071403294347192059 7.41553452513614619
0.012679145539706837553 13.50572964608971382 0.012679145539706837553 8.40178130651843169
0.015962098519750611558 15.55977240518111060 0.015962098519750611558 9.50225497846318312
0.020095091452091651263 17.88096534840235563 0.020095091452091651263 10.73046319798176818
0.025298221281360611101 20.50031786311734905 0.025298221281360611101 12.10160422990651696
0.031848573644296607199 23.45251857885872582 0.031848573644296607199 13.63273916359919369
0.040094978690177640601 26.77638232972442012 0.040094978690177640601 15.34316273091376281
0.050476587558421215363 30.51541067191711676 0.050476587558421215363 17.25497727030050399
0.063546258777961384112 34.71849440044788793 0.063546258777961384112 19.39338937829460363
0.079999999999998294697 39.44059834491983452 0.079999999999998294697 21.78568745906711257
0.100714032943542974863 44.74297617937528315 0.100714032943542974863 24.45795452428844641
0.126791455396897845276 50.69231938367712331 0.126791455396897845276 27.42965357358002976
0.159620985197506115583 57.35845103458616734 0.159620985197506115583 30.70796918223369687
0.200950914520760193227 64.81083544363914939 0.200950914520760193227 34.28466913032458052
0.252982212813478213320 73.11478529822585415 0.252982212813478213320 38.13797980094150830
0.318485736442795541734 82.32878082785356355 0.318485736442795541734 42.23648755474999206
0.400949786901833249431 92.50240419081450227 0.400949786901833249431 46.55176400923967606
0.504765875584155310207 103.67936344448692410 0.504765875584155310207 51.06258939887612058
0.635462587779443310865 115.89723985726104161 0.635462587779443310865 55.76071223278623279
0.799999999999997157829 129.19296153693665019 0.799999999999997157829 60.65918032369580715
1.007140329435344483500 143.60610694929724218 1.007140329435344483500 65.80274043526530647
1.267914553968893187630 159.18871709458136365 1.267914553968893187630 71.20961982792285028
1.596209851975103788391 175.98162391430858520 1.596209851975103788391 76.98630535003142938
2.009509145207672986544 194.07554078763780581 2.009509145207672986544 83.17992999689930400
2.529822128134711078928 213.51997088183856022 2.529822128134711078928 89.89689975792607868
3.184857364427998049905 234.43567843287246433 3.184857364427998049905 97.28466277896151837
4.009497869018190385759 256.91500826873328833 4.009497869018190385759 105.38007610621845345
5.009497869018204596614 280.24141011191522921 5.009497869018204596614 113.93079918887090685
6.009497869018204596614 300.52186353446847988 6.009497869018204596614 121.43723705734448970
7.009497869018204596614 318.54471969391278208 7.009497869018204596614 128.12275797008658174
8.009497869018204596614 334.80473273888543417 8.009497869018204596614 134.11400812957890594
9.009497869018204596614 349.63639665490512698 9.009497869018204596614 139.52246974609300878
10.009497869018190385759 363.27914744557256199 10.009497869018190385759 144.42169113983558759
11.009497869018190385759 375.91197087968004098 11.009497869018190385759 148.84173374248754840
12.009497869018190385759 387.67335416370616485 12.009497869018190385759 152.87929083385327544
13.009497869018190385759 398.67279758807933376 13.009497869018190385759 156.57705602756112739
14.009497869018190385759 409.00004511485155945 14.009497869018190385759 159.96615896180017558
15.009497869018190385759 418.72746769658783705 15.009497869018190385759 163.08379559820880900
16.009497869018204596614 427.91513273266934902 16.009497869018204596614 165.96221326134065066
17.009497869018204596614 436.61573621631862352 17.009497869018204596614 168.63113663224262950
18.009497869018204596614 444.87493615989711770 18.009497869018204596614 171.12236083938185516
19.009497869018204596614 452.73151777191435485 19.009497869018204596614 173.44252117593606499
20.009497869018204596614 460.22055227424408486 20.009497869018204596614 175.60418685873941058
21.009497869018204596614 467.37068167102114558 21.009497869018204596614 177.61747222400762780
22.009497869018190385759 474.20637473658842964 22.009497869018190385759 179.50032911662839297
23.009497869018190385759 480.75008286777870126 23.009497869018190385759 181.25872670999640945
24.009497869018190385759 487.02254080616631882 24.009497869018190385759 182.91259658234150720
25.009497869018190385759 493.04323992588251713 25.009497869018190385759 184.47045700274301794
26.009497869018190385759 498.82932768811036794 26.009497869018190385759 185.94094612479619855
27.009497869018204596614 504.39644945643937035 27.009497869018204596614 187.33519827984451922
28.009497869018190385759 509.75816535848156263 28.009497869018190385759 188.65595510743256114
29.009497869018190385759 514.92662715030087384 29.009497869018190385759 189.89667779533797898
30.009497869018190385759 519.91312014666289087 30.009497869018190385759 191.08445380217929710
31.009497869018190385759 524.72798261921900576 31.009497869018190385759 192.20946114471814781
32.009497869018190385759 529.38073603050884230 32.009497869018190385759 193.27628800380867347
33.009497869018218807469 533.88023468933283766 33.009497869018218807469 194.28191246104830725
34.009497869018190385759 538.23492398989219510 34.009497869018190385759 195.25037059057200395
35.009497869018218807469 542.45234576921245662 35.009497869018218807469 196.16928651199978617
36.009497869018190385759 546.53947405432381856 36.009497869018190385759 197.05467105674145500
37.009497869018218807469 550.50276973610061759 37.009497869018218807469 197.90389396305022274
38.009497869018190385759 554.34838261531103853 38.009497869018190385759 198.72058085348470513
39.009497869018190385759 558.08194093350118692 39.009497869018190385759 199.50840913028119417
40.009497869018190385759 561.70871447201011506 40.009497869018190385759 200.26317801501045324
41.009497869018190385759 565.23376063142518433 41.009497869018190385759 200.99641136554282639
42.009497869018190385759 568.66171222367256632 42.009497869018190385759 201.69023519817267243
43.009497869018190385759 571.99694109303425194 43.009497869018190385759 202.37300018892298681
44.009497869018218807469 575.24365790681849830 44.009497869018218807469 203.00610378791623134
46.009497869018218807469 581.48719175652320246 46.009497869018218807469 204.21502206679045344
48.009497869018218807469 587.41918427840357708 48.009497869018218807469 205.32508996479825214
50.009497869018218807469 593.06102042986208289 50.009497869018218807469 206.28319360509391345
52.009497869018190385759 598.43402447533117083 52.009497869018190385759 207.13361415670576093
54.009497869018190385759 603.55848421508653701 54.009497869018190385759 207.89398863518377425
56.009497869018190385759 608.45047621461583276 56.009497869018190385759 208.56737160896000205
58.009497869018190385759 613.12386248248162701 58.009497869018190385759 209.15742512295622646
60.009497869018190385759 617.59244002920104322 60.009497869018190385759 209.77480757068295247
62.009497869018190385759 621.86780893264551651 62.009497869018190385759 210.36425733176508857
64.009497869018190385759 625.96212732171738935 64.009497869018190385759 210.92561879088628984
66.009497869018218807469 629.89178741848741083 66.009497869018218807469 211.51854684992341049
68.009497869018218807469 633.67097988888212967 68.009497869018218807469 212.11322319777767120
70.009497869018218807469 637.30813703564228945 70.009497869018218807469 212.60390455898300388
72.009497869018218807469 640.81207579481360881 72.009497869018218807469 212.93886054586320711
74.009497869018190385759 644.19097204707782112 74.009497869018190385759 213.24241963459220983
76.009497869018190385759 647.45141196745692014 76.009497869018190385759 213.50700173901245194
78.009497869018190385759 650.60185020474671092 78.009497869018190385759 213.83215555283581466
80.009497869018190385759 653.64751910836241677 80.009497869018190385759 213.99409428901822139
82.009497869018190385759 656.58833474465848212 82.009497869018190385759 214.21308536875665141
84.009497869018190385759 659.42562948484589924 84.009497869018190385759 214.38471430277328977
86.009497869018190385759 662.16175176031879346 86.009497869018190385759 214.33961964347017215
88.009497869018218807469 664.80357247645497409 88.009497869018218807469 214.36145477138447291
91.009497869018190385759 668.59572540893191217 91.009497869018190385759 214.27915521506926666
94.009497869018218807469 672.19660975249541934 94.009497869018218807469 214.35071128629638793
97.009497869018190385759 675.63217520200043964 97.009497869018190385759 214.67882160986019358
99.504748934509109403734 678.38233978041034788 99.504748934509109403734 214.84020107452619186
nan nan nan nan

