Time Pressure difference Time.1 Pressure.1 difference.1
(hr) (psi) (hr) (psi)
0.000200000000006639311 0.35227759870424563 0.000200000000006639311 0.27819158292510821
0.000399999999999067768 0.63940555099838314 0.000399999999999067768 0.55028695334464539
0.000600000000005707079 0.89479443048127683 0.000600000000005707079 0.73701294489700286
0.000799999999998135536 1.12868759708743438 0.000799999999998135536 0.90482536311668682
0.001007140329434719206 1.35394648932504125 0.001007140329434719206 1.06337991039927227
0.001267914553963578328 1.61838707613563515 0.001267914553963578328 1.24542726971153672
0.001596209851982166583 1.92747947518803109 0.001596209851982166583 1.45239583442129527
0.002009509145224797066 2.28722911792200501 0.002009509145224797066 1.68670123087194468
0.002529822128138903281 2.70421808433853039 0.002529822128138903281 1.95096484779048840
0.003184857364431081805 3.18565832586501818 0.003184857364431081805 2.24807196419933941
0.004009497869020606231 3.73945968678409368 0.004009497869020606231 2.58124146480637684
0.005047658755842121536 4.37431511645556625 0.005047658755842121536 2.95410455794204285
0.006354625877790454069 5.09980477837747692 0.006354625877790454069 3.37078954787739615
0.008000000000009777068 5.92652007088755450 0.008000000000009777068 3.83601008637768626
0.010071403294347192059 6.86620805204472084 0.010071403294347192059 4.35515519730218159
0.012679145539706837553 7.93193645881459375 0.012679145539706837553 4.93437949747907822
0.015962098519750611558 9.13827903161430299 0.015962098519750611558 5.58068943179583687
0.020095091452091651263 10.50151933160138462 0.020095091452091651263 6.30201806865595859
0.025298221281360611101 12.03986922119590375 0.025298221281360611101 7.10729137311969961
0.031848573644296607199 13.77370138758369578 0.031848573644296607199 8.00652935005031985
0.040094978690177640601 15.72581184444132418 0.040094978690177640601 9.01106382609220979
0.050476587558421215363 17.92174912477671711 0.050476587558421215363 10.13387553970029842
0.063546258777961384112 20.39022687010431412 0.063546258777961384112 11.38976836503016443
0.079999999999998294697 23.16352601209577955 0.079999999999998294697 12.79476882516640046
0.100714032943542974863 26.27762093074421301 0.100714032943542974863 14.36419551426464380
0.126791455396897845276 29.77167963803259809 0.126791455396897845276 16.10947908289620756
0.159620985197506115583 33.68670933777283238 0.159620985197506115583 18.03483904353407752
0.200950914520760193227 38.06350653039125831 0.200950914520760193227 20.13544060034935512
0.252982212813478213320 42.94042946086280921 0.252982212813478213320 22.39849607356882188
0.318485736442795541734 48.35182366080289285 0.318485736442795541734 24.80555618294840770
0.400949786901833249431 54.32680881047836863 0.400949786901833249431 27.33992489431536299
0.504765875584155310207 60.89105472136534303 0.504765875584155310207 29.98913980568915605
0.635462587779443310865 68.06663293204219656 0.635462587779443310865 32.74835480338238369
0.799999999999997157829 75.87523137883582081 0.799999999999997157829 35.62523288851976133
1.007140329435344483500 84.34009455752376994 1.007140329435344483500 38.64605390642566363
1.267914553968893187630 93.49178623015097855 1.267914553968893187630 41.82152275608166292
1.596209851975103788391 103.35428706078440086 1.596209851975103788391 45.21417933255813892
2.009509145207672986544 113.98087316099362454 2.009509145207672986544 48.85170491881387989
2.529822128134711078928 125.40061781949248143 2.529822128134711078928 52.79659192132166368
3.184857364427998049905 137.68444606375047101 3.184857364427998049905 57.13543687018374584
4.009497869018190385759 150.88659215782746514 4.009497869018190385759 61.88988596714418122
5.009497869018204596614 164.58622498636290743 5.009497869018204596614 66.91173920616228088
6.009497869018204596614 176.49696747262433405 6.009497869018204596614 71.32028208129756308
7.009497869018204596614 187.08181950277420924 7.009497869018204596614 75.24669912528895566
8.009497869018204596614 196.63135097363112891 8.009497869018204596614 78.76536985387967604
9.009497869018204596614 205.34201073383317748 9.009497869018204596614 81.94176794611810521
10.009497869018190385759 213.35441992835211522 10.009497869018190385759 84.81908844720503282
11.009497869018190385759 220.77369718330413662 11.009497869018190385759 87.41498648368317959
12.009497869018190385759 227.68117625487505506 12.009497869018190385759 89.78625017226303839
13.009497869018190385759 234.14116683744342140 13.009497869018190385759 91.95795353999621113
14.009497869018190385759 240.20637570237315117 14.009497869018190385759 93.94837907280329148
15.009497869018190385759 245.91930642498013526 15.009497869018190385759 95.77937201799565514
16.009497869018204596614 251.31523668426612517 16.009497869018204596614 97.46987128046993121
17.009497869018204596614 256.42511492069507995 17.009497869018204596614 99.03733421258695557
18.009497869018204596614 261.27575615739988280 18.009497869018204596614 100.50043414376395390
19.009497869018204596614 265.88993900890210398 19.009497869018204596614 101.86306799221641484
20.009497869018204596614 270.28826085947667934 20.009497869018204596614 103.13261767894219645
21.009497869018204596614 274.48754320361558712 21.009497869018204596614 104.31502336965526467
22.009497869018190385759 278.50215659132970814 22.009497869018190385759 105.42082821135318227
23.009497869018190385759 282.34528676361605903 23.009497869018190385759 106.45353790904550806
24.009497869018190385759 286.02911126711353518 24.009497869018190385759 107.42485831026405663
25.009497869018190385759 289.56507741678814227 25.009497869018190385759 108.33979220796018694
26.009497869018190385759 292.96325594381085011 26.009497869018190385759 109.20341280345172663
27.009497869018204596614 296.23283539505172257 27.009497869018204596614 110.02225930721026259
28.009497869018190385759 299.38177965498118738 28.009497869018190385759 110.79794188849214720
29.009497869018190385759 302.41722546922437687 29.009497869018190385759 111.52662029250009823
30.009497869018190385759 305.34580072105592308 30.009497869018190385759 112.22420302667673297
31.009497869018190385759 308.17357709382702069 31.009497869018190385759 112.88492162467575497
32.009497869018190385759 310.90614655760049345 32.009497869018190385759 113.51147073239557983
33.009497869018218807469 313.54870926198918824 33.009497869018218807469 114.10207557236169862
34.009497869018190385759 316.10622520041289363 34.009497869018190385759 114.67085256906609914
35.009497869018218807469 318.58312370572792815 35.009497869018218807469 115.21053334831734105
36.009497869018190385759 320.98350063507905361 36.009497869018190385759 115.73052109681641753
37.009497869018218807469 323.31115047993216649 37.009497869018218807469 116.22927105766441969
38.009497869018190385759 325.56968502803988486 38.009497869018190385759 116.70891256474497766
39.009497869018190385759 327.76240975459586480 39.009497869018190385759 117.17160536222861822
40.009497869018190385759 329.89241961054557351 40.009497869018190385759 117.61488232627598904
41.009497869018190385759 331.96268481528147731 41.009497869018190385759 118.04551143690609649
42.009497869018190385759 333.97592622660130246 42.009497869018190385759 118.45299527511726012
43.009497869018190385759 335.93471143559162329 43.009497869018190385759 118.85398423793890288
44.009497869018218807469 337.84151337384577118 44.009497869018218807469 119.22580698655399090
46.009497869018218807469 341.50835071414860522 46.009497869018218807469 119.93580661065470849
48.009497869018218807469 344.99221933811003282 48.009497869018218807469 120.58775124916724053
50.009497869018218807469 348.30567866515707465 50.009497869018218807469 121.15044703791228642
52.009497869018190385759 351.46125246963896416 52.009497869018190385759 121.64990037774782650
54.009497869018190385759 354.47085580886027856 54.009497869018190385759 122.09646951590157471
56.009497869018190385759 357.34393047525060183 56.009497869018190385759 122.49194840526222094
58.009497869018190385759 360.08861764844164099 58.009497869018190385759 122.83848777062507907
60.009497869018190385759 362.71302033461012115 60.009497869018190385759 123.20107746214712563
62.009497869018190385759 365.22395127790292690 62.009497869018190385759 123.54726224246519450
64.009497869018190385759 367.62855096672291211 64.009497869018190385759 123.87695071845702444
66.009497869018218807469 369.93644657911158902 66.009497869018218807469 124.22517830868517308
68.009497869018218807469 372.15597231569267933 68.009497869018218807469 124.57443267171071000
70.009497869018218807469 374.29208048125025243 70.009497869018218807469 124.86261061400587380
72.009497869018218807469 376.34994927631913697 72.009497869018218807469 125.05933079677679132
74.009497869018190385759 378.33438040860124829 74.009497869018190385759 125.23761153142717717
76.009497869018190385759 380.24924194914137843 76.009497869018190385759 125.39300102132476411
78.009497869018190385759 382.09949932659731076 78.009497869018190385759 125.58396437230040021
80.009497869018190385759 383.88822550808589540 80.009497869018190385759 125.67907124910594518
82.009497869018190385759 385.61537119924389572 82.009497869018190385759 125.80768505784119782
84.009497869018190385759 387.28171890379837805 84.009497869018190385759 125.90848300321606246
86.009497869018190385759 388.88864785923482259 86.009497869018190385759 125.88199883822849756
88.009497869018218807469 390.44019335918784464 88.009497869018218807469 125.89482264351150320
91.009497869018190385759 392.66733079572185261 91.009497869018190385759 125.84648798345337184
94.009497869018218807469 394.78213588638618603 94.009497869018218807469 125.88851297766612447
97.009497869018190385759 396.79984892815900821 97.009497869018190385759 126.08121269150520050
99.504748934509109403734 398.41502495039975429 99.504748934509109403734 126.17599110726139600
nan nan nan nan

