Time Pressure difference Time.1 Pressure.1 difference.1
(hr) (psi) (hr) (psi)
0.000200000000006639311 0.49636231024634248 0.000200000000006639311 0.39197444657195424
0.000399999999999067768 0.90092818176709133 0.000399999999999067768 0.77535927480272548
0.000600000000005707079 1.26077341375920438 0.000600000000005707079 1.03845787911613741
0.000799999999998135536 1.59033099265292543 0.000799999999998135536 1.27490708821125964
0.001007140329434719206 1.90772280117510329 0.001007140329434719206 1.49831187375176755
0.001267914553963578328 2.28032197033885886 0.001267914553963578328 1.75481824308904799
0.001596209851982166583 2.71583594521989236 0.001596209851982166583 2.04643881534676186
0.002009509145224797066 3.22272643281983395 0.002009509145224797066 2.37657722980515418
0.002529822128138903281 3.81026764315807354 0.002529822128138903281 2.74892704679668798
0.003184857364431081805 4.48862128076836697 0.003184857364431081805 3.16755365045744730
0.004009497869020606231 5.26893238750479487 0.004009497869020606231 3.63699247833979644
0.005047658755842121536 6.16344940733018465 0.005047658755842121536 4.16235993569491480
0.006354625877790454069 7.18567087692105755 0.006354625877790454069 4.74947284043265494
0.008000000000009777068 8.35052017195327423 0.008000000000009777068 5.40497277035558721
0.010071403294347192059 9.67454900306121068 0.010071403294347192059 6.13645290863118120
0.012679145539706837553 11.17616992935677978 0.012679145539706837553 6.95258516581736874
0.015962098519750611558 12.87591748238267719 0.015962098519750611558 7.86324168588170203
0.020095091452091651263 14.79673534650861910 0.020095091452091651263 8.87960023367380202
0.025298221281360611101 16.96428419995530845 0.025298221281360611101 10.01423757437766682
0.031848573644296607199 19.40726934250531599 0.031848573644296607199 11.28127198511594642
0.040094978690177640601 22.15781056279841010 0.040094978690177640601 12.69667011171911319
0.050476587558421215363 25.25190597400971626 0.050476587558421215363 14.27872193161375236
0.063546258777961384112 28.73001335571454717 0.063546258777961384112 16.04828623685331124
0.079999999999998294697 32.63761683145747838 0.079999999999998294697 18.02794454284707371
0.100714032943542974863 37.02540462674230071 0.100714032943542974863 20.23928088676567683
0.126791455396897845276 41.94856482331800152 0.126791455396897845276 22.69840115824294458
0.159620985197506115583 47.46487694078982855 0.159620985197506115583 25.41125068836693046
0.200950914520760193227 53.63182361579452362 0.200950914520760193227 28.37101720625800994
0.252982212813478213320 60.50345196107155488 0.252982212813478213320 31.55968275591138195
0.318485736442795541734 68.12815514008623552 0.318485736442795541734 34.95125213525343355
0.400949786901833249431 76.54696304467401546 0.400949786901833249431 38.52220048172002009
0.504765875584155310207 85.79604467046432603 0.504765875584155310207 42.25496815864669742
0.635462587779443310865 95.90649901415675060 0.635462587779443310865 46.14272694818924236
0.799999999999997157829 106.90888457342271067 0.799999999999997157829 50.19627408796837642
1.007140329435344483500 118.83595305222269189 1.007140329435344483500 54.45263811680155897
1.267914553968893187630 131.73076906662714691 1.267914553968893187630 58.92690233379435227
1.596209851975103788391 145.62712158834850129 1.596209851975103788391 63.70718601452335150
2.009509145207672986544 160.60007713855318912 2.009509145207672986544 68.83249233605847905
2.529822128134711078928 176.69060024296058486 2.529822128134711078928 74.39087366211448682
3.184857364427998049905 193.99862490423944905 3.184857364427998049905 80.50434528375438958
4.009497869018190385759 212.60056768904698288 4.009497869018190385759 87.20340689424638470
5.009497869018204596614 231.90347376456898587 5.009497869018204596614 94.27924334994396816
6.009497869018204596614 248.68581723169774023 6.009497869018204596614 100.49091997761205164
7.009497869018204596614 263.59996910120617031 7.009497869018204596614 106.02327696572245941
8.009497869018204596614 277.05534497545858130 8.009497869018204596614 110.98111572204308573
9.009497869018204596614 289.32874305199555920 9.009497869018204596614 115.45668925020605400
10.009497869018190385759 300.61829979093937482 10.009497869018190385759 119.51085975804384987
11.009497869018190385759 311.07212828350242262 11.009497869018190385759 123.16850347791033471
12.009497869018190385759 320.80482852488700019 12.009497869018190385759 126.50963537785530377
13.009497869018190385759 329.90701345383916987 13.009497869018190385759 129.56958498788654310
14.009497869018190385759 338.45294738604644635 14.009497869018190385759 132.37411249537325375
15.009497869018190385759 346.50251824204406148 15.009497869018190385759 134.95399805058124798
16.009497869018204596614 354.10543258936235134 16.009497869018204596614 137.33592674113060639
17.009497869018204596614 361.30529705942984720 17.009497869018204596614 139.54449613377116179
18.009497869018204596614 368.13989426141750982 18.009497869018204596614 141.60601711788001467
19.009497869018204596614 374.64131946839899001 19.009497869018204596614 143.52598048633015537
20.009497869018204596614 380.83859458037977674 20.009497869018204596614 145.31478743231136264
21.009497869018204596614 386.75542123464396127 21.009497869018204596614 146.98080770282959406
22.009497869018190385759 392.41204766562128725 22.009497869018190385759 148.53889668698772653
23.009497869018190385759 397.82705270116713336 23.009497869018190385759 149.99399395472718766
24.009497869018190385759 403.01759461420317621 24.009497869018190385759 151.36259315067837861
25.009497869018190385759 407.99980277464567280 25.009497869018190385759 152.65174325517995157
26.009497869018190385759 412.78786693344153491 26.009497869018190385759 153.86859245459322665
27.009497869018204596614 417.39473383591069933 27.009497869018204596614 155.02235455538456677
28.009497869018190385759 421.83162466701855919 28.009497869018190385759 156.11529830054209356
29.009497869018190385759 426.10859516564585192 29.009497869018190385759 157.14201273645957713
30.009497869018190385759 430.23498407903747420 30.009497869018190385759 158.12491309344360957
31.009497869018190385759 434.21934646373466649 31.009497869018190385759 159.05587155044403858
32.009497869018190385759 438.06956145593437668 32.009497869018190385759 159.93868488780782400
33.009497869018218807469 441.79295611328922178 33.009497869018218807469 160.77085242808442445
34.009497869018190385759 445.39651911121239891 34.009497869018190385759 161.57226434055800723
35.009497869018218807469 448.88649141960229372 35.009497869018218807469 162.33267942051199384
36.009497869018190385759 452.26864413807533083 36.009497869018190385759 163.06534684272151026
37.009497869018218807469 455.54832373929173173 37.009497869018218807469 163.76809003079921467
38.009497869018190385759 458.73061926473366157 38.009497869018190385759 164.44390923537042681
39.009497869018190385759 461.82018815872794448 39.009497869018190385759 165.09584755542843482
40.009497869018190385759 464.82139123503901601 40.009497869018190385759 165.72042879125731929
41.009497869018190385759 467.73841355954976962 41.009497869018190385759 166.32718908767671451
42.009497869018190385759 470.57508884540942518 42.009497869018190385759 166.90133748674182357
43.009497869018190385759 473.33503485159030788 43.009497869018190385759 167.46633454787064466
44.009497869018218807469 476.02173596098629105 44.009497869018218807469 167.99023615042381152
46.009497869018218807469 481.18834280804355785 46.009497869018218807469 168.99063201717476090
48.009497869018218807469 486.09714508540918132 48.009497869018218807469 169.90922788621401196
50.009497869018218807469 490.76583912820325395 50.009497869018218807469 170.70207132188724586
52.009497869018190385759 495.21207104731109894 52.009497869018190385759 171.40580557729512634
54.009497869018190385759 499.45262926581762031 54.009497869018190385759 172.03502551609915372
56.009497869018190385759 503.50081735431706420 56.009497869018190385759 172.59225883408120694
58.009497869018190385759 507.36810630825465296 58.009497869018190385759 173.08053592185370917
60.009497869018190385759 511.06591333633360819 60.009497869018190385759 173.59142806378207524
62.009497869018190385759 514.60383765643257448 62.009497869018190385759 174.07920553803205621
64.009497869018190385759 517.99194028104022891 64.009497869018190385759 174.54373957087096869
66.009497869018218807469 521.24378599074827889 66.009497869018218807469 175.03439538268790443
68.009497869018218807469 524.37111774931838681 68.009497869018218807469 175.52649792662660388
70.009497869018218807469 527.38091339880668329 70.009497869018218807469 175.93254324351821083
72.009497869018218807469 530.28046907041721170 72.009497869018218807469 176.20972375329631632
74.009497869018190385759 533.07655041356065340 74.009497869018190385759 176.46092291455144618
76.009497869018190385759 535.77460757518656465 76.009497869018190385759 176.67986810572247691
78.009497869018190385759 538.38163688900738180 78.009497869018190385759 176.94893718763768220
80.009497869018190385759 540.90196819337495526 80.009497869018190385759 177.08294363387540216
82.009497869018190385759 543.33553203208771265 82.009497869018190385759 177.26416164906635231
84.009497869018190385759 545.68343095994657688 84.009497869018190385759 177.40618686218908806
86.009497869018190385759 547.94760833499401542 86.009497869018190385759 177.36887043512555806
88.009497869018218807469 550.13374992231513261 88.009497869018218807469 177.38693929229910395
91.009497869018190385759 553.27180663469289357 91.009497869018190385759 177.31883532082980537
94.009497869018218807469 556.25158605973695103 94.009497869018218807469 177.37804891627911275
97.009497869018190385759 559.09456191318975016 97.009497869018190385759 177.64956454911182959
99.504748934509109403734 561.37035947966239746 99.504748934509109403734 177.78310819077191240
nan nan nan nan

