Time Pressure difference Time.1 Pressure.1 difference.1
(hr) (psi) (hr) (psi)
0.000200000000006639311 0.35989441164920227 0.000200000000006639311 0.28420653606943486
0.000399999999999067768 0.65323053588483471 0.000399999999999067768 0.56218504963317817
0.000600000000005707079 0.91414133708627743 0.000600000000005707079 0.75294835992180298
0.000799999999998135536 1.15309165324067608 0.000799999999998135536 0.92438915475164218
0.001007140329434719206 1.38322100801315018 0.001007140329434719206 1.08637190846195919
0.001267914553963578328 1.65337922913316238 0.001267914553963578328 1.27235542689448877
0.001596209851982166583 1.96915470708398832 0.001596209851982166583 1.48379898759797180
0.002009509145224797066 2.33668272047167003 0.002009509145224797066 1.72317044667458119
0.002529822128138903281 2.76268766454044457 0.002529822128138903281 1.99314787152649919
0.003184857364431081805 3.25453742480263974 0.003184857364431081805 2.29667892558743292
0.004009497869020606231 3.82031286920104707 0.004009497869020606231 2.63705209107246086
0.005047658755842121536 4.46889490275730772 0.005047658755842121536 3.01797708892457317
0.006354625877790454069 5.21007082763969276 0.006354625877790454069 3.44367148404771806
0.008000000000009777068 6.05466104539323080 0.008000000000009777068 3.91895084500206892
0.010071403294347192059 7.01466660452136370 0.010071403294347192059 4.44932071508168736
0.012679145539706837553 8.10343778765382794 0.012679145539706837553 5.04106878391105884
0.015962098519750611558 9.33586344310866778 0.015962098519750611558 5.70135298707790916
0.020095091452091651263 10.72857920904141338 0.020095091452091651263 6.43827791878906108
0.025298221281360611101 12.30019071787041085 0.025298221281360611101 7.26096253794390911
0.031848573644296607199 14.07151114731523656 0.031848573644296607199 8.17964349815951586
0.040094978690177640601 16.06582939783465136 0.040094978690177640601 9.20589763854825804
0.050476587558421215363 18.30924640315026863 0.050476587558421215363 10.35298636218030310
0.063546258777961384112 20.83109664026872920 0.063546258777961384112 11.63603362697676147
0.079999999999998294697 23.66435900695190142 0.079999999999998294697 13.07141247544026719
0.100714032943542974863 26.84578570762517202 0.100714032943542974863 14.67477271457306642
0.126791455396897845276 30.41539163020627612 0.126791455396897845276 16.45779214414801572
0.159620985197506115583 34.41507062075169898 0.159620985197506115583 18.42478150934022096
0.200950914520760193227 38.88650126618350100 0.200950914520760193227 20.57080147819474547
0.252982212813478213320 43.86887117893551391 0.252982212813478213320 22.88278788056490143
0.318485736442795541734 49.39726849671213671 0.318485736442795541734 25.34189253284999666
0.400949786901833249431 55.50144251448870847 0.400949786901833249431 27.93105840554380137
0.504765875584155310207 62.20761806669215588 0.504765875584155310207 30.63755363932567732
0.635462587779443310865 69.53834391435663065 0.635462587779443310865 33.45642733967173399
0.799999999999997157829 77.51577692216199011 0.799999999999997157829 36.39550819421748429
1.007140329435344483500 86.16366416957833962 1.007140329435344483500 39.48164426115918957
1.267914553968893187630 95.51323025674884093 1.267914553968893187630 42.72577189675370590
1.596209851975103788391 105.58897434858515396 1.596209851975103788391 46.19178321001885479
2.009509145207672986544 116.44532447258266927 2.009509145207672986544 49.90795799813958666
2.529822128134711078928 128.11198252910313045 2.529822128134711078928 53.93813985475564721
3.184857364427998049905 140.66140705972347291 3.184857364427998049905 58.37079766737690534
4.009497869018190385759 154.14900496123996732 4.009497869018190385759 63.22804566373108059
5.009497869018204596614 168.14484606714913184 5.009497869018204596614 68.35847951332253558
6.009497869018204596614 180.31311812068108225 6.009497869018204596614 72.86234223440669666
7.009497869018204596614 191.12683181634767493 7.009497869018204596614 76.87365478205195757
8.009497869018204596614 200.88283964333123777 8.009497869018204596614 80.46840487774734640
9.009497869018204596614 209.78183799294308187 9.009497869018204596614 83.71348184765581379
10.009497869018190385759 217.96748846734351446 10.009497869018190385759 86.65301468390136108
11.009497869018190385759 225.54718252780801890 11.009497869018190385759 89.30504024549254893
12.009497869018190385759 232.60401249822371028 12.009497869018190385759 91.72757450031195958
13.009497869018190385759 239.20367855284760594 13.009497869018190385759 93.94623361653667359
14.009497869018190385759 245.40002706891095841 14.009497869018190385759 95.97969537708010535
15.009497869018190385759 251.23648061795267949 15.009497869018190385759 97.85027735892528256
16.009497869018204596614 256.74907963960163215 16.009497869018204596614 99.57732795680441029
17.009497869018204596614 261.96944172979118548 17.009497869018204596614 101.17868197934558339
18.009497869018204596614 266.92496169593829336 18.009497869018204596614 102.67341650362911309
19.009497869018204596614 271.63891066314857881 19.009497869018204596614 104.06551270556163047
20.009497869018204596614 276.13233136454647365 20.009497869018204596614 105.36251211524366056
21.009497869018204596614 280.42240900261265324 21.009497869018204596614 106.57048333440457100
22.009497869018190385759 284.52382484195300094 22.009497869018190385759 107.70019746997702725
23.009497869018190385759 288.45004972066720939 23.009497869018190385759 108.75523602599784567
24.009497869018190385759 292.21352448369981403 24.009497869018190385759 109.74755794940490716
25.009497869018190385759 295.82594395552951028 25.009497869018190385759 110.68227420164581076
26.009497869018190385759 299.29759661286618666 26.009497869018190385759 111.56456767487770776
27.009497869018204596614 302.63786967386363358 27.009497869018204596614 112.40111896790671153
28.009497869018190385759 305.85489921508894895 28.009497869018190385759 113.19357306445954237
29.009497869018190385759 308.95597629018055841 29.009497869018190385759 113.93800667720279307
30.009497869018190385759 311.94787208799772316 30.009497869018190385759 114.65067228130759247
31.009497869018190385759 314.83678957153136935 31.009497869018190385759 115.32567668683090290
32.009497869018190385759 317.62844161830537359 32.009497869018190385759 115.96577280228521545
33.009497869018218807469 320.32814081359975944 33.009497869018218807469 116.56914747662898435
34.009497869018190385759 322.94095439393538527 34.009497869018190385759 117.15022235434319953
35.009497869018218807469 325.47140746152746260 35.009497869018218807469 117.70157190719987739
36.009497869018190385759 327.92368443259425703 36.009497869018190385759 118.23280263404488721
37.009497869018218807469 330.30166184166034782 37.009497869018218807469 118.74233637783012796
38.009497869018190385759 332.60902956918664586 38.009497869018190385759 119.23234851209082308
39.009497869018190385759 334.84916456010068941 39.009497869018190385759 119.70504547816869945
40.009497869018190385759 337.02522868320602356 40.009497869018190385759 120.15790680900626342
41.009497869018190385759 339.14025637885515607 41.009497869018190385759 120.59784681932569583
42.009497869018190385759 341.19702733420353979 42.009497869018190385759 121.01414111890358072
43.009497869018190385759 343.19816465582061937 43.009497869018190385759 121.42380011335379209
44.009497869018218807469 345.14619474409107625 44.009497869018218807469 121.80366227274976154
46.009497869018218807469 348.89231505391393284 46.009497869018218807469 122.52901324007427775
48.009497869018218807469 352.45151056704219172 48.009497869018218807469 123.19505397887895981
50.009497869018218807469 355.83661225791718152 50.009497869018218807469 123.76991616305633670
52.009497869018190385759 359.06041468519873661 52.009497869018190385759 124.28016849402345656
54.009497869018190385759 362.13509052905186536 54.009497869018190385759 124.73639318111025887
56.009497869018190385759 365.07028572876953376 56.009497869018190385759 125.14042296537601828
58.009497869018190385759 367.87431748948904442 58.009497869018190385759 125.49445507377372167
60.009497869018190385759 370.55546401752059182 60.009497869018190385759 125.86488454240978285
62.009497869018190385759 373.12068535958729854 62.009497869018190385759 126.21855439905904461
64.009497869018190385759 375.57727639303044498 64.009497869018190385759 126.55537127453177959
66.009497869018218807469 377.93507245109242376 66.009497869018218807469 126.91112810995403493
68.009497869018218807469 380.20258793332925507 68.009497869018218807469 127.26793391866659988
70.009497869018218807469 382.38488222138539641 70.009497869018218807469 127.56234273538979096
72.009497869018218807469 384.48724547688823350 72.009497869018218807469 127.76331632751791290
74.009497869018190385759 386.51458322824674951 74.009497869018190385759 127.94545178075533443
76.009497869018190385759 388.47084718047415208 76.009497869018190385759 128.10420104340747116
78.009497869018190385759 390.36111012284806066 78.009497869018190385759 128.29929333170147743
80.009497869018190385759 392.18851146501748417 80.009497869018190385759 128.39645657341091578
82.009497869018190385759 393.95300084679507790 82.009497869018190385759 128.52785122125399653
84.009497869018190385759 395.65537769090747133 84.009497869018190385759 128.63082858166396250
86.009497869018190385759 397.29705105619126471 86.009497869018190385759 128.60377178608209192
88.009497869018218807469 398.88214348587297309 88.009497869018218807469 128.61687286283068943
91.009497869018190385759 401.15743524535912456 91.009497869018190385759 128.56749312904156568
94.009497869018218807469 403.31796585149726297 94.009497869018218807469 128.61042677177783844
97.009497869018190385759 405.37930512120027515 97.009497869018190385759 128.80729296591613320
99.504748934509109403734 407.02940386824622010 99.504748934509109403734 128.90412064471573217
nan nan nan nan

