Time Pressure difference Time.1 Pressure.1 difference.1
(hr) (psi) (hr) (psi)
0.000200000000006639311 0.16756988478904658 0.000200000000006639311 0.13232896917518661
0.000399999999999067768 0.30414966750193362 0.000399999999999067768 0.26175811834772317
0.000600000000005707079 0.42563194531001275 0.000600000000005707079 0.35057913054560141
0.000799999999998135536 0.53688923537132016 0.000799999999998135536 0.43040341596901860
0.001007140329434719206 0.64403941113839802 0.001007140329434719206 0.50582395737911334
0.001267914553963578328 0.76982736594559942 0.001267914553963578328 0.59241945802494722
0.001596209851982166583 0.91685510171106344 0.001596209851982166583 0.69086936988688630
0.002009509145224797066 1.08797925609262935 0.002009509145224797066 0.80232274765800604
0.002529822128138903281 1.28633076444211181 0.002529822128138903281 0.92802652219223236
0.003184857364431081805 1.51534017662768417 0.003184857364431081805 1.06935315053806401
0.004009497869020606231 1.77877001317297445 0.004009497869020606231 1.22783377785384418
0.005047658755842121536 2.08075529863832331 0.005047658755842121536 1.40519568161567432
0.006354625877790454069 2.42585308376874575 0.006354625877790454069 1.60340259574708544
0.008000000000009777068 2.81910143912489053 0.008000000000009777068 1.82469668973641319
0.010071403294347192059 3.26608815448613754 0.010071403294347192059 2.07164139114914558
0.012679145539706837553 3.77302923446315841 0.012679145539706837553 2.34716430150356148
0.015962098519750611558 4.34685705287599333 0.015962098519750611558 2.65459821620558722
0.020095091452091651263 4.99531730368065929 0.020095091452091651263 2.99771670292824011
0.025298221281360611101 5.72707292683913316 0.025298221281360611101 3.38076562613261400
0.031848573644296607199 6.55181471409386695 0.031848573644296607199 3.80851125840231441
0.040094978690177640601 7.48038617465317035 0.040094978690177640601 4.28634387403305084
0.050476587558421215363 8.52494012421811398 0.050476587558421215363 4.82043809456014127
0.063546258777961384112 9.69913494361718875 0.063546258777961384112 5.41783576282515966
0.079999999999998294697 11.01832588683474867 0.079999999999998294697 6.08616030602509817
0.100714032943542974863 12.49962509138103073 0.100714032943542974863 6.83269840678534379
0.126791455396897845276 14.16166382782091127 0.126791455396897845276 7.66288734753981782
0.159620985197506115583 16.02394822553518239 0.159620985197506115583 8.57873424773512916
0.200950914520760193227 18.10588418742935346 0.200950914520760193227 9.57793931259861253
0.252982212813478213320 20.42571779759960648 0.252982212813478213320 10.65441975391381924
0.318485736442795541734 22.99978639000353553 0.318485736442795541734 11.79939969783491982
0.400949786901833249431 25.84194148822754755 0.400949786901833249431 13.00493724702568699
0.504765875584155310207 28.96439359718999995 0.504765875584155310207 14.26510434000348937
0.635462587779443310865 32.37764161091737236 0.635462587779443310865 15.57759579836567632
0.799999999999997157829 36.09200195317595927 0.799999999999997157829 16.94605672534994056
1.007140329435344483500 40.11853146520049762 1.007140329435344483500 18.38298780413761335
1.267914553968893187630 44.47176858515290121 1.267914553968893187630 19.89348109478479287
1.596209851975103788391 49.16312033161636919 1.596209851975103788391 21.50728530413576323
2.009509145207672986544 54.21792885495913339 2.009509145207672986544 23.23756774516552071
2.529822128134711078928 59.65002361143426413 2.529822128134711078928 25.11405453554760214
3.184857364427998049905 65.49314191140562968 3.184857364427998049905 27.17793753824956582
4.009497869018190385759 71.77308167507469250 4.009497869018190385759 29.43951332491182171
5.009497869018204596614 78.28966377729695125 5.009497869018204596614 31.82828675752583791
6.009497869018204596614 83.95531425724833241 6.009497869018204596614 33.92532336840100271
7.009497869018204596614 88.99027089861691309 7.009497869018204596614 35.79302444878609890
8.009497869018204596614 93.53275073340292067 8.009497869018204596614 37.46677052508871242
9.009497869018204596614 97.67619970041793920 9.009497869018204596614 38.97770583382915532
10.009497869018190385759 101.48750785781074057 10.009497869018190385759 40.34637720731915067
11.009497869018190385759 105.01667757908521139 11.009497869018190385759 41.58118275980604750
12.009497869018190385759 108.30239735367028686 12.009497869018190385759 42.70913521707647220
13.009497869018190385759 111.37525773889200309 13.009497869018190385759 43.74216168389008885
14.009497869018190385759 114.26033006383154600 14.009497869018190385759 44.68895869409021060
15.009497869018190385759 116.97783224539595892 15.009497869018190385759 45.55991750045198074
16.009497869018204596614 119.54454501738064209 16.009497869018204596614 46.36404687935866775
17.009497869018204596614 121.97518980011443546 17.009497869018204596614 47.10965086869000373
18.009497869018204596614 124.28252184784427925 18.009497869018204596614 47.80561191703365864
19.009497869018204596614 126.47737639342368254 19.009497869018204596614 48.45378369359482917
20.009497869018204596614 128.56955111153487792 20.009497869018204596614 49.05767759863196886
21.009497869018204596614 130.56704757793607996 21.009497869018204596614 49.62011922448467516
22.009497869018190385759 132.47670151371357861 22.009497869018190385759 50.14612368972476020
23.009497869018190385759 134.30478505512547827 23.009497869018190385759 50.63735857295137777
24.009497869018190385759 136.05709076489725362 24.009497869018190385759 51.09939206109857679
25.009497869018190385759 137.73906385231003924 25.009497869018190385759 51.53460386108376667
26.009497869018190385759 139.35549471921814302 26.009497869018190385759 51.94540717137163455
27.009497869018204596614 140.91075413386244009 27.009497869018204596614 52.33491253532163512
28.009497869018190385759 142.40863032236944719 28.009497869018190385759 52.70388587128275049
29.009497869018190385759 143.85251806103642025 29.009497869018190385759 53.05050046345949966
30.009497869018190385759 145.24557007271852171 30.009497869018190385759 53.38232360187866021
31.009497869018190385759 146.59067450949609679 31.009497869018190385759 53.69661136741333252
32.009497869018190385759 147.89049133550724946 32.009497869018190385759 53.99464553757194807
33.009497869018218807469 149.14749413543268020 33.009497869018218807469 54.27558189388016530
34.009497869018190385759 150.36404225749370767 34.009497869018190385759 54.54613527609630808
35.009497869018218807469 151.54224262758953046 35.009497869018218807469 54.80284829541581360
36.009497869018190385759 152.68404354533490164 36.009497869018190385759 55.05019381902619102
37.009497869018218807469 153.79124995802175135 37.009497869018218807469 55.28743704364577383
38.009497869018190385759 154.86557990522979367 38.009497869018190385759 55.51559084160842161
39.009497869018190385759 155.90860572110508997 39.009497869018190385759 55.73568255068172306
40.009497869018190385759 156.92179959852978754 40.009497869018190385759 55.94653862006641276
41.009497869018190385759 157.90657439862039269 41.009497869018190385759 56.15137841323101497
42.009497869018190385759 158.86422436724819818 42.009497869018190385759 56.34520856329902472
43.009497869018190385759 159.79597084503816973 43.009497869018190385759 56.53594925912769042
44.009497869018218807469 160.70299014539691029 44.009497869018218807469 56.71281629630675525
46.009497869018218807469 162.44721547483823088 46.009497869018218807469 57.05054584723034594
48.009497869018218807469 164.10440703650641581 48.009497869018218807469 57.36066005365793075
50.009497869018218807469 165.68053904072334603 50.009497869018218807469 57.62832075316909197
52.009497869018190385759 167.18156874231473807 52.009497869018190385759 57.86589855806383298
54.009497869018190385759 168.61316384421462544 54.009497869018190385759 58.07832063459102301
56.009497869018190385759 169.97981557741650249 56.009497869018190385759 58.26644032250311511
58.009497869018190385759 171.28539650304253428 58.009497869018190385759 58.43128066927030773
60.009497869018190385759 172.53376102403078107 60.009497869018190385759 58.60375576577809653
62.009497869018190385759 173.72814979705654537 62.009497869018190385759 58.76842744506452476
64.009497869018190385759 174.87195937876549579 64.009497869018190385759 58.92525223364442866
66.009497869018218807469 175.96976918357742647 66.009497869018218807469 59.09089562791510275
68.009497869018218807469 177.02554358800514933 68.009497869018218807469 59.25702743302995401
70.009497869018218807469 178.04163828297308214 70.009497869018218807469 59.39410667044604253
72.009497869018218807469 179.02051641251938463 72.009497869018218807469 59.48768167630463921
74.009497869018190385759 179.96446203219952054 74.009497869018190385759 59.57248548521940990
76.009497869018190385759 180.87531508932130464 76.009497869018190385759 59.64640048581935616
78.009497869018190385759 181.75543751751655464 78.009497869018190385759 59.73723710682396870
80.009497869018190385759 182.60629105249489612 80.009497869018190385759 59.78247713470985758
82.009497869018190385759 183.42785224612683237 82.009497869018190385759 59.84365559508122345
84.009497869018190385759 184.22049331640138803 84.009497869018190385759 59.89160272585412059
86.009497869018190385759 184.98487033304144234 86.009497869018190385759 59.87900485277896223
88.009497869018218807469 185.72290278707311018 88.009497869018218807469 59.88510482502169197
91.009497869018190385759 186.78229789201907352 91.009497869018190385759 59.86211320293998739
94.009497869018218807469 187.78825923244315277 94.009497869018218807469 59.88210347045740178
97.009497869018190385759 188.74803624690807169 97.009497869018190385759 59.97376603704031339
99.504748934509109403734 189.51633619262256047 99.504748934509109403734 60.01884982399462132
nan nan nan nan

