Time Pressure difference Time.1 Pressure.1 difference.1
(hr) (psi) (hr) (psi)
0.000200000000006639311 0.18851612038767740 0.000200000000006639311 0.14887009032208492
0.000399999999999067768 0.34216837593967531 0.000399999999999067768 0.29447788314118856
0.000600000000005707079 0.47883593847376438 0.000600000000005707079 0.39440152186380156
0.000799999999998135536 0.60400038979273518 0.000799999999998135536 0.48420384296514596
0.001007140329434719206 0.72454433753069769 0.001007140329434719206 0.56905195205150250
0.001267914553963578328 0.86605578668879935 0.001267914553963578328 0.66647189027806564
0.001596209851982166583 1.03146198942494638 0.001596209851982166583 0.77722804112274713
0.002009509145224797066 1.22397666310420794 0.002009509145224797066 0.90261309111525689
0.002529822128138903281 1.44712210999737589 0.002529822128138903281 1.04402983746626155
0.003184857364431081805 1.70475769870614458 0.003184857364431081805 1.20302229435532215
0.004009497869020606231 2.00111626481959615 0.004009497869020606231 1.38131300008557467
0.005047658755842121536 2.34084971096811367 0.005047658755842121536 1.58084514181763369
0.006354625877790454069 2.72908471923983909 0.006354625877790454069 1.80382792021547123
0.008000000000009777068 3.17148911901550212 0.008000000000009777068 2.05278377595346484
0.010071403294347192059 3.67434917379690473 0.010071403294347192059 2.33059656504278889
0.012679145539706837553 4.24465788877105332 0.012679145539706837553 2.64055983919150705
0.015962098519750611558 4.89021418448549205 0.015962098519750611558 2.98642299323128579
0.020095091452091651263 5.61973196664074148 0.020095091452091651263 3.37243129079426973
0.025298221281360611101 6.44295704269402414 0.025298221281360611101 3.80336132939919080
0.031848573644296607199 7.37079155335560010 0.031848573644296607199 4.28457516570260388
0.040094978690177640601 8.41543444648481653 0.040094978690177640601 4.82213685828718308
0.050476587558421215363 9.59055763974537889 0.050476587558421215363 5.42299285638015949
0.063546258777961384112 10.91152681156933646 0.063546258777961384112 6.09506523317830418
0.079999999999998294697 12.39561662268909181 0.079999999999998294697 6.84693034427823566
0.100714032943542974863 14.06207822780366179 0.100714032943542974863 7.68678570763351221
0.126791455396897845276 15.93187180629852406 0.126791455396897845276 8.62074826598229471
0.159620985197506115583 18.02694175372708330 0.159620985197506115583 9.65107602870201831
0.200950914520760193227 20.36911971085802264 0.200950914520760193227 10.77518172667343777
0.252982212813478213320 22.97893252229955507 0.252982212813478213320 11.98622222315304597
0.318485736442795541734 25.87475968875397569 0.318485736442795541734 13.27432466006428236
0.400949786901833249431 29.07218417425599100 0.400949786901833249431 14.63055440290389697
0.504765875584155310207 32.58494279683875305 0.504765875584155310207 16.04824238250392199
0.635462587779443310865 36.42484681228204124 0.635462587779443310865 17.52479527316138430
0.799999999999997157829 40.60350219732294619 0.799999999999997157829 19.06431381601868225
1.007140329435344483500 45.13334789835055716 1.007140329435344483500 20.68086127965481325
1.267914553968893187630 50.03073965829700853 1.267914553968893187630 22.38016623163289154
1.596209851975103788391 55.30851037306840823 1.596209851975103788391 24.19569596715273363
2.009509145207672986544 60.99516996182901352 2.009509145207672986544 26.14226371331120902
2.529822128134711078928 67.10627656286354181 2.529822128134711078928 28.25331135249105330
3.184857364427998049905 73.67978465033134228 3.184857364427998049905 30.57517973053075977
4.009497869018190385759 80.74471688445902373 4.009497869018190385759 33.11945249052580920
5.009497869018204596614 88.07587174945906838 5.009497869018204596614 35.80682260221657032
6.009497869018204596614 94.44972853940438995 6.009497869018204596614 38.16598878945112716
7.009497869018204596614 100.11405476094402900 7.009497869018204596614 40.26715250488435771
8.009497869018204596614 105.22434457507826266 8.009497869018204596614 42.15011684072480591
9.009497869018204596614 109.88572466297017627 9.009497869018204596614 43.84991906305780418
10.009497869018190385759 114.17344634003708848 10.009497869018190385759 45.38967435823404628
11.009497869018190385759 118.14376227647088058 11.009497869018190385759 46.77883060478180255
12.009497869018190385759 121.84019702287906739 12.009497869018190385759 48.04777711921102679
13.009497869018190385759 125.29716495625349637 13.009497869018190385759 49.20993189437635351
14.009497869018190385759 128.54287132181050879 14.009497869018190385759 50.27507853085148781
15.009497869018190385759 131.60006127607044846 15.009497869018190385759 51.25490718800848100
16.009497869018204596614 134.48761314455322236 16.009497869018204596614 52.15955273927849589
17.009497869018204596614 137.22208852512869726 17.009497869018204596614 52.99835722727625864
18.009497869018204596614 139.81783707882482304 18.009497869018204596614 53.78131340666286775
19.009497869018204596614 142.28704844260167306 19.009497869018204596614 54.51050665529418637
20.009497869018204596614 144.64074500047672700 20.009497869018204596614 55.18988729846095964
21.009497869018204596614 146.88792852517806864 21.009497869018204596614 55.82263412754524978
22.009497869018190385759 149.03628920292777593 22.009497869018190385759 56.41438915094035167
23.009497869018190385759 151.09288318701615594 23.009497869018190385759 56.96702839457030620
24.009497869018190385759 153.06422711050939256 24.009497869018190385759 57.48681606873590511
25.009497869018190385759 154.95644683384878704 25.009497869018190385759 57.97642934371923928
26.009497869018190385759 156.77493155912040379 26.009497869018190385759 58.43858306779308975
27.009497869018204596614 158.52459840059523799 27.009497869018204596614 58.87677660223685194
28.009497869018190385759 160.20970911266564940 28.009497869018190385759 59.29187160519309430
29.009497869018190385759 161.83408281866599054 29.009497869018190385759 59.68181302139193889
30.009497869018190385759 163.40126633180832982 30.009497869018190385759 60.05511405211349540
31.009497869018190385759 164.91450882318309823 31.009497869018190385759 60.40868778833999642
32.009497869018190385759 166.37680275244565564 32.009497869018190385759 60.74397622976844247
33.009497869018218807469 167.79093090236176522 33.009497869018218807469 61.06002963061518329
34.009497869018190385759 169.15954753968040336 34.009497869018190385759 61.36440218560834126
35.009497869018218807469 170.48502295603819334 35.009497869018218807469 61.65320433234279562
36.009497869018190385759 171.76954898850175368 36.009497869018190385759 61.93146804640446135
37.009497869018218807469 173.01515620277447738 37.009497869018218807469 62.19836667410150000
38.009497869018190385759 174.22377739338350011 38.009497869018190385759 62.45503969680947876
39.009497869018190385759 175.39718143624321556 39.009497869018190385759 62.70264286951693578
40.009497869018190385759 176.53702454834601099 40.009497869018190385759 62.93985594757471347
41.009497869018190385759 177.64489619844792401 41.009497869018190385759 63.17030071488488829
42.009497869018190385759 178.72225241315419453 42.009497869018190385759 63.38835963371140281
43.009497869018190385759 179.77046720066795160 43.009497869018190385759 63.60294291651865706
44.009497869018218807469 180.79086391357151342 44.009497869018218807469 63.80191833334509965
46.009497869018218807469 182.75311740919303816 46.009497869018218807469 64.18186407813415428
48.009497869018218807469 184.61745791606969647 48.009497869018218807469 64.53074256036516942
50.009497869018218807469 186.39060642081378205 50.009497869018218807469 64.83186084731524090
52.009497869018190385759 188.07926483510408389 52.009497869018190385759 65.09913587782180855
54.009497869018190385759 189.68980932474144652 54.009497869018190385759 65.33811071391490088
56.009497869018190385759 191.22729252459356530 56.009497869018190385759 65.54974536281601161
58.009497869018190385759 192.69607106592283685 58.009497869018190385759 65.73519075292909974
60.009497869018190385759 194.10048115203463226 60.009497869018190385759 65.92922523650035771
62.009497869018190385759 195.44416852168862420 62.009497869018190385759 66.11448087569759480
64.009497869018190385759 196.73095430111118276 64.009497869018190385759 66.29090876284998046
66.009497869018218807469 197.96599033152460834 66.009497869018218807469 66.47725758140448704
68.009497869018218807469 199.15373653650581787 68.009497869018218807469 66.66415586215869382
70.009497869018218807469 200.29684306834471386 70.009497869018218807469 66.81837000425180406
72.009497869018218807469 201.39808096408430060 72.009497869018218807469 66.92364188584271290
74.009497869018190385759 202.46001978622447837 74.009497869018190385759 67.01904617087183169
76.009497869018190385759 203.48472947548646061 76.009497869018190385759 67.10220054654678279
78.009497869018190385759 204.47486720720613107 78.009497869018190385759 67.20439174517696301
80.009497869018190385759 205.43207743405676524 80.009497869018190385759 67.25528677654858711
82.009497869018190385759 206.35633377689265444 82.009497869018190385759 67.32411254446637372
84.009497869018190385759 207.24805498095156508 84.009497869018190385759 67.37805306658589188
86.009497869018190385759 208.10797912467162973 86.009497869018190385759 67.36388045937633251
88.009497869018218807469 208.93826563545727026 88.009497869018218807469 67.37074292814941145
91.009497869018190385759 210.13008512852144349 91.009497869018190385759 67.34487735330748137
94.009497869018218807469 211.26179163649857173 94.009497869018218807469 67.36736640426457257
97.009497869018190385759 212.34154077777156999 97.009497869018190385759 67.47048679167035345
99.504748934509109403734 213.20587821670039830 99.504748934509109403734 67.52120605199394276
nan nan nan nan

