Time Pressure difference Time.1 Pressure.1 difference.1
(hr) (psi) (hr) (psi)
0.000200000000006639311 0.21327076245878654 0.000200000000006639311 0.16841868804114657
0.000399999999999067768 0.38709957682064283 0.000399999999999067768 0.33314669607892045
0.000600000000005707079 0.54171338494001620 0.000600000000005707079 0.44619162069440177
0.000799999999998135536 0.68331357229077105 0.000799999999998135536 0.54778616577875083
0.001007140329434719206 0.81968652326705205 0.001007140329434719206 0.64377594575523511
0.001267914553963578328 0.97978028393076277 0.001267914553963578328 0.75398840112265997
0.001596209851982166583 1.16690649308680783 0.001596209851982166583 0.87928828894694622
0.002009509145224797066 1.38470087139061926 0.002009509145224797066 1.02113804247382611
0.002529822128138903281 1.63714824565359685 0.002529822128138903281 1.18112466460829579
0.003184857364431081805 1.92861477025341621 0.003184857364431081805 1.36099491886662705
0.004009497869020606231 2.26388910767469476 0.004009497869020606231 1.56269753545034740
0.005047658755842121536 2.64823401644877476 0.005047658755842121536 1.78843086751085822
0.006354625877790454069 3.08744937934204033 0.006354625877790454069 2.04069421276901819
0.008000000000009777068 3.58794728615895187 0.008000000000009777068 2.32234124148270737
0.010071403294347192059 4.15683946934599291 0.010071403294347192059 2.63663449782618553
0.012679145539706837553 4.80203720749856533 0.012679145539706837553 2.98730002009544204
0.015962098519750611558 5.53236352184217317 0.015962098519750611558 3.37857954789802006
0.020095091452091651263 6.35767656832083805 0.020095091452091651263 3.81527580372685060
0.025298221281360611101 7.28900190688616867 0.025298221281360611101 4.30279261507787236
0.031848573644296607199 8.33867327248310453 0.031848573644296607199 4.84719614705749091
0.040094978690177640601 9.52049149501312719 0.040094978690177640601 5.45534674876933767
0.050476587558421215363 10.84992379445941779 0.050476587558421215363 6.13510302944018004
0.063546258777961384112 12.34435356460369348 0.063546258777961384112 6.89542733450474810
0.079999999999998294697 14.02332385597149766 0.079999999999998294697 7.74602220766830740
0.100714032943542974863 15.90861375266677058 0.100714032943542974863 8.69616160863589194
0.126791455396897845276 18.02393578086298120 0.126791455396897845276 9.75276571505067835
0.159620985197506115583 20.39411592340841750 0.159620985197506115583 10.91838904257198095
0.200950914520760193227 23.04385260218281317 0.200950914520760193227 12.19010457967096173
0.252982212813478213320 25.99636810603585957 0.252982212813478213320 13.56017059589031426
0.318485736442795541734 29.27245540545904490 0.318485736442795541734 15.01741779724444292
0.400949786901833249431 32.88974371228960081 0.400949786901833249431 16.55173831439632792
0.504765875584155310207 36.86377366915090903 0.504765875584155310207 18.15558734182262413
0.635462587779443310865 41.20790750480392006 0.635462587779443310865 19.82603101610177276
0.799999999999997157829 45.93527521313303197 0.799999999999997157829 21.56770855953628541
1.007140329435344483500 51.05994913752790154 1.007140329435344483500 23.39652993253877966
1.267914553968893187630 56.60043274474004704 1.267914553968893187630 25.31897593881700814
1.596209851975103788391 62.57124405842083092 1.596209851975103788391 27.37290856890006197
2.009509145207672986544 69.00463672449343733 2.009509145207672986544 29.57508622111975427
2.529822128134711078928 75.91821186909814401 2.529822128134711078928 31.96334213615149622
3.184857364427998049905 83.35490788724354161 3.184857364427998049905 34.59010232140853702
4.009497869018190385759 91.34755849554960605 4.009497869018190385759 37.46847150443323216
5.009497869018204596614 99.64139026201429772 5.009497869018204596614 40.50872860048743007
6.009497869018204596614 106.85221814558879316 6.009497869018204596614 43.17768428705581840
7.009497869018204596614 113.26034478005787776 7.009497869018204596614 45.55475838936412458
8.009497869018204596614 119.04168275160370172 8.009497869018204596614 47.68498066829472748
9.009497869018204596614 124.31516325507736553 9.009497869018204596614 49.60798924305529312
10.009497869018190385759 129.16591909175912178 10.009497869018190385759 51.34993462749709892
11.009497869018190385759 133.65758964610847670 11.009497869018190385759 52.92150533066224227
12.009497869018190385759 137.83941481376220395 12.009497869018190385759 54.35708118537004907
13.009497869018190385759 141.75032803131708192 13.009497869018190385759 55.67184214313284230
14.009497869018190385759 145.42223826305834677 14.009497869018190385759 56.87685651975117906
15.009497869018190385759 148.88087740323123853 15.009497869018190385759 57.98534954602979496
16.009497869018204596614 152.14760274939354190 16.009497869018204596614 59.00878693736557068
17.009497869018204596614 155.24115065469106867 17.009497869018204596614 59.95773746924182745
18.009497869018204596614 158.17775507907452948 18.009497869018204596614 60.84350607622466356
19.009497869018204596614 160.97120631890288678 19.009497869018204596614 61.66845197366615139
20.009497869018204596614 163.63397414195347324 20.009497869018204596614 62.43704421644068958
21.009497869018204596614 166.17624237191861880 21.009497869018204596614 63.15287901298048467
22.009497869018190385759 168.60671101745364808 22.009497869018190385759 63.82233924146786563
23.009497869018190385759 170.93336279743243722 23.009497869018190385759 64.44754727466539634
24.009497869018190385759 173.16357006441467092 24.009497869018190385759 65.03558989594364448
25.009497869018190385759 175.30426308475821884 25.009497869018190385759 65.58949582319750959
26.009497869018190385759 177.36153873355033284 26.009497869018190385759 66.11233639992752842
27.009497869018204596614 179.34095980673399140 27.009497869018204596614 66.60807049950027192
28.009497869018190385759 181.24734768301564714 28.009497869018190385759 67.07767292708713569
29.009497869018190385759 183.08502298677365161 29.009497869018190385759 67.51881877167572554
30.009497869018190385759 184.85799827436900955 30.009497869018190385759 67.94113912966375324
31.009497869018190385759 186.56994937572230242 31.009497869018190385759 68.34114174034424138
32.009497869018190385759 188.22426169973650190 32.009497869018190385759 68.72045795690975467
33.009497869018218807469 189.82408344509613585 33.009497869018218807469 69.07801331948382995
34.009497869018190385759 191.37241741862837330 34.009497869018190385759 69.42235398775893884
35.009497869018218807469 192.87194516238665187 35.009497869018218807469 69.74907964871103161
36.009497869018190385759 194.32514633042620744 36.009497869018190385759 70.06388304239696652
37.009497869018218807469 195.73431812839132249 37.009497869018218807469 70.36582896464007320
38.009497869018190385759 197.10164715211061548 38.009497869018190385759 70.65620652568344440
39.009497869018190385759 198.42913455413375345 39.009497869018190385759 70.93632324632218911
40.009497869018190385759 199.71865403449245946 40.009497869018190385759 71.20468551644816557
41.009497869018190385759 200.97200378006229471 41.009497869018190385759 71.46539070774855418
42.009497869018190385759 202.19083101286133797 42.009497869018190385759 71.71208362601693409
43.009497869018190385759 203.37669016641223152 43.009497869018190385759 71.95484451161706829
44.009497869018218807469 204.53107836686879750 44.009497869018218807469 72.17994801348132228
46.009497869018218807469 206.75100151343048083 46.009497869018218807469 72.60978562374772594
48.009497869018218807469 208.86015441009905658 48.009497869018218807469 73.00447643192828195
50.009497869018218807469 210.86614059728427151 50.009497869018218807469 73.34513550403337945
52.009497869018190385759 212.77654203567331592 52.009497869018190385759 73.64750725571759915
54.009497869018190385759 214.59857216536406099 54.009497869018190385759 73.91786262584312794
56.009497869018190385759 216.33794709853009408 56.009497869018190385759 74.15728768318578545
58.009497869018190385759 217.99959554932684114 58.009497869018190385759 74.36708448816220596
60.009497869018190385759 219.58842312149369036 60.009497869018190385759 74.58659824735394750
62.009497869018190385759 221.10855428716286042 62.009497869018190385759 74.79618038462758989
64.009497869018190385759 222.56431193661063617 64.009497869018190385759 74.99577557009290274
66.009497869018218807469 223.96152441546215073 66.009497869018218807469 75.20659443552831647
68.009497869018218807469 225.30523729382474585 68.009497869018218807469 75.41803491476539989
70.009497869018218807469 226.59844872378394598 70.009497869018218807469 75.59249939874950996
72.009497869018218807469 227.84429361593376484 72.009497869018218807469 75.71159486075136158
74.009497869018190385759 229.04567895007210154 74.009497869018190385759 75.81952698118833212
76.009497869018190385759 230.20494647731803184 76.009497869018190385759 75.91360061831554162
78.009497869018190385759 231.32510229502105403 78.009497869018190385759 76.02921086323050304
80.009497869018190385759 232.40800679408442875 80.009497869018190385759 76.08678908053981615
82.009497869018190385759 233.45363013143415287 82.009497869018190385759 76.16465257555792334
84.009497869018190385759 234.46244603905631720 84.009497869018190385759 76.22567619654161319
86.009497869018190385759 235.43528951478000977 86.009497869018190385759 76.20964253990049997
88.009497869018218807469 236.37460354718399458 88.009497869018218807469 76.21740614093670274
91.009497869018190385759 237.72292458984244945 91.009497869018190385759 76.18814407646907227
94.009497869018218807469 239.00323902310947233 94.009497869018218807469 76.21358623512760744
97.009497869018190385759 240.22477340515573019 97.009497869018190385759 76.33024768350584566
99.504748934509109403734 241.20260969970146903 99.504748934509109403734 76.38762704872041809
nan nan nan nan

