Time Pressure difference Time.1 Pressure.1 difference.1
(hr) (psi) (hr) (psi)
0.000200000000006639311 0.47795501229603049 0.000200000000006639311 0.37743830980649812
0.000399999999999067768 0.86751780162483338 0.000399999999999067768 0.74660554210543773
0.000600000000005707079 1.21401838946378637 0.000600000000005707079 0.99994729280620387
0.000799999999998135536 1.53135452361592450 0.000799999999998135536 1.22762792509345076
0.001007140329434719206 1.83697604767883971 0.001007140329434719206 1.44274787843360741
0.001267914553963578328 2.19575760059483471 0.001267914553963578328 1.68974186323024700
0.001596209851982166583 2.61512080147132853 0.001596209851982166583 1.97054786183645980
0.002009509145224797066 3.10321355999147697 0.002009509145224797066 2.28844329161544913
0.002529822128138903281 3.66896615767011447 0.002529822128138903281 2.64698473943466306
0.003184857364431081805 4.32216345833578153 0.003184857364431081805 3.05008682710288737
0.004009497869020606231 5.07353719666382474 0.004009497869020606231 3.50211679819676069
0.005047658755842121536 5.93488159043430752 0.005047658755842121536 4.00800131915379865
0.006354625877790454069 6.91919459120403602 0.006354625877790454069 4.57334149468771045
0.008000000000009777068 8.04084615023122318 0.008000000000009777068 5.20453260367999615
0.010071403294347192059 9.31577416790932311 0.010071403294347192059 5.90888624066403967
0.012679145539706837553 10.76170838466196322 0.012679145539706837553 6.69475272360674989
0.015962098519750611558 12.39842182127129711 0.015962098519750611558 7.57163809395002740
0.020095091452091651263 14.24800730936187954 0.020095091452091651263 8.55030559585213901
0.025298221281360611101 16.33517391632525317 0.025298221281360611101 9.64286559271915955
0.031848573644296607199 18.68756242315409821 0.031848573644296607199 10.86291279385205577
0.040094978690177640601 21.33610147543120306 0.040094978690177640601 12.22582173161699792
0.050476587558421215363 24.31545421794030304 0.050476587558421215363 13.74920411062040237
0.063546258777961384112 27.66457807781720390 0.063546258777961384112 15.45314518714903151
0.079999999999998294697 31.42727042722183839 0.079999999999998294697 17.35938905468522364
0.100714032943542974863 35.65233974927998872 0.100714032943542974863 19.48871931935364898
0.126791455396897845276 40.39292750889828199 0.126791455396897845276 21.85664459355107070
0.159620985197506115583 45.70467050692421651 0.159620985197506115583 24.46888972933541950
0.200950914520760193227 51.64291967096327340 0.200950914520760193227 27.31889508479831363
0.252982212813478213320 58.25971780906250785 0.252982212813478213320 30.38931088900418231
0.318485736442795541734 65.60166345330553384 0.318485736442795541734 33.65510595632459712
0.400949786901833249431 73.70826492664902219 0.400949786901833249431 37.09362782958462645
0.504765875584155310207 82.61434991925784743 0.504765875584155310207 40.68796806069176597
0.635462587779443310865 92.34986414023022405 0.635462587779443310865 44.43155165215664937
0.799999999999997157829 102.94423284371777072 0.799999999999997157829 48.33477543253221853
1.007140329435344483500 114.42899315642415559 1.007140329435344483500 52.43329475952887009
1.267914553968893187630 126.84561266901563670 1.267914553968893187630 56.74163357717026201
1.596209851975103788391 140.22662730949667775 1.596209851975103788391 61.34464331065995424
2.009509145207672986544 154.64431980221297636 2.009509145207672986544 66.27988072768802397
2.529822128134711078928 170.13813552806817597 2.529822128134711078928 71.63213282298237061
3.184857364427998049905 186.80430249730471814 3.184857364427998049905 77.51889002387090954
4.009497869018190385759 204.71640341413348096 4.009497869018190385759 83.96952096082804928
5.009497869018204596614 223.30347281933561021 5.009497869018204596614 90.78295427430664688
6.009497869018204596614 239.46345316556059402 6.009497869018204596614 96.76427460759830979
7.009497869018204596614 253.82452267673690471 7.009497869018204596614 102.09146746187853694
8.009497869018204596614 266.78091402368329454 8.009497869018204596614 106.86544774769620858
9.009497869018204596614 278.59916050914659991 9.009497869018204596614 111.17504732148998414
10.009497869018190385759 289.47005082171017420 10.009497869018190385759 115.07887135269439227
11.009497869018190385759 299.53620536761809490 11.009497869018190385759 118.60087355353770988
12.009497869018190385759 308.90797427012773824 12.009497869018190385759 121.81810158507036590
13.009497869018190385759 317.67261014161243793 13.009497869018190385759 124.76457480291377067
14.009497869018190385759 325.90162325024681422 14.009497869018190385759 127.46509809337095476
15.009497869018190385759 333.65268060902712932 15.009497869018190385759 129.94931014333462826
16.009497869018204596614 340.97364544730163516 16.009497869018204596614 132.24290643998890005
17.009497869018204596614 347.90650727078093496 17.009497869018204596614 134.36957236410444239
18.009497869018204596614 354.48764754328311710 18.009497869018204596614 136.35464308153919433
19.009497869018204596614 360.74797130396984812 19.009497869018204596614 138.20340576241252961
20.009497869018204596614 366.71542419312788752 20.009497869018204596614 139.92587587791618375
21.009497869018204596614 372.41282888706763288 21.009497869018204596614 141.53011278801878348
22.009497869018190385759 377.85968272661489209 22.009497869018190385759 143.03042097864675952
23.009497869018190385759 383.07387555496018194 23.009497869018190385759 144.43155683875906448
24.009497869018190385759 388.07192934078648250 24.009497869018190385759 145.74940235608798389
25.009497869018190385759 392.86937530602068591 25.009497869018190385759 146.99074510377300840
26.009497869018190385759 397.47987698322441474 26.009497869018190385759 148.16246818198047208
27.009497869018204596614 401.91590099544851000 27.009497869018204596614 149.27344370870150669
28.009497869018190385759 406.18825239675834382 28.009497869018190385759 150.32585629195421006
29.009497869018190385759 410.30661401500162810 29.009497869018190385759 151.31449564009471942
30.009497869018190385759 414.27997827559482857 30.009497869018190385759 152.26094572808574412
31.009497869018190385759 418.11658297594902933 31.009497869018190385759 153.15738015023575258
32.009497869018190385759 421.82401505923093055 32.009497869018190385759 154.00745488557453200
33.009497869018218807469 425.40932986356369838 33.009497869018218807469 154.80876199277182081
34.009497869018190385759 428.87925689353318148 34.009497869018190385759 155.58045402613831243
35.009497869018218807469 432.23980567642007600 35.009497869018218807469 156.31266956987920480
36.009497869018190385759 435.49653329408016589 36.009497869018190385759 157.01816646108608211
37.009497869018218807469 438.65458794844846580 37.009497869018218807469 157.69484884039874828
38.009497869018190385759 441.71886995696223721 38.009497869018190385759 158.34560569595132051
39.009497869018190385759 444.69386404542473201 39.009497869018190385759 158.97336727523992295
40.009497869018190385759 447.58376930944297101 40.009497869018190385759 159.57478629132577908
41.009497869018190385759 450.39261561424672209 41.009497869018190385759 160.15904524682935062
42.009497869018190385759 453.12409450203745109 42.009497869018190385759 160.71190169759154287
43.009497869018190385759 455.78168956937020084 43.009497869018190385759 161.25594618228467425
44.009497869018218807469 458.36875598289344680 44.009497869018218807469 161.76041920878404312
46.009497869018218807469 463.34376232027722153 46.009497869018218807469 162.72371599607745907
48.009497869018218807469 468.07052461548983047 48.009497869018218807469 163.60824628941065839
50.009497869018218807469 472.56608294569957707 50.009497869018218807469 164.37168760278910895
52.009497869018190385759 476.84742902637503903 52.009497869018190385759 165.04932429629570834
54.009497869018190385759 480.93072869202131869 54.009497869018190385759 165.65520999184485618
56.009497869018190385759 484.82879215831297870 56.009497869018190385759 166.19177864713958570
58.009497869018190385759 488.55266502572351328 58.009497869018190385759 166.66194827257780275
60.009497869018190385759 492.11334110263322827 60.009497869018190385759 167.15389428648072112
62.009497869018190385759 495.52006362569539988 62.009497869018190385759 167.62358282626360051
64.009497869018190385759 498.78252050079703395 64.009497869018190385759 168.07088989369034948
66.009497869018218807469 501.91377346679468019 66.009497869018218807469 168.54335002962150725
68.009497869018218807469 504.92513000669663370 68.009497869018218807469 169.01720324648314886
70.009497869018218807469 507.82330919348009957 70.009497869018218807469 169.40819061684041458
72.009497869018218807469 510.61533658570863281 72.009497869018218807469 169.67509205400529027
74.009497869018190385759 513.30772693275082474 74.009497869018190385759 169.91697564534172216
76.009497869018190385759 515.90572826613242796 76.009497869018190385759 170.12780138568928123
78.009497869018190385759 518.41607746473471252 78.009497869018190385759 170.38689220241838029
80.009497869018190385759 520.84294379745699644 80.009497869018190385759 170.51592910013832238
82.009497869018190385759 523.18626038383899868 82.009497869018190385759 170.69042675415212784
84.009497869018190385759 525.44708889109938355 84.009497869018190385759 170.82718504760666178
86.009497869018190385759 527.62730060901594697 86.009497869018190385759 170.79125247781271923
88.009497869018218807469 529.73237044949269148 88.009497869018218807469 170.80865126227777751
91.009497869018190385759 532.75405421473612932 91.009497869018190385759 170.74307288565839258
94.009497869018218807469 535.62333031071852929 94.009497869018218807469 170.80009058050916337
97.009497869018190385759 538.36087611334005487 97.009497869018190385759 171.06153721928544087
99.504748934509109403734 540.55227709486666754 99.504748934509109403734 171.19012847525738152
nan nan nan nan

