Time Pressure difference Time.1 Pressure.1 difference.1
(hr) (psi) (hr) (psi)
0.000200000000006639311 0.00317367206039861 0.000200000000006639311 0.00250623047680278
0.000399999999999067768 0.00576041036935480 0.000399999999999067768 0.00495754012022203
0.000600000000005707079 0.00806121108541691 0.000600000000005707079 0.00663975626033336
0.000799999999998135536 0.01016835673051743 0.000799999999998135536 0.00815157984789808
0.001007140329434719206 0.01219771612004542 0.001007140329434719206 0.00957999919278624
0.001267914553963578328 0.01458006374896969 0.001267914553963578328 0.01122006549289673
0.001596209851982166583 0.01736467995664893 0.001596209851982166583 0.01308464715694860
0.002009509145224797066 0.02060566772902707 0.002009509145224797066 0.01519550658443193
0.002529822128138903281 0.02436232508413090 0.002529822128138903281 0.01757625989000440
0.003184857364431081805 0.02869962455734250 0.003184857364431081805 0.02025290057837243
0.004009497869020606231 0.03368882600706391 0.004009497869020606231 0.02325442761086826
0.005047658755842121536 0.03940824429239249 0.005047658755842121536 0.02661355457605444
0.006354625877790454069 0.04594418719258989 0.006354625877790454069 0.03036747340430087
0.008000000000009777068 0.05339207271069869 0.008000000000009777068 0.03455864942682601
0.010071403294347192059 0.06185773019860109 0.010071403294347192059 0.03923563240812776
0.012679145539706837553 0.07145888701634770 0.012679145539706837553 0.04445386934665836
0.015962098519750611558 0.08232683812265139 0.015962098519750611558 0.05027648136753007
0.020095091452091651263 0.09460828226667914 0.020095091452091651263 0.05677493755545909
0.025298221281360611101 0.10846729028104418 0.025298221281360611101 0.06402965201008738
0.031848573644296607199 0.12408739988814141 0.031848573644296607199 0.07213089504549838
0.040094978690177640601 0.14167398058055247 0.040094978690177640601 0.08118075519001991
0.050476587558421215363 0.16145719932231278 0.050476587558421215363 0.09129617603333601
0.063546258777961384112 0.18369573756850732 0.063546258777961384112 0.10261052581108256
0.079999999999998294697 0.20868041452338537 0.079999999999998294697 0.11526818761411171
0.100714032943542974863 0.23673532370039832 0.100714032943542974863 0.12940716679517697
0.126791455396897845276 0.26821333007236575 0.126791455396897845276 0.14513044218825413
0.159620985197506115583 0.30348386790786330 0.159620985197506115583 0.16247602741922590
0.200950914520760193227 0.34291447324676805 0.200950914520760193227 0.18140036576891311
0.252982212813478213320 0.38685071586362890 0.252982212813478213320 0.20178825291503441
0.318485736442795541734 0.43560201496218814 0.318485736442795541734 0.22347347912566135
0.400949786901833249431 0.48943071000430960 0.400949786901833249431 0.24630562967851677
0.504765875584155310207 0.54856806055284091 0.504765875584155310207 0.27017243068188429
0.635462587779443310865 0.61321290929767747 0.635462587779443310865 0.29503022345389540
0.799999999999997157829 0.68356064305257491 0.799999999999997157829 0.32094804404071858
1.007140329435344483500 0.75982067168940337 1.007140329435344483500 0.34816264780563655
1.267914553968893187630 0.84226834441577447 1.267914553968893187630 0.37677047528001500
1.596209851975103788391 0.93111970325031002 1.596209851975103788391 0.40733494894196520
2.009509145207672986544 1.02685471316210486 2.009509145207672986544 0.44010544971904397
2.529822128134711078928 1.12973529567110353 2.529822128134711078928 0.47564497226415914
3.184857364427998049905 1.24040041498874309 3.184857364427998049905 0.51473366549715083
4.009497869018190385759 1.35933866808853576 4.009497869018190385759 0.55756654024454211
5.009497869018204596614 1.48275878366092706 5.009497869018204596614 0.60280846131677723
6.009497869018204596614 1.59006277002364271 6.009497869018204596614 0.64252506379547358
7.009497869018204596614 1.68542179732229003 7.009497869018204596614 0.67789819031791854
8.009497869018204596614 1.77145361237505505 8.009497869018204596614 0.70959792661152865
9.009497869018204596614 1.84992802462912764 9.009497869018204596614 0.73821412564070377
10.009497869018190385759 1.92211189124641568 10.009497869018190385759 0.76413593195680207
11.009497869018190385759 1.98895222687661399 11.009497869018190385759 0.78752240075390245
12.009497869018190385759 2.05118176806193730 12.009497869018190385759 0.80888513668705431
13.009497869018190385759 2.10937988141840904 13.009497869018190385759 0.82845003189185773
14.009497869018190385759 2.16402140272408250 14.009497869018190385759 0.84638179344867825
15.009497869018190385759 2.21548924707189299 15.009497869018190385759 0.86287722538734812
16.009497869018204596614 2.26410123138978481 16.009497869018204596614 0.87810694847270199
17.009497869018204596614 2.31013617045671271 17.009497869018204596614 0.89222823614943203
18.009497869018204596614 2.35383564105765686 18.009497869018204596614 0.90540931661048607
19.009497869018204596614 2.39540485593605501 19.009497869018204596614 0.91768529722717496
20.009497869018204596614 2.43502937711240230 20.009497869018204596614 0.92912268179227209
21.009497869018204596614 2.47286074958212243 21.009497869018204596614 0.93977498531220960
22.009497869018190385759 2.50902843775972695 22.009497869018190385759 0.94973719109327193
23.009497869018190385759 2.54365123210464894 23.009497869018190385759 0.95904088206347304
24.009497869018190385759 2.57683884024426613 24.009497869018190385759 0.96779151630868521
25.009497869018190385759 2.60869439114223578 25.009497869018190385759 0.97603416403567744
26.009497869018190385759 2.63930861210640400 26.009497869018190385759 0.98381452976082640
27.009497869018204596614 2.66876428283830380 27.009497869018204596614 0.99119152529018262
28.009497869018190385759 2.69713315004487564 28.009497869018190385759 0.99817965665308239
29.009497869018190385759 2.72447950873175104 29.009497869018190385759 1.00474432695946025
30.009497869018190385759 2.75086306955906279 30.009497869018190385759 1.01102885609618687
31.009497869018190385759 2.77633853237681993 31.009497869018190385759 1.01698127589797993
32.009497869018190385759 2.80095627529369784 32.009497869018190385759 1.02262586245401432
33.009497869018218807469 2.82476314650440674 33.009497869018218807469 1.02794662677803350
34.009497869018190385759 2.84780383063435050 34.009497869018190385759 1.03307074386546027
35.009497869018218807469 2.87011823158313462 35.009497869018218807469 1.03793273286772370
36.009497869018190385759 2.89174324896467594 36.009497869018190385759 1.04261730717852630
37.009497869018218807469 2.91271306738677627 37.009497869018218807469 1.04711055006904874
38.009497869018190385759 2.93306022547783662 38.009497869018190385759 1.05143164472743234
39.009497869018190385759 2.95281450229365650 39.009497869018190385759 1.05560004830836607
40.009497869018190385759 2.97200378027518530 40.009497869018190385759 1.05959353447095483
41.009497869018190385759 2.99065481815568912 41.009497869018190385759 1.06347307600816321
42.009497869018190385759 3.00879212816757935 42.009497869018190385759 1.06714410157763306
43.009497869018190385759 3.02643884176208644 43.009497869018190385759 1.07075661475620620
44.009497869018218807469 3.04361723760221370 44.009497869018218807469 1.07410636924823399
46.009497869018218807469 3.07665180823557272 46.009497869018218807469 1.08050276225815045
48.009497869018218807469 3.10803801205504548 48.009497869018218807469 1.08637613737988481
50.009497869018218807469 3.13788899698339696 50.009497869018218807469 1.09144546881002080
52.009497869018190385759 3.16631758981656741 52.009497869018190385759 1.09594504844817875
54.009497869018190385759 3.19343113341315599 54.009497869018190385759 1.09996819383695121
56.009497869018190385759 3.21931468896622164 56.009497869018190385759 1.10353106671407408
58.009497869018190385759 3.24404160043641099 58.009497869018190385759 1.10665304297860434
60.009497869018190385759 3.26768486787937062 60.009497869018190385759 1.10991961677610029
62.009497869018190385759 3.29030586736849484 62.009497869018190385759 1.11303839858076747
64.009497869018190385759 3.31196892762813455 64.009497869018190385759 1.11600856503114443
66.009497869018218807469 3.33276077999199671 66.009497869018218807469 1.11914575052869525
68.009497869018218807469 3.35275650734858255 68.009497869018218807469 1.12229218623162796
70.009497869018218807469 3.37200072505630821 70.009497869018218807469 1.12488838390996304
72.009497869018218807469 3.39054008357044268 72.009497869018218807469 1.12666063780879999
74.009497869018190385759 3.40841784151893057 74.009497869018190385759 1.12826677055339797
76.009497869018190385759 3.42566884638866087 76.009497869018190385759 1.12966667586779090
78.009497869018190385759 3.44233783177114683 78.009497869018190385759 1.13138706641712083
80.009497869018190385759 3.45845248205482747 80.009497869018190385759 1.13224388512708041
82.009497869018190385759 3.47401235314634116 82.009497869018190385759 1.13340256808865947
84.009497869018190385759 3.48902449462881403 84.009497869018190385759 1.13431065768663109
86.009497869018190385759 3.50350133206517933 86.009497869018190385759 1.13407206160566232
88.009497869018218807469 3.51747921945214248 88.009497869018218807469 1.13418759138298664
91.009497869018190385759 3.53754352068217903 91.009497869018190385759 1.13375214399507551
94.009497869018218807469 3.55659581879627185 94.009497869018218807469 1.13413074754654164
97.009497869018190385759 3.57477341376719826 97.009497869018190385759 1.13586678100455130
99.504748934509109403734 3.58932454910270060 99.504748934509109403734 1.13672064060595868
nan nan nan nan

