Time Pressure difference Time.1 Pressure.1 difference.1
(hr) (psi) (hr) (psi)
0.000200000000006639311 0.03871879913686303 0.000200000000006639311 0.03057601181699387
0.000399999999999067768 0.07027700650612861 0.000399999999999067768 0.06048198946670877
0.000600000000005707079 0.09834677524208628 0.000600000000005707079 0.08100502637606699
0.000799999999998135536 0.12405395211231260 0.000799999999998135536 0.09944927414435656
0.001007140329434719206 0.14881213666455409 0.001007140329434719206 0.11687599015199208
0.001267914553963578328 0.17787677773743016 0.001267914553963578328 0.13688479901334008
0.001596209851982166583 0.21184909547111691 0.001596209851982166583 0.15963269531477298
0.002009509145224797066 0.25138914629413028 0.002009509145224797066 0.18538518033006959
0.002529822128138903281 0.29722036602639701 0.002529822128138903281 0.21443037065805368
0.003184857364431081805 0.35013541959957856 0.003184857364431081805 0.24708538705614358
0.004009497869020606231 0.41100367728617970 0.004009497869020606231 0.28370401685259278
0.005047658755842121536 0.48078058036718824 0.005047658755842121536 0.32468536582786417
0.006354625877790454069 0.56051908374959658 0.006354625877790454069 0.37048317553247051
0.008000000000009777068 0.65138328707052395 0.008000000000009777068 0.42161552300727728
0.010071403294347192059 0.75466430842293331 0.010071403294347192059 0.47867471537915862
0.012679145539706837553 0.87179842159944188 0.012679145539706837553 0.54233720602923208
0.015962098519750611558 1.00438742509634693 0.015962098519750611558 0.61337307268386676
0.020095091452091651263 1.15422104365348543 0.020095091452091651263 0.69265423817660088
0.025298221281360611101 1.32330094142873911 0.025298221281360611101 0.78116175452306602
0.031848573644296607199 1.51386627863532519 0.031848573644296607199 0.87999691955508019
0.040094978690177640601 1.72842256308274012 0.040094978690177640601 0.99040521331824294
0.050476587558421215363 1.96977783173221588 0.050476587558421215363 1.11381334760669937
0.063546258777961384112 2.24108799833578987 0.063546258777961384112 1.25184841489520715
0.079999999999998294697 2.54590105718530202 0.079999999999998294697 1.40627188889216304
0.100714032943542974863 2.88817094914485972 0.100714032943542974863 1.57876743490115889
0.126791455396897845276 3.27220262688286212 0.126791455396897845276 1.77059139469670024
0.159620985197506115583 3.70250318847593274 0.159620985197506115583 1.98220753451455622
0.200950914520760193227 4.18355657361057087 0.200950914520760193227 2.21308446238074019
0.252982212813478213320 4.71957873353627200 0.252982212813478213320 2.46181668556342004
0.318485736442795541734 5.31434458253869568 0.318485736442795541734 2.72637644533306833
0.400949786901833249431 5.97105466205257684 0.400949786901833249431 3.00492868207790487
0.504765875584155310207 6.69253033874465864 0.504765875584155310207 3.29610365431898789
0.635462587779443310865 7.48119749343166429 0.635462587779443310865 3.59936872613752357
0.799999999999997157829 8.33943984524141335 0.799999999999997157829 3.91556613729676606
1.007140329435344483500 9.26981219461072037 1.007140329435344483500 4.24758430322876723
1.267914553968893187630 10.27567380187245050 1.267914553968893187630 4.59659979841618327
1.596209851975103788391 11.35966037965378028 1.596209851975103788391 4.96948637709197527
2.009509145207672986544 12.52762750057767782 2.009509145207672986544 5.36928648657233687
2.529822128134711078928 13.78277060718746228 2.529822128134711078928 5.80286866162274162
3.184857364427998049905 15.13288506286266610 3.184857364427998049905 6.27975071906524018
4.009497869018190385759 16.58393175068013647 4.009497869018190385759 6.80231179098341343
5.009497869018204596614 18.08965716066331098 5.009497869018204596614 7.35426322806468313
6.009497869018204596614 19.39876579428844039 6.009497869018204596614 7.83880577830477687
7.009497869018204596614 20.56214592733194024 7.009497869018204596614 8.27035792187860608
8.009497869018204596614 21.61173407097567178 8.009497869018204596614 8.65709470466064879
9.009497869018204596614 22.56912190047535560 9.009497869018204596614 9.00621233281658462
10.009497869018190385759 23.44976507320627235 10.009497869018190385759 9.32245836987298659
11.009497869018190385759 24.26521716789468996 11.009497869018190385759 9.60777328919760976
12.009497869018190385759 25.02441757035563441 12.009497869018190385759 9.86839866758206163
13.009497869018190385759 25.73443455330459173 13.009497869018190385759 10.10709038908066404
14.009497869018190385759 26.40106111323380489 14.009497869018190385759 10.32585788007387428
15.009497869018190385759 27.02896881427709630 15.009497869018190385759 10.52710214972564806
16.009497869018204596614 27.62203502295537305 16.009497869018204596614 10.71290477136696495
17.009497869018204596614 28.18366127957189349 17.009497869018204596614 10.88518448102307090
18.009497869018204596614 28.71679482090341295 18.009497869018204596614 11.04599366264793048
19.009497869018204596614 29.22393924241987051 19.009497869018204596614 11.19576062617153234
20.009497869018204596614 29.70735840077131584 20.009497869018204596614 11.33529671786571846
21.009497869018204596614 30.16890114490189490 21.009497869018204596614 11.46525482080895841
22.009497869018190385759 30.61014694066867037 22.009497869018190385759 11.58679373133791657
23.009497869018190385759 31.03254503167671885 23.009497869018190385759 11.70029876117437162
24.009497869018190385759 31.43743385098004595 24.009497869018190385759 11.80705649896596121
25.009497869018190385759 31.82607157193527314 25.009497869018190385759 11.90761680123526389
26.009497869018190385759 32.19956506769812421 26.009497869018190385759 12.00253726308208257
27.009497869018204596614 32.55892425062730666 27.009497869018204596614 12.09253660854022705
28.009497869018190385759 32.90502443054748483 28.009497869018190385759 12.17779181116760512
29.009497869018190385759 33.23865000652735802 29.009497869018190385759 12.25788078890541577
30.009497869018190385759 33.56052944862057075 30.009497869018190385759 12.33455204437347952
31.009497869018190385759 33.87133009499720515 31.009497869018190385759 12.40717156595535187
32.009497869018190385759 34.17166655858311231 32.009497869018190385759 12.47603552193897336
33.009497869018218807469 34.46211038735376064 33.009497869018218807469 12.54094884669200560
34.009497869018190385759 34.74320673373907198 34.009497869018190385759 12.60346307515861675
35.009497869018218807469 35.01544242531424089 35.009497869018218807469 12.66277934098622993
36.009497869018190385759 35.27926763736904547 36.009497869018190385759 12.71993114757802168
37.009497869018218807469 35.53509942211866246 37.009497869018218807469 12.77474871084239538
38.009497869018190385759 35.78333475082961002 38.009497869018190385759 12.82746606567467396
39.009497869018190385759 36.02433692798260978 39.009497869018190385759 12.87832058936206536
40.009497869018190385759 36.25844611935726647 40.009497869018190385759 12.92704112054564902
41.009497869018190385759 36.48598878149940816 41.009497869018190385759 12.97437152729959031
42.009497869018190385759 36.70726396364447197 42.009497869018190385759 13.01915803924712378
43.009497869018190385759 36.92255386949745599 43.009497869018190385759 13.06323070002571818
44.009497869018218807469 37.13213029874701476 44.009497869018218807469 13.10409770482845637
46.009497869018218807469 37.53515206047398323 46.009497869018218807469 13.18213369954943737
48.009497869018218807469 37.91806374707156380 48.009497869018218807469 13.25378887603459610
50.009497869018218807469 38.28224576319743733 50.009497869018218807469 13.31563471948225263
52.009497869018190385759 38.62907459576211266 52.009497869018190385759 13.37052959106777905
54.009497869018190385759 38.95985982764049993 54.009497869018190385759 13.41961196481080343
56.009497869018190385759 39.27563920538790398 56.009497869018190385759 13.46307901391170603
58.009497869018190385759 39.57730752532421548 58.009497869018190385759 13.50116712433897348
60.009497869018190385759 39.86575538812832065 60.009497869018190385759 13.54101932466842406
62.009497869018190385759 40.14173158189564106 62.009497869018190385759 13.57906846268536505
64.009497869018190385759 40.40602091706324472 64.009497869018190385759 13.61530449337996274
66.009497869018218807469 40.65968151590235635 66.009497869018218807469 13.65357815645008266
68.009497869018218807469 40.90362938965270700 68.009497869018218807469 13.69196467202585943
70.009497869018218807469 41.13840884568696055 70.009497869018218807469 13.72363828370154870
72.009497869018218807469 41.36458901955940348 72.009497869018218807469 13.74525978126736092
74.009497869018190385759 41.58269766653095445 74.009497869018190385759 13.76485460075145539
76.009497869018190385759 41.79315992594165863 76.009497869018190385759 13.78193344558704680
78.009497869018190385759 41.99652154760799050 78.009497869018190385759 13.80292221028887134
80.009497869018190385759 42.19312028106890011 80.009497869018190385759 13.81337539855038266
82.009497869018190385759 42.38295070838536560 82.009497869018190385759 13.82751133068164684
84.009497869018190385759 42.56609883447153209 84.009497869018190385759 13.83859002377690040
86.009497869018190385759 42.74271625119518347 86.009497869018190385759 13.83567915158907802
88.009497869018218807469 42.91324647731614306 88.009497869018218807469 13.83708861487243702
91.009497869018190385759 43.15803095232259068 91.009497869018190385759 13.83177615673992022
94.009497869018218807469 43.39046898931452034 94.009497869018218807469 13.83639512006780947
97.009497869018190385759 43.61223564795981389 97.009497869018190385759 13.85757472825552661
99.504748934509109403734 43.78975949905294129 99.504748934509109403734 13.86799181539269554
nan nan nan nan

