Time Pressure difference Time.1 Pressure.1 difference.1
(hr) (psi) (hr) (psi)
0.000200000000006639311 0.05839556591133441 0.000200000000006639311 0.04611464077317109
0.000399999999999067768 0.10599155079612839 0.000399999999999067768 0.09121873821208536
0.000600000000005707079 0.14832628397167111 0.000600000000005707079 0.12217151519013382
0.000799999999998135536 0.18709776384152063 0.000799999999998135536 0.14998906920132465
0.001007140329434719206 0.22443797660883566 0.001007140329434719206 0.17627198514726677
0.001267914553963578328 0.26827317298104225 0.001267914553963578328 0.20644920506929978
0.001596209851982166583 0.31951011120234030 0.001596209851982166583 0.24075750768785434
0.002009509145224797066 0.37914428621409813 0.002009509145224797066 0.27959732115354757
0.002529822128138903281 0.44826678154800864 0.002529822128138903281 0.32340318197608098
0.003184857364431081805 0.52807309185510209 0.003184857364431081805 0.37265337064205267
0.004009497869020606231 0.61987439852997595 0.004009497869020606231 0.42788146803997607
0.005047658755842121536 0.72511169498002170 0.005047658755842121536 0.48968940419940166
0.006354625877790454069 0.84537304434365390 0.006354625877790454069 0.55876151063913593
0.008000000000009777068 0.98241413787685583 0.008000000000009777068 0.63587914945359847
0.010071403294347192059 1.13818223565426013 0.010071403294347192059 0.72193563630955071
0.012679145539706837553 1.31484352110079761 0.012679145539706837553 0.81795119597851396
0.015962098519750611558 1.51481382145678567 0.015962098519750611558 0.92508725716255313
0.020095091452091651263 1.74079239370689609 0.020095091452091651263 1.04465885102044731
0.025298221281360611101 1.99579814117121290 0.025298221281360611101 1.17814559698560783
0.031848573644296607199 2.28320815794180199 0.031848573644296607199 1.32720846883717014
0.040094978690177640601 2.60680124268216584 0.040094978690177640601 1.49372589549636614
0.050476587558421215363 2.97081246753055472 0.050476587558421215363 1.67984963901338258
0.063546258777961384112 3.38000157126053491 0.063546258777961384112 1.88803367492391905
0.079999999999998294697 3.83971962723029092 0.079999999999998294697 2.12093465209965570
0.100714032943542974863 4.35592995608732902 0.100714032943542974863 2.38109186903125591
0.126791455396897845276 4.93512527333152917 0.126791455396897845276 2.67040013626387562
0.159620985197506115583 5.58410316950468477 0.159620985197506115583 2.98955890451375694
0.200950914520760193227 6.30962630774053146 0.200950914520760193227 3.33776673014800096
0.252982212813478213320 7.11805317189077069 0.252982212813478213320 3.71290385363663367
0.318485736442795541734 8.01507707530426217 0.318485736442795541734 4.11191201591216871
0.400949786901833249431 9.00552506407929698 0.400949786901833249431 4.53202358608470934
0.504765875584155310207 10.09365231417227271 0.504765875584155310207 4.97117272454666992
0.635462587779443310865 11.28311753107726467 0.635462587779443310865 5.42855611155167495
0.799999999999997157829 12.57751583216737856 0.799999999999997157829 5.90544401034922117
1.007140329435344483500 13.98070035908502184 1.007140329435344483500 6.40619271962371339
1.267914553968893187630 15.49773753725025038 1.267914553968893187630 6.93257674515227595
1.596209851975103788391 17.13260253980570269 1.596209851975103788391 7.49496306053215910
2.009509145207672986544 18.89412672218272604 2.009509145207672986544 8.09794027483040857
2.529822128134711078928 20.78712944034830556 2.529822128134711078928 8.75186748966052797
3.184857364427998049905 22.82336763579287364 3.184857364427998049905 9.47109944514757629
4.009497869018190385759 25.01183149282905660 4.009497869018190385759 10.25922434049957488
5.009497869018204596614 27.28276161936105737 5.009497869018204596614 11.09167568822870109
6.009497869018204596614 29.25715496843502450 6.009497869018204596614 11.82246117383671269
7.009497869018204596614 31.01176107073013810 7.009497869018204596614 12.47332670184970027
8.009497869018204596614 32.59474646770101458 8.009497869018204596614 13.05660184965212700
9.009497869018204596614 34.03867565317595023 9.009497869018204596614 13.58313991178894931
10.009497869018190385759 35.36685879893404660 10.009497869018190385759 14.06010114800515964
11.009497869018190385759 36.59672097452969552 11.009497869018190385759 14.49041217387180502
12.009497869018190385759 37.74174453233964499 12.009497869018190385759 14.88348651504179898
13.009497869018190385759 38.81258981809872921 13.009497869018190385759 15.24348058681018081
14.009497869018190385759 39.81799381012312011 14.009497869018190385759 15.57342499945568015
15.009497869018190385759 40.76500214612283202 15.009497869018190385759 15.87694094712720805
16.009497869018204596614 41.65946265757203548 16.009497869018204596614 16.15716785189771443
17.009497869018204596614 42.50650553640350893 17.009497869018204596614 16.41699954514954740
18.009497869018204596614 43.31057579546088476 18.009497869018204596614 16.65953142563294520
19.009497869018204596614 44.07544934922341184 19.009497869018204596614 16.88540946898001849
20.009497869018204596614 44.80454053886820986 20.009497869018204596614 17.09585734497780507
21.009497869018204596614 45.50063779231105343 21.009497869018204596614 17.29185972974465813
22.009497869018190385759 46.16612325477898082 22.009497869018190385759 17.47516431611620291
23.009497869018190385759 46.80318267072554761 23.009497869018190385759 17.64635222996790631
24.009497869018190385759 47.41383466049449424 24.009497869018190385759 17.80736390007980674
25.009497869018190385759 47.99997679701713338 25.009497869018190385759 17.95902861825646468
26.009497869018190385759 48.56327846275783600 26.009497869018190385759 18.10218734759920522
27.009497869018204596614 49.10526280422478607 27.009497869018204596614 18.23792406533936017
28.009497869018190385759 49.62724996082572204 28.009497869018190385759 18.36650568241671522
29.009497869018190385759 50.13042296066421244 29.009497869018190385759 18.48729561605406957
30.009497869018190385759 50.61588047988675498 30.009497869018190385759 18.60293095216983872
31.009497869018190385759 51.08462899573348182 31.009497869018190385759 18.71245547652282681
32.009497869018190385759 51.53759546540403846 32.009497869018190385759 18.81631586915386123
33.009497869018218807469 51.97564189568108617 33.009497869018218807469 18.91421793271581464
34.009497869018190385759 52.39959048367204986 34.009497869018190385759 19.00850168712446830
35.009497869018218807469 52.81017546112967409 35.009497869018218807469 19.09796228476611546
36.009497869018190385759 53.20807578095003976 36.009497869018190385759 19.18415845208488335
37.009497869018218807469 53.59392043991667265 37.009497869018218807469 19.26683412127049877
38.009497869018190385759 53.96830814879218963 38.009497869018190385759 19.34634226298475568
39.009497869018190385759 54.33178684220328591 39.009497869018190385759 19.42304088887393476
40.009497869018190385759 54.68486955706341490 40.009497869018190385759 19.49652103426556593
41.009497869018190385759 55.02804865406467627 41.009497869018190385759 19.56790459855020003
42.009497869018190385759 55.36177515828346429 42.009497869018190385759 19.63545146902844607
43.009497869018190385759 55.68647468842239334 43.009497869018190385759 19.70192171151419558
44.009497869018218807469 56.00255717188073845 44.009497869018218807469 19.76355719416750745
46.009497869018218807469 56.61039327153454082 46.009497869018218807469 19.88125082554997292
48.009497869018218807469 57.18789942181284403 48.009497869018218807469 19.98932092778988334
50.009497869018218807469 57.73715754449450088 50.009497869018218807469 20.08259662610437957
52.009497869018190385759 58.26024365262483684 52.009497869018190385759 20.16538889144648650
54.009497869018190385759 58.75913285480206838 54.009497869018190385759 20.23941476659990357
56.009497869018190385759 59.23539027697847814 56.009497869018190385759 20.30497162753896490
58.009497869018190385759 59.69036544802996502 58.009497869018190385759 20.36241599080632270
60.009497869018190385759 60.12540156898042198 60.009497869018190385759 20.42252094868024770
62.009497869018190385759 60.54162795958031040 62.009497869018190385759 20.47990653388612259
64.009497869018190385759 60.94022826835767859 64.009497869018190385759 20.53455759657305890
66.009497869018218807469 61.32279835185273242 66.009497869018218807469 20.59228180972799294
68.009497869018218807469 61.69071973521392493 68.009497869018218807469 20.65017622666195152
70.009497869018218807469 62.04481334103606827 70.009497869018218807469 20.69794626394331871
72.009497869018218807469 62.38593753769614381 72.009497869018218807469 20.73055573568192145
74.009497869018190385759 62.71488828394832638 74.009497869018190385759 20.76010857818252120
76.009497869018190385759 63.03230677355135469 76.009497869018190385759 20.78586683596735085
78.009497869018190385759 63.33901610458909914 78.009497869018190385759 20.81752202207502123
80.009497869018190385759 63.63552566980882119 80.009497869018190385759 20.83328748633828553
82.009497869018190385759 63.92182729789267626 82.009497869018190385759 20.85460725283133598
84.009497869018190385759 64.19805070117018886 84.009497869018190385759 20.87131610143401161
86.009497869018190385759 64.46442450999930429 86.009497869018190385759 20.86692593354418435
88.009497869018218807469 64.72161763791942235 88.009497869018218807469 20.86905168144695466
91.009497869018190385759 65.09080078055208674 91.009497869018190385759 20.86103944950938782
94.009497869018218807469 65.44136306585140517 94.009497869018218807469 20.86800575485636600
97.009497869018190385759 65.77583081331644621 97.009497869018190385759 20.89994877048374633
99.504748934509109403734 66.04357170348968964 99.504748934509109403734 20.91565978714963947
nan nan nan nan

