Time Pressure difference Time.1 Pressure.1 difference.1
(hr) (psi) (hr) (psi)
0.000200000000006639311 0.38909219460486949 0.000200000000006639311 0.30726385645602045
0.000399999999999067768 0.70622631128289892 0.000399999999999067768 0.60779441873922080
0.000600000000005707079 0.98830447907211305 0.000600000000005707079 0.81403411751686983
0.000799999999998135536 1.24664053516143647 0.000799999999998135536 0.99938368935230448
0.001007140329434719206 1.49543999631756797 0.001007140329434719206 1.17450790103559255
0.001267914553963578328 1.78751581562368345 0.001267914553963578328 1.37558002942913871
0.001596209851982166583 2.12890976268515830 0.001596209851982166583 1.60417774144189895
0.002009509145224797066 2.52625486357871898 0.002009509145224797066 1.86296910725135501
0.002529822128138903281 2.98682105531444897 0.002529822128138903281 2.15484946251453957
0.003184857364431081805 3.51857397073019085 0.003184857364431081805 2.48300561090845928
0.004009497869020606231 4.13025006846603571 0.004009497869020606231 2.85099282509244878
0.005047658755842121536 4.83145075024731874 0.005047658755842121536 3.26282179102427383
0.006354625877790454069 5.63275734981151910 0.006354625877790454069 3.72305223936728602
0.008000000000009777068 6.54586811433165927 0.008000000000009777068 4.23689041972886837
0.010071403294347192059 7.58375772234849421 0.010071403294347192059 4.81028853323646288
0.012679145539706837553 8.76085954820422863 0.012679145539706837553 5.45004438190031593
0.015962098519750611558 10.09327035383705962 0.015962098519750611558 6.16389661565918523
0.020095091452091651263 11.59897540589486198 0.020095091452091651263 6.96060734429928463
0.025298221281360611101 13.29808978845601608 0.025298221281360611101 7.85003533643671325
0.031848573644296607199 15.21311522628613844 0.031848573644296607199 8.84324773257810115
0.040094978690177640601 17.36923001917573472 0.040094978690177640601 9.95276058629644034
0.050476587558421215363 19.79465263691554711 0.050476587558421215363 11.19291118168699484
0.063546258777961384112 22.52109742589900065 0.063546258777961384112 12.58005046443872210
0.079999999999998294697 25.58421882056704888 0.079999999999998294697 14.13187980149009704
0.100714032943542974863 29.02375068566883343 0.100714032943542974863 15.86531864908869593
0.126791455396897845276 32.88295426687204071 0.126791455396897845276 17.79299221227995531
0.159620985197506115583 37.20712220550404226 0.159620985197506115583 19.91956096159709944
0.200950914520760193227 42.04131442005375874 0.200950914520760193227 22.23968484326874773
0.252982212813478213320 47.42789776488090325 0.252982212813478213320 24.73923980738322115
0.318485736442795541734 53.40480703436426779 0.318485736442795541734 27.39784854080608056
0.400949786901833249431 60.00420504652835518 0.400949786901833249431 30.19707019858615737
0.504765875584155310207 67.25444422377830733 0.504765875584155310207 33.12314000159901184
0.635462587779443310865 75.17990267989526387 0.635462587779443310865 36.17070539544757679
0.799999999999997157829 83.80453483824568650 0.799999999999997157829 39.34823019939209132
1.007140329435344483500 93.15401434912084255 1.007140329435344483500 42.68474062097104138
1.267914553968893187630 103.26209902537395635 1.267914553968893187630 46.19206026932983633
1.596209851975103788391 114.15527561848800531 1.596209851975103788391 49.93926474028493345
2.009509145207672986544 125.89238783367402164 2.009509145207672986544 53.95692813555479006
2.529822128134711078928 138.50554724927729922 2.529822128134711078928 58.31407359958591030
3.184857364427998049905 152.07309087761990440 3.184857364427998049905 63.10634738995069171
4.009497869018190385759 166.65492070765449739 4.009497869018190385759 68.35765783398086626
5.009497869018204596614 181.78622687682968717 5.009497869018204596614 73.90431735743689501
6.009497869018204596614 194.94169560489859805 6.009497869018204596614 78.77357282132506100
7.009497869018204596614 206.63271235171274043 7.009497869018204596614 83.11031813297681481
8.009497869018204596614 217.18021287718173085 8.009497869018204596614 86.99670580257341612
9.009497869018204596614 226.80117581953103922 9.009497869018204596614 90.50505180355027335
10.009497869018190385759 235.65091786681054487 10.009497869018190385759 93.68306525790394801
11.009497869018190385759 243.84554301507290575 11.009497869018190385759 96.55024633242842924
12.009497869018190385759 251.47488476439352212 12.009497869018190385759 99.16931775783285730
13.009497869018190385759 258.60997346189697055 13.009497869018190385759 101.56797390994177022
14.009497869018190385759 265.30902397397250070 14.009497869018190385759 103.76640787680794631
15.009497869018190385759 271.61898169101408484 15.009497869018190385759 105.78874783248889457
16.009497869018204596614 277.57881096838764279 16.009497869018204596614 107.65591188275325862
17.009497869018204596614 283.22269449799296126 17.009497869018204596614 109.38718175192035176
18.009497869018204596614 288.58024959366872508 18.009497869018204596614 111.00318221644559458
19.009497869018204596614 293.67663533776033091 19.009497869018204596614 112.50821744005163794
20.009497869018204596614 298.53460163398057148 20.009497869018204596614 113.91044078773256842
21.009497869018204596614 303.17272789876818706 21.009497869018204596614 115.21641319927690006
22.009497869018190385759 307.60688646934255530 22.009497869018190385759 116.43777962803514470
23.009497869018190385759 311.85164105602996187 23.009497869018190385759 117.57841214098179705
24.009497869018190385759 315.92044181394703628 24.009497869018190385759 118.65123989944481764
25.009497869018190385759 319.82593235403805920 25.009497869018190385759 119.66178851077404488
26.009497869018190385759 323.57923584424509045 26.009497869018190385759 120.61566134867732103
27.009497869018204596614 327.19050107597604438 27.009497869018204596614 121.52008100057638273
28.009497869018190385759 330.66852419550178865 28.009497869018190385759 122.37682590566788576
29.009497869018190385759 334.02118777051259713 29.009497869018190385759 123.18165448522982786
30.009497869018190385759 337.25581232794110065 30.009497869018190385759 123.95213775739250650
31.009497869018190385759 340.37910406939812447 31.009497869018190385759 124.68190442509232696
32.009497869018190385759 343.39723935100738572 32.009497869018190385759 125.37393073686212119
33.009497869018218807469 346.31596176144023502 33.009497869018218807469 126.02625644298689167
34.009497869018190385759 349.14074963577138533 34.009497869018190385759 126.65447319790543190
35.009497869018218807469 351.87649519209230675 35.009497869018218807469 127.25055304958293334
36.009497869018190385759 354.52772232306926981 36.009497869018190385759 127.82488186008731645
37.009497869018218807469 357.09862206161869835 37.009497869018218807469 128.37575343846538090
38.009497869018190385759 359.59318364358279041 38.009497869018190385759 128.90551964358320447
39.009497869018190385759 362.01505798120234658 39.009497869018190385759 129.41656592260568459
40.009497869018190385759 364.36766346173772035 40.009497869018190385759 129.90616732613904105
41.009497869018190385759 366.65428070588745868 41.009497869018190385759 130.38179911860081006
42.009497869018190385759 368.87791491334525062 42.009497869018190385759 130.83186685341780731
43.009497869018190385759 371.04140200003178052 43.009497869018190385759 131.27476096911090053
44.009497869018218807469 373.14747333003145968 44.009497869018218807469 131.68544086983348507
46.009497869018218807469 377.19751168968122101 46.009497869018218807469 132.46963865284928374
48.009497869018218807469 381.04546027794856400 48.009497869018218807469 133.18971444277391925
50.009497869018218807469 384.70519103016442841 50.009497869018218807469 133.81121447610851760
52.009497869018190385759 388.19053651151114082 52.009497869018190385759 134.36286293974669093
54.009497869018190385759 391.51465695645288179 54.009497869018190385759 134.85610056441021243
56.009497869018190385759 394.68798086725877283 56.009497869018190385759 135.29290877914550606
58.009497869018190385759 397.71950021350403404 58.009497869018190385759 135.67566306917689190
60.009497869018190385759 400.61816480201088098 60.009497869018190385759 136.07614501674990493
62.009497869018190385759 403.39149933937750347 62.009497869018190385759 136.45850766600210591
64.009497869018190385759 406.04739052720930204 64.009497869018190385759 136.82265007281830549
66.009497869018218807469 408.59647162701878642 66.009497869018218807469 137.20726901481802429
68.009497869018218807469 411.04794780093624240 68.009497869018218807469 137.59302203199757741
70.009497869018218807469 413.40728889190341988 70.009497869018218807469 137.91131586736148051
72.009497869018218807469 415.68021424573629474 72.009497869018218807469 138.12859419535888605
74.009497869018190385759 417.87202737022084875 74.009497869018190385759 138.32550606984659680
76.009497869018190385759 419.98700056724982232 76.009497869018190385759 138.49713446139114126
78.009497869018190385759 422.03061817514259246 78.009497869018190385759 138.70805434273898982
80.009497869018190385759 424.00627429992186990 80.009497869018190385759 138.81310031658009052
82.009497869018190385759 425.91391449574143735 82.009497869018190385759 138.95515484766966097
84.009497869018190385759 427.75440304149259418 84.009497869018190385759 139.06648663238098607
86.009497869018190385759 429.52926331119095948 86.009497869018190385759 139.03723475285417521
88.009497869018218807469 431.24295230483267005 88.009497869018218807469 139.05139870355415610
91.009497869018190385759 433.70283563563515372 91.009497869018190385759 138.99801285379626847
94.009497869018218807469 436.03864738442291582 94.009497869018218807469 139.04442964920602321
97.009497869018190385759 438.26722052785851247 97.009497869018190385759 139.25726735115799215
99.504748934509109403734 440.05118971999104360 99.504748934509109403734 139.36195053829052881
nan nan nan nan

