Time Pressure difference Time.1 Pressure.1 difference.1
(hr) (psi) (hr) (psi)
0.000200000000006639311 0.64933330355755547 0.000200000000006639311 0.51277475555384811
0.000399999999999067768 1.17857996156999278 0.000399999999999067768 1.01431270859742728
0.000600000000005707079 1.64932378807629942 0.000600000000005707079 1.35849413086420556
0.000799999999998135536 2.08044578706386529 0.000799999999998135536 1.66781323687994698
0.001007140329434719206 2.49565271816129197 0.001007140329434719206 1.96006783484406411
0.001267914553963578328 2.98308104303919741 0.001267914553963578328 2.29562539984667069
0.001596209851982166583 3.55281351913037025 0.001596209851982166583 2.67711880831168436
0.002009509145224797066 4.21591961735893950 0.002009509145224797066 3.10900064717477331
0.002529822128138903281 4.98453171221318314 0.002529822128138903281 3.59610277349490026
0.003184857364431081805 5.87194318443227647 0.003184857364431081805 4.14374345833499813
0.004009497869020606231 6.89273380104527611 0.004009497869020606231 4.75785588918364599
0.005047658755842121536 8.06292678222350112 0.005047658755842121536 5.44513326626073813
0.006354625877790454069 9.40018069960389013 0.006354625877790454069 6.21318505851995617
0.008000000000009777068 10.92401807660895230 0.008000000000009777068 7.07069967272860112
0.010071403294347192059 12.65609159863378252 0.010071403294347192059 8.02761039070293947
0.012679145539706837553 14.62048828354473784 0.012679145539706837553 9.09526166832630167
0.015962098519750611558 16.84407107989447283 0.015962098519750611558 10.28656808779665077
0.020095091452091651263 19.35685455176255232 0.020095091452091651263 11.61615222384692991
0.025298221281360611101 22.19240759150163811 0.025298221281360611101 13.10046680126387741
0.031848573644296607199 25.38828201711373467 0.031848573644296607199 14.75798112630896775
0.040094978690177640601 28.98649642678103788 0.040094978690177640601 16.60958251187807377
0.050476587558421215363 33.03414298134519100 0.050476587558421215363 18.67919761642054866
0.063546258777961384112 37.58414790651660553 0.063546258777961384112 20.99411358094749147
0.079999999999998294697 42.69601281148464977 0.079999999999998294697 23.58387118584725428
0.100714032943542974863 48.43604722910150429 0.100714032943542974863 26.47670632629320409
0.126791455396897845276 54.87644733280603759 0.126791455396897845276 29.69368847171679349
0.159620985197506115583 62.09279937394883575 0.159620985197506115583 33.24259520997362216
0.200950914520760193227 70.16030122628875176 0.200950914520760193227 37.11451483631962134
0.252982212813478213320 79.14965646569845603 0.252982212813478213320 41.28587654641604843
0.318485736442795541734 89.12417226126370906 0.318485736442795541734 45.72267382911031319
0.400949786901833249431 100.13752326688174321 0.400949786901833249431 50.39413183222453085
0.504765875584155310207 112.23702518911125026 0.504765875584155310207 55.27727931751352486
0.635462587779443310865 125.46336124230481346 0.635462587779443310865 60.36318371866699550
0.799999999999997157829 139.85650756855682175 0.799999999999997157829 65.66596981073101347
1.007140329435344483500 155.45930942765193095 1.007140329435344483500 71.23407774103324641
1.267914553968893187630 172.32810326746746910 1.267914553968893187630 77.08723924229107638
1.596209851975103788391 190.50709128501341638 1.596209851975103788391 83.34073055352607184
2.009509145207672986544 210.09447431296661080 2.009509145207672986544 90.04557501251639451
2.529822128134711078928 231.14384149430776461 2.529822128134711078928 97.31696132524696452
3.184857364427998049905 253.78592490669683457 3.184857364427998049905 105.31450796071706577
4.009497869018190385759 278.12069149091439613 4.009497869018190385759 114.07811413403331358
5.009497869018204596614 303.37244713702568788 5.009497869018204596614 123.33461118541262636
6.009497869018204596614 325.32684274683725789 6.009497869018204596614 131.46062805255388639
7.009497869018204596614 344.83729973214053643 7.009497869018204596614 138.69796973904612969
8.009497869018204596614 362.43940909193622701 8.009497869018204596614 145.18373578471877750
9.009497869018204596614 378.49527383911947709 9.009497869018204596614 151.03861010608798665
10.009497869018190385759 393.26409294901662861 10.009497869018190385759 156.34221167836170707
11.009497869018190385759 406.93962561895517638 11.009497869018190385759 161.12708319424845627
12.009497869018190385759 419.67178974547232428 12.009497869018190385759 165.49789896617130580
13.009497869018190385759 431.57912373820653329 13.009497869018190385759 169.50087652507411917
14.009497869018190385759 442.75877899734723542 14.009497869018190385759 173.16971493959957229
15.009497869018190385759 453.28909995090936036 15.009497869018190385759 176.54468031425145114
16.009497869018204596614 463.23511194234998811 16.009497869018204596614 179.66068165751482866
17.009497869018204596614 472.65386047544336634 17.009497869018204596614 182.54989711617375292
18.009497869018204596614 481.59477216039658742 18.009497869018204596614 185.24674617850544678
19.009497869018204596614 490.09983352451678229 19.009497869018204596614 187.75841181267998081
20.009497869018204596614 498.20701055719757733 20.009497869018204596614 190.09850069469888467
21.009497869018204596614 505.94730936450230274 21.009497869018204596614 192.27796199487809758
22.009497869018190385759 513.34721836564017394 22.009497869018190385759 194.31622929768343511
23.009497869018190385759 520.43104208861120696 23.009497869018190385759 196.21976447018658973
24.009497869018190385759 527.22122671397676186 24.009497869018190385759 198.01014423675701437
25.009497869018190385759 533.73887242770138073 25.009497869018190385759 199.69658996169960119
26.009497869018190385759 540.00254203697022604 26.009497869018190385759 201.28845278906507588
27.009497869018204596614 546.02917226871693401 27.009497869018204596614 202.79778607437134497
28.009497869018190385759 551.83344249918161495 28.009497869018190385759 204.22755775122064392
29.009497869018190385759 557.42850748651619597 29.009497869018190385759 205.57068929590556650
30.009497869018190385759 562.82658403178425033 30.009497869018190385759 206.85650395727984119
31.009497869018190385759 568.03886372429735729 31.009497869018190385759 208.07436904872665195
32.009497869018190385759 573.07565392509059166 32.009497869018190385759 209.22925145809131209
33.009497869018218807469 577.94653977480163576 33.009497869018218807469 210.31787983878561477
34.009497869018190385759 582.66066374778813497 34.009497869018190385759 211.36627419487319912
35.009497869018218807469 587.22619018190937368 35.009497869018218807469 212.36103714473628656
36.009497869018190385759 591.65066873817272608 36.009497869018190385759 213.31950104872649376
37.009497869018218807469 595.94109358733430781 37.009497869018218807469 214.23881854412738335
38.009497869018190385759 600.10412213276538296 38.009497869018190385759 215.12291451123263641
39.009497869018190385759 604.14584716928220587 39.009497869018190385759 215.97576988389167241
40.009497869018190385759 608.07197344430289832 40.009497869018190385759 216.79283715275732902
41.009497869018190385759 611.88797579465392573 41.009497869018190385759 217.58659135127018658
42.009497869018190385759 615.59886942308673952 42.009497869018190385759 218.33768318278373499
43.009497869018190385759 619.20938702452281177 43.009497869018190385759 219.07680337911980928
44.009497869018218807469 622.72408681341300962 44.009497869018218807469 219.76216314818867659
46.009497869018218807469 629.48295996499814464 46.009497869018218807469 221.07086515801759674
48.009497869018218807469 635.90457726646229730 48.009497869018218807469 222.27255770792447720
50.009497869018218807469 642.01208878280306180 50.009497869018218807469 223.30974291853024738
52.009497869018190385759 647.82857887646969175 52.009497869018190385759 224.23035691249737056
54.009497869018190385759 653.37600989633176596 54.009497869018190385759 225.05349245904019995
56.009497869018190385759 658.67178536248900400 56.009497869018190385759 225.78245624969957817
58.009497869018190385759 663.73091144928969243 58.009497869018190385759 226.42121259342243889
60.009497869018190385759 668.56832396811921626 60.009497869018190385759 227.08955359239010363
62.009497869018190385759 673.19658046359404580 62.009497869018190385759 227.72765634962505032
64.009497869018190385759 677.62884259271640985 64.009497869018190385759 228.33535240537216282
66.009497869018218807469 681.88285558636255246 66.009497869018218807469 228.97722055817104092
68.009497869018218807469 685.97398140352004248 68.009497869018218807469 229.62098130299105492
70.009497869018218807469 689.91134834652064001 70.009497869018218807469 230.15216334797844411
72.009497869018218807469 693.70450109851253728 72.009497869018218807469 230.51476649568047605
74.009497869018190385759 697.36229037477323800 74.009497869018190385759 230.84338125522521068
76.009497869018190385759 700.89184597112011943 76.009497869018190385759 231.12980188254999803
78.009497869018190385759 704.30232038037661368 78.009497869018190385759 231.48179378894286629
80.009497869018190385759 707.59937782841780063 80.009497869018190385759 231.65709889700067947
82.009497869018190385759 710.78292745374142214 82.009497869018190385759 231.89416543093975065
84.009497869018190385759 713.85441160105540348 84.009497869018190385759 232.07996056268470397
86.009497869018190385759 716.81637254053555353 86.009497869018190385759 232.03114380451850707
88.009497869018218807469 719.67624829990836588 88.009497869018218807469 232.05478119695905548
91.009497869018190385759 723.78140433157386724 91.009497869018190385759 231.96568866139244847
94.009497869018218807469 727.67950452571733422 94.009497869018218807469 232.04315094802242925
97.009497869018190385759 731.39864045676870319 97.009497869018190385759 232.39834339353120640
99.504748934509109403734 734.37580274641254618 99.504748934509109403734 232.57304306797914251
nan nan nan nan

