Time Pressure difference Time.1 Pressure.1 difference.1
(hr) (psi) (hr) (psi)
0.000200000000006639311 0.68424369622194015 0.000200000000006639311 0.54034329079867860
0.000399999999999067768 1.24194447563289567 0.000399999999999067768 1.06884564991986974
0.000600000000005707079 1.73799711001588553 0.000600000000005707079 1.43153144972787238
0.000799999999998135536 2.19229771109955740 0.000799999999998135536 1.75748061520682608
0.001007140329434719206 2.62982759548179201 0.001007140329434719206 2.06544782596471288
0.001267914553963578328 3.14346174427786451 0.001267914553963578328 2.41904612026853449
0.001596209851982166583 3.74382499865350882 0.001596209851982166583 2.82104992703811952
0.002009509145224797066 4.44258196237823721 0.002009509145224797066 3.27615121960352473
0.002529822128138903281 5.25251728813862329 0.002529822128138903281 3.78944163228494890
0.003184857364431081805 6.18763905456304375 0.003184857364431081805 4.36652536469709496
0.004009497869020606231 7.26331088712297923 0.004009497869020606231 5.01365459290319748
0.005047658755842121536 8.49641746943981957 0.005047658755842121536 5.73788236659733730
0.006354625877790454069 9.90556675872237946 0.006354625877790454069 6.54722726596726634
0.008000000000009777068 11.51133087642663710 0.008000000000009777068 7.45084481642368690
0.010071403294347192059 13.33652663081839584 0.010071403294347192059 8.45920234719234543
0.012679145539706837553 15.40653604072456240 0.012679145539706837553 9.58425423113954444
0.015962098519750611558 17.74966629924363559 0.015962098519750611558 10.83960938283948039
0.020095091452091651263 20.39754565669602115 0.020095091452091651263 12.24067653695697899
0.025298221281360611101 23.38554778459312544 0.025298221281360611101 13.80479297337483935
0.031848573644296607199 26.75324341588328991 0.031848573644296607199 15.55142097180945093
0.040094978690177640601 30.54491021316711397 0.040094978690177640601 17.50257081896829092
0.050476587558421215363 34.81017217389063489 0.050476587558421215363 19.68345555278724390
0.063546258777961384112 39.60480101977017853 0.063546258777961384112 22.12282936486939988
0.079999999999998294697 44.99149737124189130 0.079999999999998294697 24.85182124960248373
0.100714032943542974863 51.04013578980588051 0.100714032943542974863 27.90018516104015234
0.126791455396897845276 57.82679396360205715 0.126791455396897845276 31.29012333578758742
0.159620985197506115583 65.43112192093533963 0.159620985197506115583 35.02983151158510111
0.200950914520760193227 73.93236043200319330 0.200950914520760193227 39.10991885977766458
0.252982212813478213320 83.40501434019837745 0.252982212813478213320 43.50554732848141981
0.318485736442795541734 93.91579442584777837 0.318485736442795541734 48.18088209949258527
0.400949786901833249431 105.52126107692915014 0.400949786901833249431 53.10349375868821653
0.504765875584155310207 118.27127385519250424 0.504765875584155310207 58.24917605501424589
0.635462587779443310865 132.20870324457925449 0.635462587779443310865 63.60851617665985458
0.799999999999997157829 147.37567464213515223 0.799999999999997157829 69.19639829517892338
1.007140329435344483500 163.81733681623538246 1.007140329435344483500 75.06386686689525334
1.267914553968893187630 181.59305505604098130 1.267914553968893187630 81.23171447037123016
1.596209851975103788391 200.74940802076682189 1.596209851975103788391 87.82141499188770695
2.009509145207672986544 221.38987615774979645 2.009509145207672986544 94.88673495942587977
2.529822128134711078928 243.57092974668992724 2.529822128134711078928 102.54905602015271882
3.184857364427998049905 267.43032947157303170 3.184857364427998049905 110.97657828118572354
4.009497869018190385759 293.07341683988829573 4.009497869018190385759 120.21134607672328798
5.009497869018204596614 319.68279375729588310 5.009497869018204596614 129.96550425989718747
6.009497869018204596614 342.81753321709737747 6.009497869018204596614 138.52840375430409381
7.009497869018204596614 363.37693950268572962 7.009497869018204596614 146.15484983254322060
8.009497869018204596614 381.92539882806187279 8.009497869018204596614 152.98931297744559288
9.009497869018204596614 398.84448211003990536 9.009497869018204596614 159.15896548813572053
10.009497869018190385759 414.40732375272716581 10.009497869018190385759 164.74770692988653309
11.009497869018190385759 428.81810011459793941 11.009497869018190385759 169.78982960254137424
12.009497869018190385759 442.23478919415367727 12.009497869018190385759 174.39563546972891572
13.009497869018190385759 454.78230243380903630 13.009497869018190385759 178.61382687588454132
14.009497869018190385759 466.56301442731216866 14.009497869018190385759 182.47991466753504142
15.009497869018190385759 477.65948166870015257 15.009497869018190385759 186.03632979351226595
16.009497869018204596614 488.14022548763756504 16.009497869018204596614 189.31985809071454696
17.009497869018204596614 498.06535835046724969 17.009497869018204596614 192.36440771381751347
18.009497869018204596614 507.48696421203084128 18.009497869018204596614 195.20624866122076924
19.009497869018204596614 516.44928693981341894 19.009497869018204596614 197.85295008217892132
20.009497869018204596614 524.99233370543402089 20.009497869018204596614 200.31885019441386930
21.009497869018204596614 533.14877760990566458 21.009497869018204596614 202.61548683331238863
22.009497869018190385759 540.94653118099711264 22.009497869018190385759 204.76333839970942563
23.009497869018190385759 548.41120564176230801 23.009497869018190385759 206.76921417288477301
24.009497869018190385759 555.56645395666373588 24.009497869018190385759 208.65585091615253077
25.009497869018190385759 562.43451073026608356 25.009497869018190385759 210.43296576609205317
26.009497869018190385759 569.03493677014068908 26.009497869018190385759 212.11041261643418920
27.009497869018204596614 575.38557937993823543 27.009497869018204596614 213.70089285256338485
28.009497869018190385759 581.50190714967527583 28.009497869018190385759 215.20753397440455501
29.009497869018190385759 587.39778208256541348 29.009497869018190385759 216.62287689245962952
30.009497869018190385759 593.08607779693397788 30.009497869018190385759 217.97782137433787852
31.009497869018190385759 598.57858758044233127 31.009497869018190385759 219.26116308360442986
32.009497869018190385759 603.88617295332130652 32.009497869018190385759 220.47813594508548363
33.009497869018218807469 609.01893438635011080 33.009497869018218807469 221.62529273334399704
34.009497869018190385759 613.98650588476596113 34.009497869018190385759 222.73005237739326390
35.009497869018218807469 618.79749072932372655 35.009497869018218807469 223.77829720628122345
36.009497869018190385759 623.45984447678415563 36.009497869018190385759 224.78829142769026816
37.009497869018218807469 627.98093732858887961 37.009497869018218807469 225.75703459488693170
38.009497869018190385759 632.36778461302151300 38.009497869018190385759 226.68866260323440542
39.009497869018190385759 636.62680669451242466 39.009497869018190385759 227.58737041528371492
40.009497869018190385759 640.76401502732994686 40.009497869018190385759 228.44836603193783731
41.009497869018190385759 644.78517879436651583 41.009497869018190385759 229.28479518735994702
42.009497869018190385759 648.69558283293008571 42.009497869018190385759 230.07626830013768426
43.009497869018190385759 652.50021428390584788 43.009497869018190385759 230.85512614143809174
44.009497869018218807469 656.20387642703735764 44.009497869018218807469 231.57733320991926007
46.009497869018218807469 663.32612985558944274 46.009497869018218807469 232.95639554285727968
48.009497869018218807469 670.09299539906783139 48.009497869018218807469 234.22269521910320123
50.009497869018218807469 676.52886774962041727 50.009497869018218807469 235.31564307544047665
52.009497869018190385759 682.65807236445186845 52.009497869018190385759 236.28575244542733458
54.009497869018190385759 688.50375236387640143 54.009497869018190385759 237.15314259124667728
56.009497869018190385759 694.08424694111738518 56.009497869018190385759 237.92129798355441039
58.009497869018190385759 699.41536905409020619 58.009497869018190385759 238.59439606618710172
60.009497869018190385759 704.51285751479224473 60.009497869018190385759 239.29866937692725060
62.009497869018190385759 709.38994500464752946 62.009497869018190385759 239.97107873401350275
64.009497869018190385759 714.06050079662577446 64.009497869018190385759 240.61144662071475864
66.009497869018218807469 718.54322416627451275 66.009497869018218807469 241.28782381398667667
68.009497869018218807469 722.85430298435437635 68.009497869018218807469 241.96619535153897118
70.009497869018218807469 727.00335632214000725 70.009497869018218807469 242.52593557098802535
72.009497869018218807469 731.00044201778746356 72.009497869018218807469 242.90803351157728684
74.009497869018190385759 734.85488663148134947 74.009497869018190385759 243.25431573131257323
76.009497869018190385759 738.57420328139528465 76.009497869018190385759 243.55613531709570907
78.009497869018190385759 742.16803652985925055 78.009497869018190385759 243.92705151953123277
80.009497869018190385759 745.64235513102084951 80.009497869018190385759 244.11178163339855018
82.009497869018190385759 748.99706333835115402 82.009497869018190385759 244.36159367991498925
84.009497869018190385759 752.23368104197231787 84.009497869018190385759 244.55737779723767744
86.009497869018190385759 755.35488719325257989 86.009497869018190385759 244.50593648218077192
88.009497869018218807469 758.36851971388193761 88.009497869018218807469 244.53084470217194735
91.009497869018190385759 762.69438305907783615 91.009497869018190385759 244.43696224533826467
94.009497869018218807469 766.80205853247628056 94.009497869018218807469 244.51858917103442081
97.009497869018190385759 770.72114800820793334 97.009497869018190385759 244.89287798458124712
99.504748934509109403734 773.85837278654219062 99.504748934509109403734 245.07697011464469483
nan nan nan nan

