Time Pressure difference Time.1 Pressure.1 difference.1
(hr) (psi) (hr) (psi)
0.000200000000006639311 0.22025284099166348 0.000200000000006639311 0.17393239509011268
0.000399999999999067768 0.39977247963322338 0.000399999999999067768 0.34405328434340887
0.000600000000005707079 0.55944804932793346 0.000600000000005707079 0.46079908446713513
0.000799999999998135536 0.70568395709790932 0.000799999999998135536 0.56571964144412668
0.001007140329434719206 0.84652149873115190 0.001007140329434719206 0.66485194397936487
0.001267914553963578328 1.01185642417849619 0.001267914553963578328 0.77867254520703288
0.001596209851982166583 1.20510878899143559 0.001596209851982166583 0.90807451269223316
0.002009509145224797066 1.43003334039447871 0.002009509145224797066 1.05456815695957618
0.002529822128138903281 1.69074536083868487 0.002529822128138903281 1.21979243636630552
0.003184857364431081805 1.99175394427956975 0.003184857364431081805 1.40555130013904628
0.004009497869020606231 2.33800452489023547 0.004009497869020606231 1.61385727619425734
0.005047658755842121536 2.73493215389203836 0.005047658755842121536 1.84698068757817802
0.006354625877790454069 3.18852659116573767 0.006354625877790454069 2.10750265425848005
0.008000000000009777068 3.70540984612248891 0.008000000000009777068 2.39837027022172489
0.010071403294347192059 4.29292647578291575 0.010071403294347192059 2.72295288912406663
0.012679145539706837553 4.95924675893452971 0.012679145539706837553 3.08509853265809042
0.015962098519750611558 5.71348256571200608 0.015962098519750611558 3.48918780690658625
0.020095091452091651263 6.56581478930753182 0.020095091452091651263 3.94018066634886077
0.025298221281360611101 7.52762994550446596 0.025298221281360611101 4.44365784950006493
0.031848573644296607199 8.61166555223701380 0.031848573644296607199 5.00588411615758755
0.040094978690177640601 9.83217425229034170 0.040094978690177640601 5.63394441018738146
0.050476587558421215363 11.20512963296850728 0.050476587558421215363 6.33595461671351945
0.063546258777961384112 12.74848418725441057 0.063546258777961384112 7.12117049128912960
0.079999999999998294697 14.48242076792294775 0.079999999999998294697 7.99961222041935294
0.100714032943542974863 16.42943146480764582 0.100714032943542974863 8.98085737558528230
0.126791455396897845276 18.61400510702218369 0.126791455396897845276 10.07205268786483643
0.159620985197506115583 21.06178043280571544 0.159620985197506115583 11.27583630289427852
0.200950914520760193227 23.79826444332570290 0.200950914520760193227 12.58918538436256895
0.252982212813478213320 26.84743968093584598 0.252982212813478213320 14.00410475230338925
0.318485736442795541734 30.23077983837585947 0.318485736442795541734 15.50905945132089592
0.400949786901833249431 33.96649127429908788 0.400949786901833249431 17.09361069968906577
0.504765875584155310207 38.07062340236715414 0.504765875584155310207 18.74996668932276833
0.635462587779443310865 42.55697590525881679 0.635462587779443310865 20.47509750770034032
0.799999999999997157829 47.43910862784869664 0.799999999999997157829 22.27379425642586952
1.007140329435344483500 52.73155461524459753 1.007140329435344483500 24.16248775771117963
1.267914553968893187630 58.45342310245474948 1.267914553968893187630 26.14787098443304458
1.596209851975103788391 64.61970740557150350 1.596209851975103788391 28.26904545657238543
2.009509145207672986544 71.26371709345006877 2.009509145207672986544 30.54331821050165274
2.529822128134711078928 78.40362951957457938 2.529822128134711078928 33.00976107513264424
3.184857364427998049905 86.08378880021876967 3.184857364427998049905 35.72251638550226716
4.009497869018190385759 94.33810356534438313 4.009497869018190385759 38.69511789297122561
5.009497869018204596614 102.90345958606835097 5.009497869018204596614 41.83490721538434087
6.009497869018204596614 110.35035623964080287 6.009497869018204596614 44.59123942740585989
7.009497869018204596614 116.96827273416693060 7.009497869018204596614 47.04613440806354419
8.009497869018204596614 122.93888069882881098 8.009497869018204596614 49.24609610684008487
9.009497869018204596614 128.38500490926145403 9.009497869018204596614 51.23206031946484273
10.009497869018190385759 133.39456525250122354 10.009497869018190385759 53.03103367780207122
11.009497869018190385759 138.03328454523702362 11.009497869018190385759 54.65405461232082729
12.009497869018190385759 142.35201470349844044 12.009497869018190385759 56.13662848608156963
13.009497869018190385759 146.39096377043759389 13.009497869018190385759 57.49443221329492815
14.009497869018190385759 150.18308534905133911 14.009497869018190385759 58.73889646533827147
15.009497869018190385759 153.75495374678939697 15.009497869018190385759 59.88367944188195935
16.009497869018204596614 157.12862545845106865 16.009497869018204596614 60.94062222400552287
17.009497869018204596614 160.32345022969585102 17.009497869018204596614 61.92063958877057672
18.009497869018204596614 163.35619348940139162 18.009497869018204596614 62.83540657276773800
19.009497869018204596614 166.24109700196220274 19.009497869018204596614 63.68735962756593949
20.009497869018204596614 168.99103877160072784 20.009497869018204596614 64.48111411638367940
21.009497869018204596614 171.61653602099929117 21.009497869018204596614 65.22038398066734999
22.009497869018190385759 174.12657358052504719 22.009497869018190385759 65.91176106187306516
23.009497869018190385759 176.52939550806263469 23.009497869018190385759 66.55743721520502731
24.009497869018190385759 178.83261551295206004 24.009497869018190385759 67.16473123182275629
25.009497869018190385759 181.04339074527115372 25.009497869018190385759 67.73677098407601704
26.009497869018190385759 183.16801768018441976 26.009497869018190385759 68.27672836540135393
27.009497869018204596614 185.21224122897828579 27.009497869018204596614 68.78869185513867990
28.009497869018190385759 187.18104061311439068 28.009497869018190385759 69.27366817172392643
29.009497869018190385759 189.07887790598348943 29.009497869018190385759 69.72925629098654099
30.009497869018190385759 190.90989702739895506 30.009497869018190385759 70.16540261307537207
31.009497869018190385759 192.67789414695130290 31.009497869018190385759 70.57850054731979128
32.009497869018190385759 194.38636550538262782 32.009497869018190385759 70.97023485430858614
33.009497869018218807469 196.03856236740583086 33.009497869018218807469 71.33949589839552630
34.009497869018190385759 197.63758584602393853 34.009497869018190385759 71.69510962426295464
35.009497869018218807469 199.18620527186953950 35.009497869018218807469 72.03253166102003036
36.009497869018190385759 200.68698147814851040 36.009497869018190385759 72.35764111818973277
37.009497869018218807469 202.14228687664225959 37.009497869018218807469 72.66947217479199139
38.009497869018190385759 203.55437964816184149 38.009497869018190385759 72.96935614408380388
39.009497869018190385759 204.92532645917978584 39.009497869018190385759 73.25864335260060045
40.009497869018190385759 206.25706235109788622 40.009497869018190385759 73.53579129228425870
41.009497869018190385759 207.55144438000482410 41.009497869018190385759 73.80503147496651195
42.009497869018190385759 208.81017369483001289 42.009497869018190385759 74.05980064948774100
43.009497869018190385759 210.03485561828881600 43.009497869018190385759 74.31050906408071910
44.009497869018218807469 211.22703628959365574 44.009497869018218807469 74.54298202582745603
46.009497869018218807469 213.51963549154874045 46.009497869018218807469 74.98689170071564547
48.009497869018218807469 215.69783803662016908 48.009497869018218807469 75.39450393416402108
50.009497869018218807469 217.76949639064773123 50.009497869018218807469 75.74631553541543383
52.009497869018190385759 219.74244073326977400 52.009497869018190385759 76.05858636230360048
54.009497869018190385759 221.62412065887301083 54.009497869018190385759 76.33779265228442057
56.009497869018190385759 223.42043941425578168 56.009497869018190385759 76.58505602995674622
58.009497869018190385759 225.13648707028693252 58.009497869018190385759 76.80172118271514137
60.009497869018190385759 226.77732983082830742 60.009497869018190385759 77.02842140426136552
62.009497869018190385759 228.34722719537356284 62.009497869018190385759 77.24486486150526332
64.009497869018190385759 229.85064357739253182 64.009497869018190385759 77.45099441316142475
66.009497869018218807469 231.29359813144455416 66.009497869018218807469 77.66871508669144930
68.009497869018218807469 232.68130160999163536 68.009497869018218807469 77.88707772447496325
70.009497869018218807469 234.01685031890781374 70.009497869018218807469 78.06725384335143758
72.009497869018218807469 235.30348179978869894 72.009497869018218807469 78.19024826393072658
74.009497869018190385759 236.54419820141376363 74.009497869018190385759 78.30171387640582736
76.009497869018190385759 237.74141793937306488 76.009497869018190385759 78.39886730522468383
78.009497869018190385759 238.89824552491759846 78.009497869018190385759 78.51826240934818202
80.009497869018190385759 240.01660225460503284 80.009497869018190385759 78.57772562781939030
82.009497869018190385759 241.09645730835606514 82.009497869018190385759 78.65813822535297106
84.009497869018190385759 242.13829992723970008 84.009497869018190385759 78.72115964345219652
86.009497869018190385759 243.14299244532341504 86.009497869018190385759 78.70460107543296147
88.009497869018218807469 244.11305782997871461 88.009497869018218807469 78.71261884197926406
91.009497869018190385759 245.50552033534327734 91.009497869018190385759 78.68239879325824404
94.009497869018218807469 246.82774982446130707 94.009497869018218807469 78.70867387972998586
97.009497869018190385759 248.08927491544358190 97.009497869018190385759 78.82915460171585664
99.504748934509109403734 249.09912370772741497 99.504748934509109403734 78.88841245805353708
nan nan nan nan

