Time Pressure difference Time.1 Pressure.1 difference.1
(hr) (psi) (hr) (psi)
0.000200000000006639311 0.61251870765693162 0.000200000000006639311 0.48370248202293592
0.000399999999999067768 1.11175920128547712 0.000399999999999067768 0.95680524320285187
0.000600000000005707079 1.55581373948546320 0.000600000000005707079 1.28147295824433827
0.000799999999998135536 1.96249284898986320 0.000799999999998135536 1.57325491064432921
0.001007140329434719206 2.35415921116876525 0.001007140329434719206 1.84893984420774382
0.001267914553963578328 2.81395230355114956 0.001267914553963578328 2.16547264012906826
0.001596209851982166583 3.35138323163324303 0.001596209851982166583 2.52533690129108068
0.002009509145224797066 3.97689387170222464 0.002009509145224797066 2.93273277079536276
0.002529822128138903281 4.70192874123726501 0.002529822128138903281 3.39221815877084909
0.003184857364431081805 5.53902753956710292 0.003184857364431081805 3.90880981162587826
0.004009497869020606231 6.50194341936333498 0.004009497869020606231 4.48810452889757450
0.005047658755842121536 7.60579114843174953 0.005047658755842121536 5.13641603317850670
0.006354625877790454069 8.86722812816984707 0.006354625877790454069 5.86092236703006630
0.008000000000009777068 10.30467003316484664 0.008000000000009777068 6.66981933937741900
0.010071403294347192059 11.93854192833001093 0.010071403294347192059 7.57247705476865729
0.012679145539706837553 13.79156519415510473 0.012679145539706837553 8.57959678390506575
0.015962098519750611558 15.88907975767171799 0.015962098519750611558 9.70336090393330153
0.020095091452091651263 18.25939847746907319 0.020095091452091651263 10.95756294820360566
0.025298221281360611101 20.93418702424152755 0.025298221281360611101 12.35772283794686466
0.031848573644296607199 23.94886817841129201 0.031848573644296607199 13.92126274378118644
0.040094978690177640601 27.34307825204662734 0.040094978690177640601 15.66788575167384145
0.050476587558421215363 31.16123946920636456 0.050476587558421215363 17.62016197443384868
0.063546258777961384112 35.45327735072191189 0.063546258777961384112 19.80383148153893202
0.079999999999998294697 40.27532000301337689 0.079999999999998294697 22.24676020952356126
0.100714032943542974863 45.68991747417688032 0.100714032943542974863 24.97558319146915551
0.126791455396897845276 51.76517270396659143 0.126791455396897845276 28.01017534233304573
0.159620985197506115583 58.57238650621762588 0.159620985197506115583 31.35787329191060024
0.200950914520760193227 66.18249333662622291 0.200950914520760193227 35.01027059340022873
0.252982212813478213320 74.66218816168037620 0.252982212813478213320 38.94513281260164206
0.318485736442795541734 84.07118888770231990 0.318485736442795541734 43.13038147125264032
0.400949786901833249431 94.46012703083175666 0.400949786901833249431 47.53698652795374358
0.504765875584155310207 105.87363568669829306 0.504765875584155310207 52.14327912160366196
0.635462587779443310865 118.35009149445174614 0.635462587779443310865 56.94083312660180951
0.799999999999997157829 131.92720410914697027 0.799999999999997157829 61.94297249985869058
1.007140329435344483500 146.64538963605485833 1.007140329435344483500 67.19539102648785445
1.267914553968893187630 162.55779047224447709 1.267914553968893187630 72.71670172904291007
1.596209851975103788391 179.70610272730982615 1.596209851975103788391 78.61564514579927732
2.009509145207672986544 198.18295964028621370 2.009509145207672986544 84.94035179577548433
2.529822128134711078928 218.03891206452297524 2.529822128134711078928 91.79947964698271790
3.184857364427998049905 239.39728009282742960 3.184857364427998049905 99.34359744095010569
4.009497869018190385759 262.35236294108739230 4.009497869018190385759 107.61034226719662854
5.009497869018204596614 286.17244524655893656 5.009497869018204596614 116.34203303413801223
6.009497869018204596614 306.88211461456307916 6.009497869018204596614 124.00733731252637426
7.009497869018204596614 325.28640688320200525 7.009497869018204596614 130.83435073135825633
8.009497869018204596614 341.89054718838565350 8.009497869018204596614 136.95239983602502321
9.009497869018204596614 357.03610875342161535 9.009497869018204596614 142.47532624865584694
10.009497869018190385759 370.96759501055822739 10.009497869018190385759 147.47823486766279188
11.009497869018190385759 383.86777978718652093 11.009497869018190385759 151.99182334550317819
12.009497869018190385759 395.87808123595391407 12.009497869018190385759 156.11483138060145848
13.009497869018190385759 407.11031711375295572 13.009497869018190385759 159.89085615512857430
14.009497869018190385759 417.65613072574791431 14.009497869018190385759 163.35168613559488904
15.009497869018190385759 427.58942468487538235 15.009497869018190385759 166.53530449975818328
16.009497869018204596614 436.97153765822844207 16.009497869018204596614 169.47464105523147282
17.009497869018204596614 445.85628089814554187 17.009497869018204596614 172.20004957684037095
18.009497869018204596614 454.29027872412780198 18.009497869018204596614 174.74399810582380610
19.009497869018204596614 462.31313719565861220 19.009497869018204596614 177.11326236484475771
20.009497869018204596614 469.96066978269374204 20.009497869018204596614 179.32067758590849849
21.009497869018204596614 477.26212466934964596 21.009497869018204596614 181.37657216525647641
22.009497869018190385759 484.24248848762726993 22.009497869018190385759 183.29927788100147268
23.009497869018190385759 490.92468779619730412 23.009497869018190385759 185.09489023825028653
24.009497869018190385759 497.32989616714337444 24.009497869018190385759 186.78376264757622494
25.009497869018190385759 503.47801749045146380 25.009497869018190385759 188.37459365888574325
26.009497869018190385759 509.38656213653598570 26.009497869018190385759 189.87620424383950990
27.009497869018204596614 515.07150658779255537 27.009497869018204596614 191.29996438100525324
28.009497869018190385759 520.54669795866107052 28.009497869018190385759 192.64867373404487694
29.009497869018190385759 525.82454518522797571 29.009497869018190385759 193.91565510317582266
30.009497869018190385759 530.91657242489907276 30.009497869018190385759 195.12856922656408187
31.009497869018190385759 535.83333674872631036 31.009497869018190385759 196.27738624831007996
32.009497869018190385759 540.58456113168369939 32.009497869018190385759 197.36679145362475651
33.009497869018218807469 545.17928727535047528 33.009497869018218807469 198.39369896816043592
34.009497869018190385759 549.62613931242958643 34.009497869018190385759 199.38265356603386635
35.009497869018218807469 553.93281869554493824 35.009497869018218807469 200.32101744347068006
36.009497869018190385759 558.10644705018250988 36.009497869018190385759 201.22514028545555220
37.009497869018218807469 562.15362200564777595 37.009497869018218807469 202.09233616332642214
38.009497869018190385759 566.08062351722242056 38.009497869018190385759 202.92630743239442381
39.009497869018190385759 569.89319894267578093 39.009497869018190385759 203.73080932351464867
40.009497869018190385759 573.59672959311080831 40.009497869018190385759 204.50155215289427701
41.009497869018190385759 577.19637990404794436 41.009497869018190385759 205.25030366957548722
42.009497869018190385759 580.69688073634279135 42.009497869018190385759 205.95881160448317360
43.009497869018190385759 584.10269646008259770 43.009497869018190385759 206.65602664794781163
44.009497869018218807469 587.41812685722732112 44.009497869018218807469 207.30252926490916821
46.009497869018218807469 593.79379898946558569 46.009497869018218807469 208.53703311582307833
48.009497869018218807469 599.85133632662382297 48.009497869018218807469 209.67059451431779848
50.009497869018218807469 605.61257641779559435 50.009497869018218807469 210.64897548033400199
52.009497869018190385759 611.09929483459745825 52.009497869018190385759 211.51739435049847771
54.009497869018190385759 616.33220874873916273 54.009497869018190385759 212.29386141053157644
56.009497869018190385759 621.32773497048071931 56.009497869018190385759 212.98149587581630726
58.009497869018190385759 626.10002888422741307 58.009497869018190385759 213.58403729487065448
60.009497869018190385759 630.66317950071857013 60.009497869018190385759 214.21448603778736697
62.009497869018190385759 635.02903240211958291 62.009497869018190385759 214.81641092608813892
64.009497869018190385759 639.21000303222990624 64.009497869018190385759 215.38965305101086756
66.009497869018218807469 643.22283053845535505 66.009497869018218807469 215.99512985203818971
68.009497869018218807469 647.08200591827642256 68.009497869018218807469 216.60239194270420171
70.009497869018218807469 650.79613993586758625 70.009497869018218807469 217.10345809462288003
72.009497869018218807469 654.37423612909549320 72.009497869018218807469 217.44550309709842395
74.009497869018190385759 657.82464341315358070 74.009497869018190385759 217.75548671680579105
76.009497869018190385759 661.15408735301161869 76.009497869018190385759 218.02566844248360667
78.009497869018190385759 664.37120153183138882 78.009497869018190385759 218.35770381850429089
80.009497869018190385759 667.48132903658176929 80.009497869018190385759 218.52306982952654835
82.009497869018190385759 670.48438415724388051 82.009497869018190385759 218.74669564111130171
84.009497869018190385759 673.38172746336113050 84.009497869018190385759 218.92195693351979457
86.009497869018190385759 676.17575708857953032 86.009497869018190385759 218.87590788989280099
88.009497869018218807469 678.87348935426359731 88.009497869018218807469 218.89820513691640258
91.009497869018190385759 682.74589949166056613 91.009497869018190385759 218.81416379104956604
94.009497869018218807469 686.42299302768049074 94.009497869018218807469 218.88723427648255893
97.009497869018190385759 689.93126885706931262 97.009497869018190385759 219.22228873387840054
99.504748934509109403734 692.73963797682108634 99.504748934509109403734 219.38708363695002390
nan nan nan nan

