Time Pressure difference Time.1 Pressure.1 difference.1
(hr) (psi) (hr) (psi)
0.000200000000006639311 0.41511630550013812 0.000200000000006639311 0.32781494636580316
0.000399999999999067768 0.75346167631160832 0.000399999999999067768 0.64844624772504156
0.000600000000005707079 1.05440640997253143 0.000600000000005707079 0.86848011885160348
0.000799999999998135536 1.33002106035167933 0.000799999999998135536 1.06622664410506873
0.001007140329434719206 1.59546126850194048 0.001007140329434719206 1.25306389441643984
0.001267914553963578328 1.90707233836523504 0.001267914553963578328 1.46758456647089197
0.001596209851982166583 2.27130013832967936 0.001596209851982166583 1.71147184812887754
0.002009509145224797066 2.69522133895674099 0.002009509145224797066 1.98757226124369701
0.002529822128138903281 3.18659212100432221 0.002529822128138903281 2.29897479361257551
0.003184857364431081805 3.75391089210039963 0.003184857364431081805 2.64907939565111361
0.004009497869020606231 4.40649844172395966 0.004009497869020606231 3.04167913150156854
0.005047658755842121536 5.15459835344493644 0.005047658755842121536 3.48105293854792075
0.006354625877790454069 6.00949968479075647 0.006354625877790454069 3.97206552128255286
0.008000000000009777068 6.98368311055938840 0.008000000000009777068 4.52027134502884120
0.010071403294347192059 8.09099110997702375 0.010071403294347192059 5.13202071898311019
0.012679145539706837553 9.34682242173827760 0.012679145539706837553 5.81456611054291450
0.015962098519750611558 10.76835042644280094 0.015962098519750611558 6.57616376287293214
0.020095091452091651263 12.37476332048163208 0.020095091452091651263 7.42616183225404836
0.025298221281360611101 14.18752156876057846 0.025298221281360611101 8.37507848291942913
0.031848573644296607199 16.23063190536889877 0.031848573644296607199 9.43472107195118781
0.040094978690177640601 18.53095665993626540 0.040094978690177640601 10.61844277885460386
0.050476587558421215363 21.11860167135851185 0.050476587558421215363 11.94153982516034951
0.063546258777961384112 24.02740247396075901 0.063546258777961384112 13.42145677608959886
0.079999999999998294697 27.29539821965880719 0.079999999999998294697 15.07707893992581205
0.100714032943542974863 30.96498034001210442 0.100714032943542974863 16.92645741680914639
0.126791455396897845276 35.08230357346544537 0.126791455396897845276 18.98306183822364090
0.159620985197506115583 39.69568992234852800 0.159620985197506115583 21.25186438643475029
0.200950914520760193227 44.85321310067726586 0.200950914520760193227 23.72716784257383438
0.252982212813478213320 50.60007363496265498 0.252982212813478213320 26.39390348128650388
0.318485736442795541734 56.97674355705421334 0.318485736442795541734 29.23033106963650241
0.400949786901833249431 64.01753686856369541 0.400949786901833249431 32.21677636194999650
0.504765875584155310207 71.75270232031159878 0.504765875584155310207 35.33855393319046101
0.635462587779443310865 80.20824853613621030 0.635462587779443310865 38.58995322776952008
0.799999999999997157829 89.40973211127679576 0.799999999999997157829 41.98000416052598638
1.007140329435344483500 99.38454385697396276 1.007140329435344483500 45.53967433297727041
1.267914553968893187630 110.16869944958331473 1.267914553968893187630 49.28157816662596247
1.596209851975103788391 121.79045718514055352 1.596209851975103788391 53.27941132160904658
2.009509145207672986544 134.31259648160329334 2.009509145207672986544 57.56579282325095193
2.529822128134711078928 147.76937667378032870 2.529822128134711078928 62.21436237215201714
3.184857364427998049905 162.24437428052758037 3.184857364427998049905 67.32716344702733124
4.009497869018190385759 177.80149778598047305 4.009497869018190385759 72.92970346398611525
5.009497869018204596614 193.94484890284925882 5.009497869018204596614 78.84734674023445677
6.009497869018204596614 207.98021031909246403 6.009497869018204596614 84.04227834444793643
7.009497869018204596614 220.45317108975552856 7.009497869018204596614 88.66908329358373919
8.009497869018204596614 231.70613249865721173 8.009497869018204596614 92.81540880078794942
9.009497869018204596614 241.97058562148987448 9.009497869018204596614 96.55840763380403757
10.009497869018190385759 251.41223537503117313 10.009497869018190385759 99.94897989994971965
11.009497869018190385759 260.15495127546108733 11.009497869018190385759 103.00793001861043763
12.009497869018190385759 268.29457526250138244 12.009497869018190385759 105.80217587866670215
13.009497869018190385759 275.90688848952788703 13.009497869018190385759 108.36126417145499090
14.009497869018190385759 283.05399947630996849 14.009497869018190385759 110.70673858308711601
15.009497869018190385759 289.78599351700364650 15.009497869018190385759 112.86434108066514170
16.009497869018204596614 296.14444106578383753 16.009497869018204596614 114.85638886022942984
17.009497869018204596614 302.16581109573797903 17.009497869018204596614 116.70345328834569898
18.009497869018204596614 307.88170185034152837 18.009497869018204596614 118.42753861265157411
19.009497869018204596614 313.31895515643600447 19.009497869018204596614 120.03323687731447933
20.009497869018204596614 318.50184252630225501 20.009497869018204596614 121.52924677842919721
21.009497869018204596614 323.45018604534163842 21.009497869018204596614 122.92256807883701697
22.009497869018190385759 328.18091965897224327 22.009497869018190385759 124.22562459499997090
23.009497869018190385759 332.70958115928812049 23.009497869018190385759 125.44254737390227206
24.009497869018190385759 337.05052030395000884 24.009497869018190385759 126.58713033317603447
25.009497869018190385759 341.21722636140441409 25.009497869018190385759 127.66526865586659767
26.009497869018190385759 345.22156646351766085 26.009497869018190385759 128.68294049271608515
27.009497869018204596614 349.07436819525014471 27.009497869018204596614 129.64785150795589175
28.009497869018190385759 352.78501602586976560 28.009497869018190385759 130.56189909022316442
29.009497869018190385759 356.36191974211300248 29.009497869018190385759 131.42055796629739461
30.009497869018190385759 359.81288949832537583 30.009497869018190385759 132.24257437738123144
31.009497869018190385759 363.14508003488805343 31.009497869018190385759 133.02115088745574667
32.009497869018190385759 366.36508080841565516 32.009497869018190385759 133.75946280898506302
33.009497869018218807469 369.47901956277644331 33.009497869018218807469 134.45541878256673840
34.009497869018190385759 372.49274104697303756 34.009497869018190385759 135.12565329760221289
35.009497869018218807469 375.41146469107400208 35.009497869018218807469 135.76160145909827293
36.009497869018190385759 378.24001696457963817 36.009497869018190385759 136.37434377895124271
37.009497869018218807469 380.98286921419031614 37.009497869018218807469 136.96205994903158398
38.009497869018190385759 383.64427749250103261 38.009497869018190385759 137.52725913034814198
39.009497869018190385759 386.22813690001032683 39.009497869018190385759 138.07248631873429190
40.009497869018190385759 388.73809445999421541 40.009497869018190385759 138.59483430880086985
41.009497869018190385759 391.17765021476412812 41.009497869018190385759 139.10227834186773066
42.009497869018190385759 393.55001036431934835 42.009497869018190385759 139.58244848635439439
43.009497869018190385759 395.85820050248088364 43.009497869018190385759 140.05496521011178856
44.009497869018218807469 398.10513467836960899 44.009497869018218807469 140.49311309766900990
46.009497869018218807469 402.42605651721288496 46.009497869018218807469 141.32976130336609799
48.009497869018218807469 406.53137197679996007 48.009497869018218807469 142.09799876928894946
50.009497869018218807469 410.43588080542832586 50.009497869018218807469 142.76106732035071900
52.009497869018190385759 414.15434074800697317 52.009497869018190385759 143.34961233702176742
54.009497869018190385759 417.70079225044077020 54.009497869018190385759 143.87583975387320834
56.009497869018190385759 421.08636131678179026 56.009497869018190385759 144.34186352620091043
58.009497869018190385759 424.32064133708263398 58.009497869018190385759 144.75021802160145512
60.009497869018190385759 427.41318071862167471 60.009497869018190385759 145.17748587431393048
62.009497869018190385759 430.37200745179916339 62.009497869018190385759 145.58542253436439751
64.009497869018190385759 433.20553573375997303 64.009497869018190385759 145.97392030607366564
66.009497869018218807469 435.92511002295316302 66.009497869018218807469 146.38426416915334016
68.009497869018218807469 438.54055116119457125 68.009497869018218807469 146.79581795909692232
70.009497869018218807469 441.05769483736514758 70.009497869018218807469 147.13540061542315129
72.009497869018218807469 443.48264293101391331 72.009497869018218807469 147.36721142539104790
74.009497869018190385759 445.82105367067612178 74.009497869018190385759 147.57729358838446387
76.009497869018190385759 448.07748510763684635 76.009497869018190385759 147.76040120350702978
78.009497869018190385759 450.25778839566601164 78.009497869018190385759 147.98542828735938315
80.009497869018190385759 452.36558465277147434 80.009497869018190385759 148.09750017462212668
82.009497869018190385759 454.40081579154139035 82.009497869018190385759 148.24905590599666994
84.009497869018190385759 456.36440389744893764 84.009497869018190385759 148.36783402541135501
86.009497869018190385759 458.25797423412535636 86.009497869018190385759 148.33662565802063682
88.009497869018218807469 460.08628190434023963 88.009497869018218807469 148.35173695289464035
91.009497869018190385759 462.71069250522901939 91.009497869018190385759 148.29478043455588931
94.009497869018218807469 465.20273309855241450 94.009497869018218807469 148.34430177908765813
97.009497869018190385759 467.58036252074953154 97.009497869018190385759 148.57137495539532779
99.504748934509109403734 469.48365102263318249 99.504748934509109403734 148.68305979125938165
nan nan nan nan

