Time Pressure difference Time.1 Pressure.1 difference.1
(hr) (psi) (hr) (psi)
0.000200000000006639311 0.65821958532667157 0.000200000000006639311 0.51979220088889577
0.000399999999999067768 1.19470911060418628 0.000399999999999067768 1.02819382093404910
0.000600000000005707079 1.67189517911546681 0.000600000000005707079 1.37708544839313873
0.000799999999998135536 2.10891718590931454 0.000799999999998135536 1.69063766045406161
0.001007140329434719206 2.52980632329741928 0.001007140329434719206 1.98689183258386581
0.001267914553963578328 3.02390522153631247 0.001267914553963578328 2.32704158322678145
0.001596209851982166583 3.60143462300898731 0.001596209851982166583 2.71375582035114071
0.002009509145224797066 4.27361548700021476 0.002009509145224797066 3.15154806561118317
0.002529822128138903281 5.05274622244875005 0.002529822128138903281 3.64531630118691252
0.003184857364431081805 5.95230213319283497 0.003184857364431081805 4.20045157995444107
0.004009497869020606231 6.98706251386505528 0.004009497869020606231 4.82296828649407772
0.005047658755842121536 8.17326986624220098 0.005047658755842121536 5.51965121907369038
0.006354625877790454069 9.52882442374314209 0.006354625877790454069 6.29821398405199950
0.008000000000009777068 11.07351588019890798 0.008000000000009777068 7.16746389112371318
0.010071403294347192059 12.82929324318986630 0.010071403294347192059 8.13747016144569635
0.012679145539706837553 14.82057316719051165 0.012679145539706837553 9.21973250249694587
0.015962098519750611558 17.07458622663789782 0.015962098519750611558 10.42734223562573526
0.020095091452091651263 19.62175774210925638 0.020095091452091651263 11.77512204900221526
0.025298221281360611101 22.49611600428856306 0.025298221281360611101 13.27974982689212347
0.031848573644296607199 25.73572673680052958 0.031848573644296607199 14.95994763243636427
0.040094978690177640601 29.38318357240658329 0.040094978690177640601 16.83688862641012918
0.050476587558421215363 33.48622313944767370 0.050476587558421215363 18.93482690931389101
0.063546258777961384112 38.09849597170841662 0.063546258777961384112 21.28142305321852135
0.079999999999998294697 43.28031797215012944 0.079999999999998294697 23.90662211116676872
0.100714032943542974863 49.09890613546261307 0.100714032943542974863 26.83904639331970188
0.126791455396897845276 55.62744465700865248 0.126791455396897845276 30.10005370984390538
0.159620985197506115583 62.94255420409086099 0.159620985197506115583 33.69752808674745381
0.200950914520760193227 71.12046175137969328 0.200950914520760193227 37.62243586047257793
0.252982212813478213320 80.23283847011661862 0.252982212813478213320 41.85088365457814064
0.318485736442795541734 90.34385790315782572 0.318485736442795541734 46.34839957066215987
0.400949786901833249431 101.50792925489380991 0.400949786901833249431 51.08378759532438096
0.504765875584155310207 113.77301575865919858 0.504765875584155310207 56.03376212342279672
0.635462587779443310865 127.18035738833830806 0.635462587779443310865 61.18926834433790418
0.799999999999997157829 141.77047736910404296 0.799999999999997157829 66.56462433404503543
1.007140329435344483500 157.58680730838224804 1.007140329435344483500 72.20893315488903852
1.267914553968893187630 174.68645463183165134 1.267914553968893187630 78.14219657307511113
1.596209851975103788391 193.11422645411428789 1.596209851975103788391 84.48126841056358671
2.009509145207672986544 212.96966750982053895 2.009509145207672986544 91.27787027172972500
2.529822128134711078928 234.30710032218686933 2.529822128134711078928 98.64876724758660487
3.184857364427998049905 257.25904606866532731 3.184857364427998049905 106.75576222410909111
4.009497869018190385759 281.92683976156229164 4.009497869018190385759 115.63930044671803898
5.009497869018204596614 307.52417173127622618 5.009497869018204596614 125.02247487709961149
6.009497869018204596614 329.77901850290345465 6.009497869018204596614 133.25969823118120416
7.009497869018204596614 349.55648076464291307 7.009497869018204596614 140.59608467193629622
8.009497869018204596614 367.39947920658647718 8.009497869018204596614 147.17060997923104537
9.009497869018204596614 383.67507230808109853 9.009497869018204596614 153.10560965788195631
10.009497869018190385759 398.64600624450656596 10.009497869018190385759 158.48179228784076145
11.009497869018190385759 412.50869185420975782 11.009497869018190385759 163.33214591635936586
12.009497869018190385759 425.41509869604578853 12.009497869018190385759 167.76277734889507087
13.009497869018190385759 437.48538740617806297 13.009497869018190385759 171.82053661437129222
14.009497869018190385759 448.81803892497470088 14.009497869018190385759 175.53958396125585750
15.009497869018190385759 459.49246984271064775 15.009497869018190385759 178.96073654533600461
16.009497869018204596614 469.57459539024137030 16.009497869018204596614 182.11938111323840417
17.009497869018204596614 479.12224175272217508 17.009497869018204596614 185.04813617739219467
18.009497869018204596614 488.18551195535798115 18.009497869018204596614 187.78189226501478970
19.009497869018204596614 496.80696712113785907 19.009497869018204596614 190.32793064491607993
20.009497869018204596614 505.02509281311228051 20.009497869018204596614 192.70004420371722631
21.009497869018204596614 512.87131946333215637 21.009497869018204596614 194.90933195375228593
22.009497869018190385759 520.37249799136736783 22.009497869018190385759 196.97549343274459943
23.009497869018190385759 527.55326553850420623 23.009497869018190385759 198.90507893996434063
24.009497869018190385759 534.43637546666082017 24.009497869018190385759 200.71996048242129973
25.009497869018190385759 541.04321672289972867 25.009497869018190385759 202.42948562099948617
26.009497869018190385759 547.39260615086811868 26.009497869018190385759 204.04313347239539667
27.009497869018204596614 553.50171226066413510 27.009497869018204596614 205.57312234518386163
28.009497869018190385759 559.38541531930729889 28.009497869018190385759 207.02246078984927635
29.009497869018190385759 565.05705011096506496 29.009497869018190385759 208.38397341139207697
30.009497869018190385759 570.52900062654953217 30.009497869018190385759 209.68738475434915358
31.009497869018190385759 575.81261161495240231 31.009497869018190385759 210.92191662124099594
32.009497869018190385759 580.91833149591298024 32.009497869018190385759 212.09260387296254180
33.009497869018218807469 585.85587658501401620 33.009497869018218807469 213.19613039376412189
34.009497869018190385759 590.63451447356430890 34.009497869018190385759 214.25887227769646870
35.009497869018218807469 595.26252123034214492 35.009497869018218807469 215.26724879676589808
36.009497869018190385759 599.74754983527373042 36.009497869018190385759 216.23882950882634191
37.009497869018218807469 604.09669017601731866 37.009497869018218807469 217.17072808432072861
38.009497869018190385759 608.31669076410332764 38.009497869018190385759 218.06692311646946791
39.009497869018190385759 612.41372777570438757 39.009497869018190385759 218.93145001915510761
40.009497869018190385759 616.39358402907350865 40.009497869018190385759 219.75969904927603693
41.009497869018190385759 620.26180928548990323 41.009497869018190385759 220.56431596409302642
42.009497869018190385759 624.02348738195598798 42.009497869018190385759 221.32568666720109718
43.009497869018190385759 627.68341578145668791 43.009497869018190385759 222.07492190043720370
44.009497869018218807469 631.24621507869926518 44.009497869018218807469 222.76966098208373523
46.009497869018218807469 638.09758502805777880 46.009497869018218807469 224.09627289234043701
48.009497869018218807469 644.60708370021643532 48.009497869018218807469 225.31441089258814259
50.009497869018218807469 650.79817797435646298 50.009497869018218807469 226.36579023119830367
52.009497869018190385759 656.69426812795609294 52.009497869018190385759 227.29900304815225809
54.009497869018190385759 662.31761706988856986 54.009497869018190385759 228.13340340178368137
56.009497869018190385759 667.68586649159431090 56.009497869018190385759 228.87234323649900603
58.009497869018190385759 672.81422793051171993 58.009497869018190385759 229.51984111376256692
60.009497869018190385759 677.71784159818139415 60.009497869018190385759 230.19732851936322504
62.009497869018190385759 682.40943689222592639 62.009497869018190385759 230.84416386565118273
64.009497869018190385759 686.90235559007510346 64.009497869018190385759 231.46017638745937006
66.009497869018218807469 691.21458577034013615 66.009497869018218807469 232.11082865965138922
68.009497869018218807469 695.36169962409610434 68.009497869018218807469 232.76339942443959785
70.009497869018218807469 699.35295037667833640 70.009497869018218807469 233.30185082292632615
72.009497869018218807469 703.19801333250973130 72.009497869018218807469 233.66941628154512500
74.009497869018190385759 706.90586033102613328 74.009497869018190385759 234.00252821277473458
76.009497869018190385759 710.48371874100837431 76.009497869018190385759 234.29286857497979213
78.009497869018190385759 713.94086630933577453 78.009497869018190385759 234.64967757491081102
80.009497869018190385759 717.28304477817130191 80.009497869018190385759 234.82738177535651403
82.009497869018190385759 720.51016204255108732 82.009497869018190385759 235.06769262158798028
84.009497869018190385759 723.62368018601614494 84.009497869018190385759 235.25603040420728007
86.009497869018190385759 726.62617627031818301 86.009497869018190385759 235.20654557701433873
88.009497869018218807469 729.52519011437436802 88.009497869018218807469 235.23050645283140625
91.009497869018190385759 733.68652618948397048 91.009497869018190385759 235.14019466457864382
94.009497869018218807469 737.63797281834683872 94.009497869018218807469 235.21871704115275747
97.009497869018190385759 741.40800601531691427 97.009497869018190385759 235.57877038034393991
99.504748934509109403734 744.42591148390010858 99.504748934509109403734 235.75586086167584199
nan nan nan nan

