Time Pressure difference Time.1 Pressure.1 difference.1
(hr) (psi) (hr) (psi)
0.000200000000006639311 0.54269792232816216 0.000200000000006639311 0.42856541153327482
0.000399999999999067768 0.98503017315967145 0.000399999999999067768 0.84773936055796717
0.000600000000005707079 1.37846709560629144 0.000600000000005707079 1.13539832051700440
0.000799999999998135536 1.73878900091847988 0.000799999999998135536 1.39392015399057145
0.001007140329434719206 2.08580945652776606 0.001007140329434719206 1.63817986196644672
0.001267914553963578328 2.49319090107381625 0.001267914553963578328 1.91863119928534021
0.001596209851982166583 2.96936027258696633 0.001596209851982166583 2.23747466383821125
0.002009509145224797066 3.52356918166362965 0.002009509145224797066 2.59843162593786081
0.002529822128138903281 4.16595758938638472 0.002529822128138903281 3.00554044119075270
0.003184857364431081805 4.90763579930556837 0.003184857364431081805 3.46324599890168505
0.004009497869020606231 5.76078924720792873 0.004009497869020606231 3.97650712145847329
0.005047658755842121536 6.73880977399911441 0.005047658755842121536 4.55091783250530924
0.006354625877790454069 7.85645600993287019 0.006354625877790454069 5.19283795213544774
0.008000000000009777068 9.13004443352947526 0.008000000000009777068 5.90952905198724743
0.010071403294347192059 10.57767186396078607 0.010071403294347192059 6.70929314178984626
0.012679145539706837553 12.21946967979545562 0.012679145539706837553 7.60161165827858021
0.015962098519750611558 14.07788931897338713 0.015962098519750611558 8.59727831384764052
0.020095091452091651263 16.17801626760213196 0.020095091452091651263 9.70851432198350572
0.025298221281360611101 18.54790663805855289 0.025298221281360611101 10.94907049372494257
0.031848573644296607199 21.21894538087218152 0.031848573644296607199 12.33438305278022185
0.040094978690177640601 24.22625067927447517 0.040094978690177640601 13.88190913749340361
0.050476587558421215363 27.60918108411548388 0.050476587558421215363 15.61164610170045819
0.063546258777961384112 31.41197112421475524 0.063546258777961384112 17.54639991369511876
0.079999999999998294697 35.68435088349890094 0.079999999999998294697 19.71086008201310236
0.100714032943542974863 40.48174035276811367 0.100714032943542974863 22.12862552197525901
0.126791455396897845276 45.86447944237453811 0.126791455396897845276 24.81730561419145431
0.159620985197506115583 51.89574141224463233 0.159620985197506115583 27.78340068868763169
0.200950914520760193227 58.63837492519733274 0.200950914520760193227 31.01946254648414225
0.252982212813478213320 66.15147241268054756 0.252982212813478213320 34.50579124847088508
0.318485736442795541734 74.48794455853418128 0.318485736442795541734 38.21396493048808907
0.400949786901833249431 83.69265141073694281 0.400949786901833249431 42.11826267502636512
0.504765875584155310207 93.80513835453579929 0.504765875584155310207 46.19948564660220569
0.635462587779443310865 104.85940748990283566 0.635462587779443310865 50.45016821061611267
0.799999999999997157829 116.88886996199030932 0.799999999999997157829 54.88211553096287787
1.007140329435344483500 129.92933485888795531 1.007140329435344483500 59.53581277476386191
1.267914553968893187630 144.02788689509745268 1.267914553968893187630 64.42775127288257409
1.596209851975103788391 159.22146925580301513 1.596209851975103788391 69.65427626907604974
2.009509145207672986544 175.59215595071992766 2.009509145207672986544 75.25803190195652803
2.529822128134711078928 193.18473555975870681 2.529822128134711078928 81.33529025717120930
3.184857364427998049905 212.10847096307509219 3.184857364427998049905 88.01945680001279015
4.009497869018190385759 232.44691224313962152 4.009497869018190385759 95.34387838181670816
5.009497869018204596614 253.55175200601854613 5.009497869018204596614 103.08024688516891842
6.009497869018204596614 271.90073367404289684 6.009497869018204596614 109.87178590902595943
7.009497869018204596614 288.20712734211156203 7.009497869018204596614 115.92059054436407450
8.009497869018204596614 302.91856771613441879 8.009497869018204596614 121.34124545057140665
9.009497869018204596614 316.33769221158081564 9.009497869018204596614 126.23461548456035075
10.009497869018190385759 328.68113340313703929 10.009497869018190385759 130.66724436461316827
11.009497869018190385759 340.11083079590093803 11.009497869018190385759 134.66633052891731381
12.009497869018190385759 350.75208233859132179 12.009497869018190385759 138.31935837348626706
13.009497869018190385759 360.70395972254794970 13.009497869018190385759 141.66495545350770158
14.009497869018190385759 370.04765986581804782 14.009497869018190385759 144.73128667972397920
15.009497869018190385759 378.84866124929374109 15.009497869018190385759 147.55200554123655365
16.009497869018204596614 387.16131056765317453 16.009497869018204596614 150.15628818883203621
17.009497869018204596614 395.03328514809783201 17.009497869018204596614 152.57102838155287827
18.009497869018204596614 402.50589462085935111 18.009497869018204596614 154.82499314039310434
19.009497869018204596614 409.61423036506539574 19.009497869018204596614 156.92418582584690512
20.009497869018204596614 416.39002348622085492 20.009497869018204596614 158.87997858647852922
21.009497869018204596614 422.85918817854297913 21.009497869018204596614 160.70152248838786591
22.009497869018190385759 429.04386285691333569 22.009497869018190385759 162.40505967694949163
23.009497869018190385759 434.96436068989498835 23.009497869018190385759 163.99599083285389156
24.009497869018190385759 440.63944168176954008 24.009497869018190385759 165.49234928878519213
25.009497869018190385759 446.08674088532228552 25.009497869018190385759 166.90184205010081087
26.009497869018190385759 451.32177267019505962 26.009497869018190385759 168.23228458910131167
27.009497869018204596614 456.35869236534989568 27.009497869018204596614 169.49375082462123032
28.009497869018190385759 461.20976865767380559 28.009497869018190385759 170.68872128767708318
29.009497869018190385759 465.88599599312937016 29.009497869018190385759 171.81127991006769662
30.009497869018190385759 470.39758489459978819 30.009497869018190385759 172.88593439244795036
31.009497869018190385759 474.75388903643619187 31.009497869018190385759 173.90379817855455258
32.009497869018190385759 478.96352307522232650 32.009497869018190385759 174.86902247963644186
33.009497869018218807469 483.03449805225352520 33.009497869018218807469 175.77887317904372821
34.009497869018190385759 486.97445503847393411 34.009497869018190385759 176.65509720099373681
35.009497869018218807469 490.79021760071606195 35.009497869018218807469 177.48649732038074944
36.009497869018190385759 494.48809557295959394 36.009497869018190385759 178.28755952752800340
37.009497869018218807469 498.07393452313868920 37.009497869018218807469 179.05590406180735386
38.009497869018190385759 501.55329855670998995 38.009497869018190385759 179.79481124839091422
39.009497869018190385759 504.93127989221528651 39.009497869018190385759 180.50760826073059206
40.009497869018190385759 508.21264642705671122 40.009497869018190385759 181.19049439453326045
41.009497869018190385759 511.40197390462282101 41.009497869018190385759 181.85389599739590949
42.009497869018190385759 514.50345391665609895 42.009497869018190385759 182.48164136977524663
43.009497869018190385759 517.52104194131675285 43.009497869018190385759 183.09938112331127513
44.009497869018218807469 520.45854762997862508 44.009497869018218807469 183.67218914144802966
46.009497869018218807469 526.10745920828287581 46.009497869018218807469 184.76597234614374088
48.009497869018218807469 531.47450006141286849 48.009497869018218807469 185.77031949196032201
50.009497869018218807469 536.57901848416088342 50.009497869018218807469 186.63717516651351502
52.009497869018190385759 541.44030785863299116 52.009497869018190385759 187.40660328463854967
54.009497869018190385759 546.07672381364966441 54.009497869018190385759 188.09456114611865019
56.009497869018190385759 550.50281181322384327 56.009497869018190385759 188.70381240810669965
58.009497869018190385759 554.73111367462627186 58.009497869018190385759 189.23767034934135722
60.009497869018190385759 558.77411240737239950 60.009497869018190385759 189.79625446871315830
62.009497869018190385759 562.64230332001272927 62.009497869018190385759 190.32956615731126249
64.009497869018190385759 566.34668662441106335 64.009497869018190385759 190.83746462032570435
66.009497869018218807469 569.90209337863143446 66.009497869018218807469 191.37392334040686137
68.009497869018218807469 573.32136275660764113 68.009497869018218807469 191.91196384560836918
70.009497869018218807469 576.61212398462873807 70.009497869018218807469 192.35591364860366070
72.009497869018218807469 579.78235429054575434 72.009497869018218807469 192.65896906530480237
74.009497869018190385759 582.83945089973713038 74.009497869018190385759 192.93361776463103752
76.009497869018190385759 585.78937273246094719 76.009497869018190385759 193.17300157339221300
78.009497869018190385759 588.63976923286611509 78.009497869018190385759 193.46718835732761477
80.009497869018190385759 591.39537443137555783 80.009497869018190385759 193.61370435673077850
82.009497869018190385759 594.05611238802430307 82.009497869018190385759 193.81183914316076766
84.009497869018190385759 596.62318858152718803 84.009497869018190385759 193.96712246441393290
86.009497869018190385759 599.09872778314559127 86.009497869018190385759 193.92632253456824287
88.009497869018218807469 601.48894652631645386 88.009497869018218807469 193.94607812649070411
91.009497869018190385759 604.91994203665262830 91.009497869018190385759 193.87161662315790522
94.009497869018218807469 608.17788501416248437 94.009497869018218807469 193.93635783045863263
97.009497869018190385759 611.28625375419085231 97.009497869018190385759 194.23321955177826226
99.504748934509109403734 613.77449789656179746 99.504748934509109403734 194.37922954361894767
nan nan nan nan

