Time Pressure difference Time.1 Pressure.1 difference.1
(hr) (psi) (hr) (psi)
0.000200000000006639311 0.25135482718356983 0.000200000000006639311 0.19849345376277991
0.000399999999999067768 0.45622450125290043 0.000399999999999067768 0.39263717752158478
0.000600000000005707079 0.63844791796501910 0.000600000000005707079 0.52586869581840201
0.000799999999998135536 0.80533385305698013 0.000799999999998135536 0.64560512395352787
0.001007140329434719206 0.96605911670759703 0.001007140329434719206 0.75873593606866996
0.001267914553963578328 1.15474104891839913 0.001267914553963578328 0.88862918703742066
0.001596209851982166583 1.37528265256659488 0.001596209851982166583 1.03630405483032950
0.002009509145224797066 1.63196888413894414 0.002009509145224797066 1.20348412148700912
0.002529822128138903281 1.92949614666316793 0.002529822128138903281 1.39203978328834865
0.003184857364431081805 2.27301026494152625 0.003184857364431081805 1.60402972580709613
0.004009497869020606231 2.66815501975946168 0.004009497869020606231 1.84175066678076660
0.005047658755842121536 3.12113294795748475 0.005047658755842121536 2.10779352242351159
0.006354625877790454069 3.63877962565311863 0.006354625877790454069 2.40510389362062815
0.008000000000009777068 4.22865215868733646 0.008000000000009777068 2.73704503460461979
0.010071403294347192059 4.89913223172920631 0.010071403294347192059 3.10746208672371838
0.012679145539706837553 5.65954385169473717 0.012679145539706837553 3.52074645225534244
0.015962098519750611558 6.52028557931398911 0.015962098519750611558 3.98189732430838061
0.020095091452091651263 7.49297595552098805 0.020095091452091651263 4.49657505439235994
0.025298221281360611101 8.59060939025869885 0.025298221281360611101 5.07114843919892078
0.031848573644296607199 9.82772207114079954 0.031848573644296607199 5.71276688760347096
0.040094978690177640601 11.22057926197975597 0.040094978690177640601 6.42951581104957715
0.050476587558421215363 12.78741018632717186 0.050476587558421215363 7.23065714184021147
0.063546258777961384112 14.54870241542578135 0.063546258777961384112 8.12675364423773772
0.079999999999998294697 16.52748883025212479 0.079999999999998294697 9.12924045903764814
0.100714032943542974863 18.74943763707154787 0.100714032943542974863 10.24904761017801569
0.126791455396897845276 21.24249574173136779 0.126791455396897845276 11.49433102130972628
0.159620985197506115583 24.03592233830277536 0.159620985197506115583 12.86810137160269107
0.200950914520760193227 27.15882628114403019 0.200950914520760193227 14.36690896889791702
0.252982212813478213320 30.63857669639940795 0.252982212813478213320 15.98162963087072619
0.318485736442795541734 34.49967958500530330 0.318485736442795541734 17.69909954675237884
0.400949786901833249431 38.76291223234131422 0.400949786901833249431 19.50740587053852693
0.504765875584155310207 43.44659039578500170 0.504765875584155310207 21.39765651000523405
0.635462587779443310865 48.56646241637605499 0.635462587779443310865 23.36639369754851714
0.799999999999997157829 54.13800292976393536 0.799999999999997157829 25.41908508802491085
1.007140329435344483500 60.17779719780074998 1.007140329435344483500 27.57448170620641648
1.267914553968893187630 66.70765287772934471 1.267914553968893187630 29.84022164217719109
1.596209851975103788391 73.74468049742455378 1.596209851975103788391 32.26092795620364484
2.009509145207672986544 81.32689328243870364 2.009509145207672986544 34.85635161774828106
2.529822128134711078928 89.47503541715138908 2.529822128134711078928 37.67108180332140677
3.184857364427998049905 98.23971286710846584 3.184857364427998049905 40.76690630737434873
4.009497869018190385759 107.65962251261203164 4.009497869018190385759 44.15926998736773612
5.009497869018204596614 117.43449566594543398 5.009497869018204596614 47.74243013628876042
6.009497869018204596614 125.93297138587249151 6.009497869018204596614 50.88798505260150762
7.009497869018204596614 133.48540634792539095 7.009497869018204596614 53.68953667317914835
8.009497869018204596614 140.29912610010435969 8.009497869018204596614 56.20015578763306507
9.009497869018204596614 146.51429955062690169 9.009497869018204596614 58.46655875074373654
10.009497869018190385759 152.23126178671608955 10.009497869018190385759 60.51956581097872601
11.009497869018190385759 157.52501636862783130 11.009497869018190385759 62.37177413970907480
12.009497869018190385759 162.45359603050542319 12.009497869018190385759 64.06370282561471186
13.009497869018190385759 167.06288660833800463 13.009497869018190385759 65.61324252583513328
14.009497869018190385759 171.39049509574732610 14.009497869018190385759 67.03343804113531235
15.009497869018190385759 175.46674836809395970 15.009497869018190385759 68.33987625067797467
16.009497869018204596614 179.31681752607096314 16.009497869018204596614 69.54607031903799452
17.009497869018204596614 182.96278470017162476 17.009497869018204596614 70.66447630303501626
18.009497869018204596614 186.42378277176641177 18.009497869018204596614 71.70841787555049507
19.009497869018204596614 189.71606459013554513 19.009497869018204596614 72.68067554039225797
20.009497869018204596614 192.85432666730230267 20.009497869018204596614 73.58651639794794619
21.009497869018204596614 195.85057136690409152 21.009497869018204596614 74.43017883672699497
22.009497869018190385759 198.71505227057036791 22.009497869018190385759 75.21918553458714030
23.009497869018190385759 201.45717758268821740 23.009497869018190385759 75.95603785942707020
24.009497869018190385759 204.08563614734586622 24.009497869018190385759 76.64908809164786874
25.009497869018190385759 206.60859577846505886 25.009497869018190385759 77.30190579162564291
26.009497869018190385759 209.03324207882721453 26.009497869018190385759 77.91811075705744827
27.009497869018204596614 211.36613120079366013 27.009497869018204596614 78.50236880298245978
28.009497869018190385759 213.61294548355417078 28.009497869018190385759 79.05582880692412573
29.009497869018190385759 215.77877709155467301 29.009497869018190385759 79.57575069518925659
30.009497869018190385759 217.86835510907778257 30.009497869018190385759 80.07348540281799387
31.009497869018190385759 219.88601176424413097 31.009497869018190385759 80.54491705112000943
32.009497869018190385759 221.83573700326087419 32.009497869018190385759 80.99196830635793276
33.009497869018218807469 223.72124120314899187 33.009497869018218807469 81.41337284082024439
34.009497869018190385759 225.54606338624054729 34.009497869018190385759 81.81920291414446922
35.009497869018218807469 227.31336394138426726 35.009497869018218807469 82.20427244312371329
36.009497869018190385759 229.02606531800233824 36.009497869018190385759 82.57529072853928653
37.009497869018218807469 230.68687493703265545 37.009497869018218807469 82.93115556546865719
38.009497869018190385759 232.29836985784464787 38.009497869018190385759 83.27338626241264308
39.009497869018190385759 233.86290858165764917 39.009497869018190385759 83.60352382602258103
40.009497869018190385759 235.38269939779468132 40.009497869018190385759 83.91980793009960848
41.009497869018190385759 236.85986159793054640 41.009497869018190385759 84.22706761984652246
42.009497869018190385759 238.29633655087229727 42.009497869018190385759 84.51781284494853708
43.009497869018190385759 239.69395626755724038 43.009497869018190385759 84.80392388869154274
44.009497869018218807469 241.05448521809535123 44.009497869018218807469 85.06922444446013287
46.009497869018218807469 243.67082321225737473 46.009497869018218807469 85.57581877084552957
48.009497869018218807469 246.15661055475959529 48.009497869018218807469 86.04099008048689257
50.009497869018218807469 248.52080856108503326 50.009497869018218807469 86.44248112975363085
52.009497869018190385759 250.77235311347214974 52.009497869018190385759 86.79884783709574947
54.009497869018190385759 252.91974576632196658 54.009497869018190385759 87.11748095188653451
56.009497869018190385759 254.96972336612478216 56.009497869018190385759 87.39966048375467267
58.009497869018190385759 256.92809475456374457 58.009497869018190385759 87.64692100390546159
60.009497869018190385759 258.80064153604615740 60.009497869018190385759 87.90563364866713414
62.009497869018190385759 260.59222469558483226 62.009497869018190385759 88.15264116759679780
64.009497869018190385759 262.30793906814824368 64.009497869018190385759 88.38787835046663588
66.009497869018218807469 263.95465377536612550 66.009497869018218807469 88.63634344187265413
68.009497869018218807469 265.53831538200773821 68.009497869018218807469 88.88554114954492036
70.009497869018218807469 267.06245742445963742 70.009497869018218807469 89.09116000566908156
72.009497869018218807469 268.53077461877910537 72.009497869018218807469 89.23152251445695526
74.009497869018190385759 269.94669304829932344 74.009497869018190385759 89.35872822782910418
76.009497869018190385759 271.31297263398192854 76.009497869018190385759 89.46960072872903424
78.009497869018190385759 272.63315627627486037 78.009497869018190385759 89.60585566023594595
80.009497869018190385759 273.90943657874231576 80.009497869018190385759 89.67371570206478282
82.009497869018190385759 275.14177836919026277 82.009497869018190385759 89.76548339262183163
84.009497869018190385759 276.33073997460206783 84.009497869018190385759 89.83740408878118444
86.009497869018190385759 277.47730549956213508 86.009497869018190385759 89.81850727916844335
88.009497869018218807469 278.58435418060969369 88.009497869018218807469 89.82765723753253440
91.009497869018190385759 280.17344683802861027 91.009497869018190385759 89.79316980440997042
94.009497869018218807469 281.68238884866474336 94.009497869018218807469 89.82315520568609202
97.009497869018190385759 283.12205437036209332 97.009497869018190385759 89.96064905556046654
99.504748934509109403734 284.27450428893382650 99.504748934509109403734 90.02827473599192842
nan nan nan nan

