Time Pressure difference Time.1 Pressure.1 difference.1
(hr) (psi) (hr) (psi)
0.000200000000006639311 0.37131963106663729 0.000200000000006639311 0.29322896578592489
0.000399999999999067768 0.67396801321451205 0.000399999999999067768 0.58003219406597750
0.000600000000005707079 0.94316169699377828 0.000600000000005707079 0.77685148245900315
0.000799999999998135536 1.18969773747053886 0.000799999999998135536 0.95373484220407534
0.001007140329434719206 1.42713278604531379 0.001007140329434719206 1.12085990555598980
0.001267914553963578328 1.70586745862945333 0.001267914553963578328 1.31274766266891696
0.001596209851982166583 2.03166755492792417 0.001596209851982166583 1.53090371736298669
0.002009509145224797066 2.41086312429616756 0.002009509145224797066 1.77787427037853618
0.002529822128138903281 2.85039203484331605 0.002529822128138903281 2.05642240713051461
0.003184857364431081805 3.35785607320907298 0.003184857364431081805 2.36958936766957384
0.004009497869020606231 3.94159264282647781 0.004009497869020606231 2.72076803047158666
0.005047658755842121536 4.61076458220992080 0.005047658755842121536 3.11378588539836931
0.006354625877790454069 5.37546990153301607 0.006354625877790454069 3.55299438830320069
0.008000000000009777068 6.24687250715174702 0.008000000000009777068 4.04336198293864246
0.010071403294347192059 7.23735443323632843 0.010071403294347192059 4.59056899175094824
0.012679145539706837553 8.36068978091268100 0.012679145539706837553 5.20110271355902842
0.015962098519750611558 9.63224006035021141 0.015962098519750611558 5.88234832000101715
0.020095091452091651263 11.06916902520145918 0.020095091452091651263 6.64266769398871393
0.025298221281360611101 12.69067296288216973 0.025298221281360611101 7.49146928518022381
0.031848573644296607199 14.51822578691254506 0.031848573644296607199 8.43931472032330987
0.040094978690177640601 16.57585572792464035 0.040094978690177640601 9.49814835723232953
0.050476587558421215363 18.89049232071059592 0.050476587558421215363 10.68165259590031368
0.063546258777961384112 21.49240129551536072 0.063546258777961384112 12.00543151989666057
0.079999999999998294697 24.41560849923608956 0.079999999999998294697 13.48637795085106994
0.100714032943542974863 27.69803287294660521 0.100714032943542974863 15.14063851503570568
0.126791455396897845276 31.38095961846679316 0.126791455396897845276 16.98026173602573152
0.159620985197506115583 35.50761254522000598 0.159620985197506115583 19.00969520804942903
0.200950914520760193227 40.12099336987186149 0.200950914520760193227 21.22384279496283455
0.252982212813478213320 45.26153375604457807 0.252982212813478213320 23.60922559105902607
0.318485736442795541734 50.96543575057601316 0.318485736442795541734 26.14639705770238010
0.400949786901833249431 57.26339307050422178 0.400949786901833249431 28.81775867238646427
0.504765875584155310207 64.18246308468238226 0.504765875584155310207 31.61017438978046101
0.635462587779443310865 71.74591038782826047 0.635462587779443310865 34.51853614410575943
0.799999999999997157829 79.97659523715125829 0.799999999999997157829 37.55092115276406872
1.007140329435344483500 88.89901858766019416 1.007140329435344483500 40.73502979325948559
1.267914553968893187630 98.54539629664562028 1.267914553968893187630 44.08214560776175972
1.596209851975103788391 108.94100528028626229 1.596209851975103788391 47.65818902620992503
2.009509145207672986544 120.14200143996626480 2.009509145207672986544 51.49233761712815038
2.529822128134711078928 132.17902959351911818 2.529822128134711078928 55.65046175490662250
3.184857364427998049905 145.12684855368294734 3.184857364427998049905 60.22383886316664814
4.009497869018190385759 159.04262416635867794 4.009497869018190385759 65.23528520861142965
5.009497869018204596614 173.48277768832846846 5.009497869018204596614 70.52858997406293895
6.009497869018204596614 186.03734409276620454 6.009497869018204596614 75.17543246407039703
7.009497869018204596614 197.19435028670793031 7.009497869018204596614 79.31408826719646754
8.009497869018204596614 207.26007264788145790 8.009497869018204596614 83.02295741354885195
9.009497869018204596614 216.44157888160793846 9.009497869018204596614 86.37105269996233403
10.009497869018190385759 224.88709127583061331 10.009497869018190385759 89.40390403894585347
11.009497869018190385759 232.70741054456382813 11.009497869018190385759 92.14012088820658164
12.009497869018190385759 239.98826686324667889 12.009497869018190385759 94.63956099238535558
13.009497869018190385759 246.79744612595385433 13.009497869018190385759 96.92865373134735307
14.009497869018190385759 253.19050411871765505 14.009497869018190385759 99.02666983349536167
15.009497869018190385759 259.21224190741151006 15.009497869018190385759 100.95663537031974499
16.009497869018204596614 264.89984407260482158 16.009497869018204596614 102.73851297130612181
17.009497869018204596614 270.28593194343534378 17.009497869018204596614 104.39070362948353932
18.009497869018204596614 275.39877000374582394 18.009497869018204596614 105.93289004342686610
19.009497869018204596614 280.26236814451840473 19.009497869018204596614 107.36917977557945392
20.009497869018204596614 284.89843712215110827 20.009497869018204596614 108.70735376969584252
21.009497869018204596614 289.32470770110836611 21.009497869018204596614 109.95367328152852338
22.009497869018190385759 293.55632721788805384 22.009497869018190385759 111.11925135791281605
23.009497869018190385759 297.60719415624396333 23.009497869018190385759 112.20778320142635209
24.009497869018190385759 301.49014430857909019 24.009497869018190385759 113.23160740811616165
25.009497869018190385759 305.21724376364153386 25.009497869018190385759 114.19599719217424649
26.009497869018190385759 308.79910761644924833 26.009497869018190385759 115.10629998201669366
27.009497869018204596614 312.24542109208152851 27.009497869018204596614 115.96940845895136363
28.009497869018190385759 315.56457855525047762 28.009497869018190385759 116.78701982841063511
29.009497869018190385759 318.76410252161485914 29.009497869018190385759 117.55508625425684954
30.009497869018190385759 321.85097913841036643 30.009497869018190385759 118.29037616325386750
31.009497869018190385759 324.83160828808792076 31.009497869018190385759 118.98680928006363899
32.009497869018190385759 327.71188420936266539 32.009497869018190385759 119.64722590711966177
33.009497869018218807469 330.49728814101558783 33.009497869018218807469 120.26975533302990584
34.009497869018190385759 333.19304818421903747 34.009497869018190385759 120.86927703225886432
35.009497869018218807469 335.80383309522676427 35.009497869018218807469 121.43812974552369610
36.009497869018190385759 338.33396012886709059 36.009497869018190385759 121.98622493988756332
37.009497869018218807469 340.78742888425279034 37.009497869018218807469 122.51193435807870458
38.009497869018190385759 343.16804638090690105 38.009497869018190385759 123.01750243310956989
39.009497869018190385759 345.47929676835786950 39.009497869018190385759 123.50520565207881418
40.009497869018190385759 347.72444229219667022 40.009497869018190385759 123.97244353310169629
41.009497869018190385759 349.90661372421561737 41.009497869018190385759 124.42634989295507353
42.009497869018190385759 352.02867899560675369 42.009497869018190385759 124.85585988458306872
43.009497869018190385759 354.09334448616414193 43.009497869018190385759 125.27852392647614010
44.009497869018218807469 356.10321679945906226 44.009497869018218807469 125.67044520204338198
46.009497869018218807469 359.96826156356200954 46.009497869018218807469 126.41882318420361742
48.009497869018218807469 363.64044741044034481 48.009497869018218807469 127.10600807344656005
50.009497869018218807469 367.13301264705739868 50.009497869018218807469 127.69911985077241923
52.009497869018190385759 370.45915800853833844 52.009497869018190385759 128.22557066843691587
54.009497869018190385759 373.63144260933921714 54.009497869018190385759 128.69627867892330642
56.009497869018190385759 376.65981860904793166 56.009497869018190385759 129.11313480554667876
58.009497869018190385759 379.55286725106009271 58.009497869018190385759 129.47840602849672109
60.009497869018190385759 382.31912954188635467 60.009497869018190385759 129.86059516280374737
62.009497869018190385759 384.96578648211391283 62.009497869018190385759 130.22549263394981267
64.009497869018190385759 387.50036453249174428 64.009497869018190385759 130.57300210864389101
66.009497869018218807469 389.93301125906361904 66.009497869018218807469 130.94005281185735612
68.009497869018218807469 392.27251135978417551 68.009497869018218807469 131.30818578910046313
70.009497869018218807469 394.52408483158808394 70.009497869018218807469 131.61194091746568802
72.009497869018218807469 396.69318977774179302 72.009497869018218807469 131.81929462362961658
74.009497869018190385759 398.78488745771488766 74.009497869018190385759 132.00721215474754899
76.009497869018190385759 400.80325502747336941 76.009497869018190385759 132.17100107653152463
78.009497869018190385759 402.75352631722421393 78.009497869018190385759 132.37228677080312877
80.009497869018190385759 404.63894040041481048 80.009497869018190385759 132.47253455986842141
82.009497869018190385759 406.45944531812193645 82.009497869018190385759 132.60810046637317328
84.009497869018190385759 408.21586587157122494 84.009497869018190385759 132.71434694933583387
86.009497869018190385759 409.90965585162592788 86.009497869018190385759 132.68643120786248346
88.009497869018218807469 411.54506867590072261 88.009497869018218807469 132.69994819180942613
91.009497869018190385759 413.89259191981494723 91.009497869018190385759 132.64900084742384934
94.009497869018218807469 416.12171079916384997 94.009497869018218807469 132.69329746294536676
97.009497869018190385759 418.24848941076220399 97.009497869018190385759 132.89641337753252515
99.504748934509109403734 419.95097224501597566 99.504748934509109403734 132.99631495089718669
nan nan nan nan

