Time Pressure difference Time.1 Pressure.1 difference.1
(hr) (psi) (hr) (psi)
0.000200000000006639311 0.43161940021421086 0.000200000000006639311 0.34084734484517759
0.000399999999999067768 0.78341581023225326 0.000399999999999067768 0.67422545635019604
0.000600000000005707079 1.09632470761669953 0.000600000000005707079 0.90300685140533687
0.000799999999998135536 1.38289651535037006 0.000799999999998135536 1.10861485931413872
0.001007140329434719206 1.65888939232617671 0.001007140329434719206 1.30287989021892825
0.001267914553963578328 1.98288866985987733 0.001267914553963578328 1.52592890703395478
0.001596209851982166583 2.36159647410425411 0.001596209851982166583 1.77951201334501019
0.002009509145224797066 2.80237081114768172 0.002009509145224797066 2.06658889548274294
0.002529822128138903281 3.31327621144180329 0.002529822128138903281 2.39037134504059834
0.003184857364431081805 3.90314893979858013 0.003184857364431081805 2.75439447865865006
0.004009497869020606231 4.58168033696069177 0.004009497869020606231 3.16260215507808384
0.005047658755842121536 5.35952122376537776 0.005047658755842121536 3.61944342234340377
0.006354625877790454069 6.24840945819222338 0.006354625877790454069 4.12997638298491765
0.008000000000009777068 7.26132188865502126 0.008000000000009777068 4.69997632204833682
0.010071403294347192059 8.41265130700974950 0.010071403294347192059 5.33604600750537550
0.012679145539706837553 9.71840863422328560 0.012679145539706837553 6.04572623114553753
0.015962098519750611558 11.19644998468058894 0.015962098519750611558 6.83760146598408802
0.020095091452091651263 12.86672638826836312 0.020095091452091651263 7.72139150754243619
0.025298221281360611101 14.75155147822200874 0.025298221281360611101 8.70803267337188380
0.031848573644296607199 16.87588638478723269 0.031848573644296607199 9.80980172618778035
0.040094978690177640601 19.26766135895513798 0.040094978690177640601 11.04058270584270751
0.050476587558421215363 21.95817910783453542 0.050476587558421215363 12.41627994053369655
0.063546258777961384112 24.98262030931699940 0.063546258777961384112 13.95503151030722755
0.079999999999998294697 28.38053637518041583 0.079999999999998294697 15.67647351551919144
0.100714032943542974863 32.19600402325417576 0.100714032943542974863 17.59937468414406680
0.126791455396897845276 36.47701288984174539 0.126791455396897845276 19.73774013760256096
0.159620985197506115583 41.27380603546941273 0.159620985197506115583 22.09673972901472538
0.200950914520760193227 46.63636836156045717 0.200950914520760193227 24.67044974457218132
0.252982212813478213320 52.61169735745352938 0.252982212813478213320 27.44320239644467918
0.318485736442795541734 59.24187403485759518 0.318485736442795541734 30.39239316108994160
0.400949786901833249431 66.56257656058610905 0.400949786901833249431 33.49756563627828143
0.504765875584155310207 74.60525623518635996 0.504765875584155310207 36.74345057273625770
0.635462587779443310865 83.39695566448413899 0.635462587779443310865 40.12411038972977195
0.799999999999997157829 92.96424745515018628 0.799999999999997157829 43.64893398953771708
1.007140329435344483500 103.33561134975886375 1.007140329435344483500 47.35012010156657425
1.267914553968893187630 114.54849484054533093 1.267914553968893187630 51.24078463808204731
1.596209851975103788391 126.63227964204216391 1.596209851975103788391 55.39755305610726310
2.009509145207672986544 139.65224099004623781 2.009509145207672986544 59.85434116178998210
2.529822128134711078928 153.64400021127008245 2.529822128134711078928 64.68771622792563392
3.184857364427998049905 168.69445643846907501 3.184857364427998049905 70.00377850761250897
4.009497869018190385759 184.87005886004084232 4.009497869018190385759 75.82904947325772582
5.009497869018204596614 201.65519457788607838 5.009497869018204596614 81.98195073908171082
6.009497869018204596614 216.24853672321540898 6.009497869018204596614 87.38340867618440200
7.009497869018204596614 229.21736443583142773 7.009497869018204596614 92.19415388323692184
8.009497869018204596614 240.91769128300748548 8.009497869018204596614 96.50531801916790187
9.009497869018204596614 251.59021134956134347 9.009497869018204596614 100.39712108713570160
10.009497869018190385759 261.40721720951250973 10.009497869018190385759 103.92248674612508808
11.009497869018190385759 270.49750285521946580 11.009497869018190385759 107.10304650253073078
12.009497869018190385759 278.96072045642347348 12.009497869018190385759 110.00837858943938841
13.009497869018190385759 286.87566387290365810 13.009497869018190385759 112.66920433729265483
14.009497869018190385759 294.30691077047521276 14.009497869018190385759 115.10792390902024351
15.009497869018190385759 301.30653760177744971 15.009497869018190385759 117.35130265267935101
16.009497869018204596614 307.91776746901075512 16.009497869018204596614 119.42254499228747022
17.009497869018204596614 314.17851918211289330 17.009497869018204596614 121.34304011632274012
18.009497869018204596614 320.12164718384133266 18.009497869018204596614 123.13566705902609044
19.009497869018204596614 325.77506040730344239 19.009497869018204596614 124.80520042289577987
20.009497869018204596614 331.16399528728680934 20.009497869018204596614 126.36068472374900296
21.009497869018204596614 336.30906194316867186 21.009497869018204596614 127.80939800246051163
22.009497869018190385759 341.22786753532284365 22.009497869018190385759 129.16425798868496599
23.009497869018190385759 345.93656756623232695 23.009497869018190385759 130.42955996063233215
24.009497869018190385759 350.45008227322017547 24.009497869018190385759 131.61964621798119879
25.009497869018190385759 354.78243719534401635 25.009497869018190385759 132.74064630885212068
26.009497869018190385759 358.94597124647094688 26.009497869018190385759 133.79877604747238706
27.009497869018204596614 362.95194246600931365 27.009497869018204596614 134.80204743946484314
28.009497869018190385759 366.81010840610309742 28.009497869018190385759 135.75243330481919202
29.009497869018190385759 370.52921318751810986 29.009497869018190385759 136.64522846648659993
30.009497869018190385759 374.11737746003251459 30.009497869018190385759 137.49992442908140333
31.009497869018190385759 377.58204040324750395 31.009497869018190385759 138.30945352212523858
32.009497869018190385759 380.93005343994292389 32.009497869018190385759 139.07711729374594256
33.009497869018218807469 384.16778792459933811 33.009497869018218807469 139.80074124181254547
34.009497869018190385759 387.30132096627164628 34.009497869018190385759 140.49762116570258286
35.009497869018218807469 390.33607949530630776 35.009497869018218807469 141.15885167001042078
36.009497869018190385759 393.27708185919590278 36.009497869018190385759 141.79595377627958896
37.009497869018218807469 396.12897716460156516 37.009497869018218807469 142.40703480939063752
38.009497869018190385759 398.89619066498579514 38.009497869018190385759 142.99470368293077627
39.009497869018190385759 401.58277231193733314 39.009497869018190385759 143.56160656993779412
40.009497869018190385759 404.19251411742521896 40.009497869018190385759 144.10472068804983792
41.009497869018190385759 406.72905526917372754 41.009497869018190385759 144.63233833711018406
42.009497869018190385759 409.19572943079077731 42.009497869018190385759 145.13159781455809139
43.009497869018190385759 411.59568247964375587 43.009497869018190385759 145.62289960684404377
44.009497869018218807469 413.93194431390111276 44.009497869018218807469 146.07846621775985341
46.009497869018218807469 418.42464592003790358 46.009497869018218807469 146.94837566710847909
48.009497869018218807469 422.69316963948620014 48.009497869018218807469 147.74715468366437676
50.009497869018218807469 426.75290358974194760 50.009497869018218807469 148.43658375816281136
52.009497869018190385759 430.61919221505314681 52.009497869018190385759 149.04852658895231343
54.009497869018190385759 434.30663414418921775 54.009497869018190385759 149.59567436182535971
56.009497869018190385759 437.82679769940614278 56.009497869018190385759 150.08022507311409299
58.009497869018190385759 441.18965765935195122 58.009497869018190385759 150.50481384509021154
60.009497869018190385759 444.40514203159443696 60.009497869018190385759 150.94906788154963806
62.009497869018190385759 447.48159796211530193 62.009497869018190385759 151.37322220698439423
64.009497869018190385759 450.42777415742631320 64.009497869018190385759 151.77716484423564225
66.009497869018218807469 453.25546607891158146 66.009497869018218807469 152.20382207190255031
68.009497869018218807469 455.97488499940720885 68.009497869018218807469 152.63173732750138356
70.009497869018218807469 458.59209860765793110 70.009497869018218807469 152.98482021175496470
72.009497869018218807469 461.11345136558020386 72.009497869018218807469 153.22584674199680421
74.009497869018190385759 463.54482644657451829 74.009497869018190385759 153.44428079526213082
76.009497869018190385759 465.89096310885787489 76.009497869018190385759 153.63466791801954514
78.009497869018190385759 468.15794512087597923 78.009497869018190385759 153.86864103272841930
80.009497869018190385759 470.34953755945656440 80.009497869018190385759 153.98516837728294604
82.009497869018190385759 472.46568002790240826 82.009497869018190385759 154.14274926005771249
84.009497869018190385759 474.50733126951871554 84.009497869018190385759 154.26624944538181694
86.009497869018190385759 476.47618116086431428 86.009497869018190385759 154.23380037837003442
88.009497869018218807469 478.37717384549142707 88.009497869018218807469 154.24951242808617735
91.009497869018190385759 481.10591881277639459 91.009497869018190385759 154.19029158333026430
94.009497869018218807469 483.69703135629299595 94.009497869018218807469 154.24178166632967191
97.009497869018190385759 486.16918427233900957 97.009497869018190385759 154.47788221661897978
99.504748934509109403734 488.14813867796726754 99.504748934509109403734 154.59400712241037468
nan nan nan nan

