Time Pressure difference Time.1 Pressure.1 difference.1
(hr) (psi) (hr) (psi)
0.000200000000006639311 0.45637404228532003 0.000200000000006639311 0.36039594256423924
0.000399999999999067768 0.82834701111322073 0.000399999999999067768 0.71289426928792798
0.000600000000005707079 1.15920215408295135 0.000600000000005707079 0.95479695023593714
0.000799999999998135536 1.46220969784840604 0.000799999999998135536 1.17219718212774393
0.001007140329434719206 1.75403157806253085 0.001007140329434719206 1.37760388392266098
0.001267914553963578328 2.09661316710184087 0.001267914553963578328 1.61344541787854934
0.001596209851982166583 2.49704097776611533 0.001596209851982166583 1.88157226116920939
0.002009509145224797066 2.96309501943409304 0.002009509145224797066 2.18511384684131205
0.002529822128138903281 3.50330234709802424 0.002529822128138903281 2.52746617218263259
0.003184857364431081805 4.12700601134585199 0.003184857364431081805 2.91236710316995495
0.004009497869020606231 4.84445317981579038 0.004009497869020606231 3.34398669044285590
0.005047658755842121536 5.66690552924603885 0.005047658755842121536 3.82702914803662830
0.006354625877790454069 6.60677411829442551 0.006354625877790454069 4.36684267553846439
0.008000000000009777068 7.67778005579847100 0.008000000000009777068 4.96953378757758024
0.010071403294347192059 8.89514160255883546 0.010071403294347192059 5.64208394028877169
0.012679145539706837553 10.27578795295079850 0.012679145539706837553 6.39246641204947252
0.015962098519750611558 11.83859932203727006 0.015962098519750611558 7.22975802065082274
0.020095091452091651263 13.60467098994846147 0.020095091452091651263 8.16423602047501795
0.025298221281360611101 15.59759634241415327 0.025298221281360611101 9.20746395905056580
0.031848573644296607199 17.84376810391473356 0.031848573644296607199 10.37242270754266649
0.040094978690177640601 20.37271840748344687 0.040094978690177640601 11.67379259632486210
0.050476587558421215363 23.21754526254857964 0.050476587558421215363 13.12839011359371710
0.063546258777961384112 26.41544706235135465 0.063546258777961384112 14.75539361163367147
0.079999999999998294697 30.00824360846281991 0.079999999999998294697 16.57556537890926407
0.100714032943542974863 34.04253954811728278 0.100714032943542974863 18.60875058514644920
0.126791455396897845276 38.56907686440619898 0.126791455396897845276 20.86975758667094283
0.159620985197506115583 43.64098020515074694 0.159620985197506115583 23.36405274288468803
0.200950914520760193227 49.31110125288524415 0.200950914520760193227 26.08537259756970172
0.252982212813478213320 55.62913294118983032 0.252982212813478213320 29.01715076918194924
0.318485736442795541734 62.63956975156265372 0.318485736442795541734 32.13548629827010217
0.400949786901833249431 70.38013609861971531 0.400949786901833249431 35.41874954777070883
0.504765875584155310207 78.88408710749853014 0.504765875584155310207 38.85079553205495984
0.635462587779443310865 88.18001635700601071 0.635462587779443310865 42.42534613267015686
0.799999999999997157829 98.29602047096027206 0.799999999999997157829 46.15232873305532735
1.007140329435344483500 109.26221258893620814 1.007140329435344483500 50.06578875445054422
1.267914553968893187630 121.11818792698836944 1.267914553968893187630 54.17959434526616036
1.596209851975103788391 133.89501332739459372 1.596209851975103788391 58.57476565785459854
2.009509145207672986544 147.66170775271066873 2.009509145207672986544 63.28716366959852024
2.529822128134711078928 162.45593551750468464 2.529822128134711078928 68.39774701158609105
3.184857364427998049905 178.36957967538126013 3.184857364427998049905 74.01870109849029689
4.009497869018190385759 195.47290047113145306 4.009497869018190385759 80.17806848716516299
5.009497869018204596614 213.22071309044130771 5.009497869018204596614 86.68385673735257058
6.009497869018204596614 228.65102632939982641 6.009497869018204596614 92.39510417378909324
7.009497869018204596614 242.36365445494527648 7.009497869018204596614 97.48175976771668161
8.009497869018204596614 254.73502945953293874 8.009497869018204596614 102.04018184673782343
9.009497869018204596614 266.01964994166854694 9.009497869018204596614 106.15519126713319054
10.009497869018190385759 276.39968996123457146 10.009497869018190385759 109.88274701538814782
11.009497869018190385759 286.01133022485709034 11.009497869018190385759 113.24572122841117050
12.009497869018190385759 294.95993824730658162 12.009497869018190385759 116.31768265559841780
13.009497869018190385759 303.32882694796722944 13.009497869018190385759 119.13111458604915072
14.009497869018190385759 311.18627771172305074 14.009497869018190385759 121.70970189791992766
15.009497869018190385759 318.58735372893823978 15.009497869018190385759 124.08174501070065787
16.009497869018204596614 325.57775707385104624 16.009497869018204596614 126.27177919037454501
17.009497869018204596614 332.19758131167526471 17.009497869018204596614 128.30242035828831604
18.009497869018204596614 338.48156518409103910 18.009497869018204596614 130.19785972858790046
19.009497869018204596614 344.45921828360468453 19.009497869018204596614 131.96314574126773778
20.009497869018204596614 350.15722442876352716 20.009497869018204596614 133.60784164172872579
21.009497869018204596614 355.59737578990922202 21.009497869018204596614 135.13964288789574653
22.009497869018190385759 360.79828934984874422 22.009497869018190385759 136.57220807921248706
23.009497869018190385759 365.77704717664852296 23.009497869018190385759 137.91007884072743650
24.009497869018190385759 370.54942522712542541 24.009497869018190385759 139.16842004518892395
25.009497869018190385759 375.13025344625350499 25.009497869018190385759 140.35371278833039810
26.009497869018190385759 379.53257842090084750 26.009497869018190385759 141.47252937960683994
27.009497869018204596614 383.76830387214801021 27.009497869018204596614 142.53334133672825601
28.009497869018190385759 387.84774697645320884 28.009497869018190385759 143.53823462671323341
29.009497869018190385759 391.78015335562577093 29.009497869018190385759 144.48223421677039369
30.009497869018190385759 395.57410940259325116 30.009497869018190385759 145.38594950663167538
31.009497869018190385759 399.23748095578667971 31.009497869018190385759 146.24190747412947644
32.009497869018190385759 402.77751238723379856 32.009497869018190385759 147.05359902088724766
33.009497869018218807469 406.20094046733368032 33.009497869018218807469 147.81872493068118501
34.009497869018190385759 409.51419084521961622 34.009497869018190385759 148.55557296785320887
35.009497869018218807469 412.72300170165476629 35.009497869018218807469 149.25472698637869939
36.009497869018190385759 415.83267920112041338 36.009497869018190385759 149.92836877227207992
37.009497869018218807469 418.84813909021841027 37.009497869018218807469 150.57449709992920361
38.009497869018190385759 421.77406042371291051 38.009497869018190385759 151.19587051180474191
39.009497869018190385759 424.61472542982789946 39.009497869018190385759 151.79528694674303324
40.009497869018190385759 427.37414360357166743 40.009497869018190385759 152.36955025692330423
41.009497869018190385759 430.05616285078809824 41.009497869018190385759 152.92742832997387836
42.009497869018190385759 432.66430803049792075 42.009497869018190385759 153.45532180686365109
43.009497869018190385759 435.20190544538803579 43.009497869018190385759 153.97480120194248343
44.009497869018218807469 437.67215876719842527 44.009497869018218807469 154.45649589789607603
46.009497869018218807469 442.42253002427537467 46.009497869018218807469 155.37629721272205074
48.009497869018218807469 446.93586613351556025 48.009497869018218807469 156.22088855522744666
50.009497869018218807469 451.22843776621243705 50.009497869018218807469 156.94985841488099254
52.009497869018190385759 455.31646941562235043 52.009497869018190385759 157.59689796684810403
54.009497869018190385759 459.21539698481183223 54.009497869018190385759 158.17542627375357256
56.009497869018190385759 462.93745227334267156 56.009497869018190385759 158.68776739348388105
58.009497869018190385759 466.49318214275592709 58.009497869018190385759 159.13670758032330355
60.009497869018190385759 469.89308400105346664 60.009497869018190385759 159.60644089240324206
62.009497869018190385759 473.14598372758956657 62.009497869018190385759 160.05492171591438932
64.009497869018190385759 476.26113179292570976 64.009497869018190385759 160.48203165147856453
66.009497869018218807469 479.25100016284909543 66.009497869018218807469 160.93315892602635131
68.009497869018218807469 482.12638575672616525 68.009497869018218807469 161.38561638010810384
70.009497869018218807469 484.89370426309716322 70.009497869018218807469 161.75894960625268482
72.009497869018218807469 487.55966401742966809 72.009497869018218807469 162.01379971690542448
74.009497869018190385759 490.13048561042222673 74.009497869018190385759 162.24476160557861704
76.009497869018190385759 492.61118011068947453 76.009497869018190385759 162.44606798978833240
78.009497869018190385759 495.00818020869087377 78.009497869018190385759 162.69346015078195933
80.009497869018190385759 497.32546691948414264 80.009497869018190385759 162.81667068127418929
82.009497869018190385759 499.56297638244382142 82.009497869018190385759 162.98328929114924790
84.009497869018190385759 501.72172232762341082 84.009497869018190385759 163.11387257533755246
86.009497869018190385759 503.80349155097275116 86.009497869018190385759 163.07956245889423030
88.009497869018218807469 505.81351175721812297 88.009497869018218807469 163.09617564087346864
91.009497869018190385759 508.69875827409742897 91.009497869018190385759 163.03355830649186942
94.009497869018218807469 511.43847874290389655 94.009497869018218807469 163.08800149719269257
97.009497869018190385759 514.05241689972308450 97.009497869018190385759 163.33764310845450041
99.504748934509109403734 516.14487016096825300 99.504748934509109403734 163.46042811913685000
nan nan nan nan

