Time Pressure difference Time.1 Pressure.1 difference.1
(hr) (psi) (hr) (psi)
0.000200000000006639311 0.36370281812168065 0.000200000000006639311 0.28721401264159818
0.000399999999999067768 0.66014302832806049 0.000399999999999067768 0.56813409777744461
0.000600000000005707079 0.92381479038877778 0.000600000000005707079 0.76091606743420304
0.000799999999998135536 1.16529368131729716 0.000799999999998135536 0.93417105056911987
0.001007140329434719206 1.39785826735720486 0.001007140329434719206 1.09786790749330287
0.001267914553963578328 1.67087530563192610 0.001267914553963578328 1.28581950548596491
0.001596209851982166583 1.98999232303196716 0.001596209851982166583 1.49950056418630995
0.002009509145224797066 2.36140952174650254 0.002009509145224797066 1.74140505457589945
0.002529822128138903281 2.79192245464140187 0.002529822128138903281 2.01423938339450448
0.003184857364431081805 3.28897697427145097 0.003184857364431081805 2.32098240628147989
0.004009497869020606231 3.86073946040952443 0.004009497869020606231 2.66495740420550309
0.005047658755842121536 4.51618479590817845 0.005047658755842121536 3.04991335441583855
0.006354625877790454069 5.26520385227080023 0.006354625877790454069 3.48011245213287879
0.008000000000009777068 6.11873153264606984 0.008000000000009777068 3.96042122431425980
0.010071403294347192059 7.08889588075968557 0.010071403294347192059 4.49640347397144069
0.012679145539706837553 8.18918845207344681 0.012679145539706837553 5.09441342712704870
0.015962098519750611558 9.43465564885584840 0.015962098519750611558 5.76168476471894575
0.020095091452091651263 10.84210914776143042 0.020095091452091651263 6.50640784385561233
0.025298221281360611101 12.43035146620766263 0.025298221281360611101 7.33779812035601431
0.031848573644296607199 14.22041602718100606 0.031848573644296607199 8.26620057221411386
0.040094978690177640601 16.23583817453131317 0.040094978690177640601 9.30331454477628128
0.050476587558421215363 18.50299504233704084 0.050476587558421215363 10.46254177342030722
0.063546258777961384112 21.05153152535094208 0.063546258777961384112 11.75916625795006176
0.079999999999998294697 23.91477550437996769 0.079999999999998294697 13.20973430057720144
0.100714032943542974863 27.12986809606564975 0.100714032943542974863 14.83006131472727951
0.126791455396897845276 30.73724762629311513 0.126791455396897845276 16.63194867477392336
0.159620985197506115583 34.77925126224113228 0.159620985197506115583 18.61975274224328913
0.200950914520760193227 39.29799863407961880 0.200950914520760193227 20.78848191711744420
0.252982212813478213320 44.33309203797186626 0.252982212813478213320 23.12493378406294298
0.318485736442795541734 49.91999091466676219 0.318485736442795541734 25.61006070780079114
0.400949786901833249431 56.08875936649388194 0.400949786901833249431 28.22662516115802234
0.504765875584155310207 62.86589973935556941 0.504765875584155310207 30.96176055614393618
0.635462587779443310865 70.27419940551384059 0.635462587779443310865 33.81046360781641624
0.799999999999997157829 78.33604969382508898 0.799999999999997157829 36.78064584706635287
1.007140329435344483500 87.07544897560562447 1.007140329435344483500 39.89943943852595254
1.267914553968893187630 96.52395227004775791 1.267914553968893187630 43.17789646708971674
1.596209851975103788391 106.70631799248552340 1.596209851975103788391 46.68058514874920917
2.009509145207672986544 117.67755012837720585 2.009509145207672986544 50.43608453780243650
2.529822128134711078928 129.46766488390844074 2.529822128134711078928 54.50891382147263187
3.184857364427998049905 142.14988755770997386 3.184857364427998049905 58.98847806597348153
4.009497869018190385759 155.78021136294620419 4.009497869018190385759 63.89712551202453028
5.009497869018204596614 169.92415660754224405 5.009497869018204596614 69.08184966690267004
6.009497869018204596614 182.22119344470945634 6.009497869018204596614 73.63337231096126345
7.009497869018204596614 193.14933797313443620 7.009497869018204596614 77.68713261043346563
8.009497869018204596614 203.00858397818132062 8.009497869018204596614 81.31992238968118158
9.009497869018204596614 212.00175162249803407 9.009497869018204596614 84.59933879842465387
10.009497869018190385759 220.27402273683921408 10.009497869018190385759 87.56997780224952521
11.009497869018190385759 227.93392520005997426 11.009497869018190385759 90.25006712639722650
12.009497869018190385759 235.06543061989802368 12.009497869018190385759 92.69823666433642018
13.009497869018190385759 241.73493441054969821 13.009497869018190385759 94.94037365480690482
14.009497869018190385759 247.99685275217984781 14.009497869018190385759 96.99535352921851938
15.009497869018190385759 253.89506771443896582 15.009497869018190385759 98.88573002939010337
16.009497869018204596614 259.46600111726934301 16.009497869018204596614 100.63105629497164273
17.009497869018204596614 264.74160513433929509 17.009497869018204596614 102.24935586272489729
18.009497869018204596614 269.74956446520752706 18.009497869018204596614 103.75990768356170690
19.009497869018204596614 274.51339649027187306 19.009497869018204596614 105.16673506223423828
20.009497869018204596614 279.05436661708137080 20.009497869018204596614 106.47745933339437840
21.009497869018204596614 283.38984190211124314 21.009497869018204596614 107.69821331677921705
22.009497869018190385759 287.53465896726470419 22.009497869018190385759 108.83988209928895685
23.009497869018190385759 291.50243119919281298 23.009497869018190385759 109.90608508447401448
24.009497869018190385759 295.30573109199292503 24.009497869018190385759 110.90890776897532533
25.009497869018190385759 298.95637722490022270 25.009497869018190385759 111.85351519848863688
26.009497869018190385759 302.46476694739391178 26.009497869018190385759 112.74514511059071253
27.009497869018204596614 305.84038681326961751 27.009497869018204596614 113.59054879825491469
28.009497869018190385759 309.09145899514277289 28.009497869018190385759 114.39138865244323995
29.009497869018190385759 312.22535170065862076 29.009497869018190385759 115.14369986955415470
30.009497869018190385759 315.24890777146856635 30.009497869018190385759 115.86390690862300801
31.009497869018190385759 318.16839581038357210 31.009497869018190385759 116.54605421790847686
32.009497869018190385759 320.98958914865778524 32.009497869018190385759 117.19292383723002615
33.009497869018218807469 323.71785658940501662 33.009497869018218807469 117.80268342876262011
34.009497869018190385759 326.35831899069660267 34.009497869018190385759 118.38990724698174972
35.009497869018218807469 328.91554933942722982 35.009497869018218807469 118.94709118664114555
36.009497869018190385759 331.39377633135188717 36.009497869018190385759 119.48394340265910785
37.009497869018218807469 333.79691752252449533 37.009497869018218807469 119.99886903791298209
38.009497869018190385759 336.12870183976008320 38.009497869018190385759 120.49406648576373868
39.009497869018190385759 338.39254196285304488 39.009497869018190385759 120.97176553613874717
40.009497869018190385759 340.59163321953627701 40.009497869018190385759 121.42941905037142192
41.009497869018190385759 342.72904216064193861 41.009497869018190385759 121.87401451053548840
42.009497869018190385759 344.80757788800463004 42.009497869018190385759 122.29471404079676233
43.009497869018190385759 346.82989126593508900 43.009497869018190385759 122.70870805106123669
44.009497869018218807469 348.79853542921375720 44.009497869018218807469 123.09258991584763976
46.009497869018218807469 352.58429722379662508 46.009497869018218807469 123.82561655478404816
48.009497869018218807469 356.18115618150824275 48.009497869018218807469 124.49870534373481235
50.009497869018218807469 359.60207905429729180 50.009497869018218807469 125.07965072562836895
52.009497869018190385759 362.85999579297862283 52.009497869018190385759 125.59530255216127159
54.009497869018190385759 365.96720788914768718 54.009497869018190385759 126.05635501371462226
56.009497869018190385759 368.93346335552899973 56.009497869018190385759 126.46466024543289564
58.009497869018190385759 371.76716741001274613 58.009497869018190385759 126.82243872534805007
60.009497869018190385759 374.47668585897588400 60.009497869018190385759 127.19678808254110436
62.009497869018190385759 377.06905240042954119 62.009497869018190385759 127.55420047735594835
64.009497869018190385759 379.55163910618421141 64.009497869018190385759 127.89458155256916427
66.009497869018218807469 381.93438538708284113 66.009497869018218807469 128.25410301058846585
68.009497869018218807469 384.22589574214754293 68.009497869018218807469 128.61468454214454482
70.009497869018218807469 386.43128309145293997 70.009497869018218807469 128.91220879608175665
72.009497869018218807469 388.55589357717275334 72.009497869018218807469 129.11530909288848079
74.009497869018190385759 390.60468463806944328 74.009497869018190385759 129.29937190541940595
76.009497869018190385759 392.58164979614053891 76.009497869018190385759 129.45980105444880337
78.009497869018190385759 394.49191552097340718 78.009497869018190385759 129.65695781140200893
80.009497869018190385759 396.33865444348322171 80.009497869018190385759 129.75514923556343660
82.009497869018190385759 398.12181567057069742 82.009497869018190385759 129.88793430296038878
84.009497869018190385759 399.84220708446213166 84.009497869018190385759 129.99200137088791962
86.009497869018190385759 401.50125265466948576 86.009497869018190385759 129.96465826000888910
88.009497869018218807469 403.10311854921553731 88.009497869018218807469 129.97789797249026833
91.009497869018190385759 405.40248747017773212 91.009497869018190385759 129.92799570183566971
94.009497869018218807469 407.58588083405277303 94.009497869018218807469 129.97138366883368121
97.009497869018190385759 409.66903321772093705 97.009497869018190385759 130.17033310312160665
99.504748934509109403734 411.33659332716945300 99.504748934509109403734 130.26818541344286473
nan nan nan nan

