Time Pressure difference Time.1 Pressure.1 difference.1
(hr) (psi) (hr) (psi)
0.000200000000006639311 0.38020591283575339 0.000200000000006639311 0.30024641112097267
0.000399999999999067768 0.69009716224870554 0.000399999999999067768 0.59391330640259909
0.000600000000005707079 0.96573308803294566 0.000600000000005707079 0.79544279998793643
0.000799999999998135536 1.21816913631598767 0.000799999999998135536 0.97655926577818986
0.001007140329434719206 1.46128639118144088 0.001007140329434719206 1.14768390329579129
0.001267914553963578328 1.74669163712656839 0.001267914553963578328 1.34416384604902794
0.001596209851982166583 2.08028865880654168 0.001596209851982166583 1.56754072940244282
0.002009509145224797066 2.46855899393744327 0.002009509145224797066 1.82042168881494559
0.002529822128138903281 2.91860654507888251 0.002529822128138903281 2.10563593482252731
0.003184857364431081805 3.43821502196963191 0.003184857364431081805 2.42629748928901634
0.004009497869020606231 4.03592135564625654 0.004009497869020606231 2.78588042778201794
0.005047658755842121536 4.72110766622861888 0.005047658755842121536 3.18830383821132202
0.006354625877790454069 5.50411362567226803 0.006354625877790454069 3.63802331383524358
0.008000000000009777068 6.39637031074170270 0.008000000000009777068 4.14012620133375542
0.010071403294347192059 7.41055607779241132 0.010071403294347192059 4.70042876249370511
0.012679145539706837553 8.56077466455845304 0.012679145539706837553 5.32557354772967262
0.015962098519750611558 9.86275520709363640 0.015962098519750611558 6.02312246783010163
0.020095091452091651263 11.33407221554815969 0.020095091452091651263 6.80163751914399839
0.025298221281360611101 12.99438137566909290 0.025298221281360611101 7.67075231080846898
0.031848573644296607199 14.86567050659934175 0.031848573644296607199 8.64128122645070640
0.040094978690177640601 16.97254287355018576 0.040094978690177640601 9.72545447176438493
0.050476587558421215363 19.34257247881307151 0.050476587558421215363 10.93728188879365426
0.063546258777961384112 22.00674936070717891 0.063546258777961384112 12.29274099216769045
0.079999999999998294697 24.99991365990156922 0.079999999999998294697 13.80912887617058260
0.100714032943542974863 28.36089177930771754 0.100714032943542974863 15.50297858206219992
0.126791455396897845276 32.13195694266941160 0.126791455396897845276 17.38662697415284342
0.159620985197506115583 36.35736737536203123 0.159620985197506115583 19.46462808482326423
0.200950914520760193227 41.08115389496281722 0.200950914520760193227 21.73176381911579114
0.252982212813478213320 46.34471576046274066 0.252982212813478213320 24.17423269922112539
0.318485736442795541734 52.18512139247014403 0.318485736442795541734 26.77212279925422678
0.400949786901833249431 58.63379905851628848 0.400949786901833249431 29.50741443548631082
0.504765875584155310207 65.71845365423034480 0.504765875584155310207 32.36665719568973287
0.635462587779443310865 73.46290653386175507 0.635462587779443310865 35.34462076977666811
0.799999999999997157829 81.89056503769846529 0.799999999999997157829 38.44957567607808357
1.007140329435344483500 91.02651646839052546 1.007140329435344483500 41.70988520711526348
1.267914553968893187630 100.90374766100978832 1.267914553968893187630 45.13710293854579447
1.596209851975103788391 111.54814044938713380 1.596209851975103788391 48.79872688324743280
2.009509145207672986544 123.01719463682015032 2.009509145207672986544 52.72463287634146667
2.529822128134711078928 135.34228842139819449 2.529822128134711078928 56.98226767724626285
3.184857364427998049905 148.59996971565144008 3.184857364427998049905 61.66509312655867348
4.009497869018190385759 162.84877243700657345 4.009497869018190385759 66.79647152129615506
5.009497869018204596614 177.63450228257906360 5.009497869018204596614 72.21645366574990987
6.009497869018204596614 190.48951984883240129 6.009497869018204596614 76.97450264269772902
7.009497869018204596614 201.91353131921036379 7.009497869018204596614 81.21220320008663407
8.009497869018204596614 212.22014276253159437 8.009497869018204596614 85.00983160806113403
9.009497869018204596614 221.62137735056947463 9.009497869018204596614 88.43805225175631790
10.009497869018190385759 230.26900457132057909 10.009497869018190385759 91.54348464842489363
11.009497869018190385759 238.27647677981832430 11.009497869018190385759 94.34518361031751965
12.009497869018190385759 245.73157581382008630 12.009497869018190385759 96.90443937510910644
13.009497869018190385759 252.70370979392541244 13.009497869018190385759 99.24831382064455454
14.009497869018190385759 259.24976404634509208 14.009497869018190385759 101.39653885515164689
15.009497869018190385759 265.41561179921279745 15.009497869018190385759 103.37269160140431268
16.009497869018204596614 271.23932752049626060 16.009497869018204596614 105.19721242702969732
17.009497869018204596614 276.75431322071415252 17.009497869018204596614 106.88894269070195264
18.009497869018204596614 281.98950979870733136 18.009497869018204596614 108.46803612993622323
19.009497869018204596614 286.96950174113936782 19.009497869018204596614 109.93869860781555303
20.009497869018204596614 291.71651937806586830 20.009497869018204596614 111.30889727871419836
21.009497869018204596614 296.24871779993827658 21.009497869018204596614 112.58504324040271172
22.009497869018190385759 300.58160684361530457 22.009497869018190385759 113.77851549297398037
23.009497869018190385759 304.72941760613696260 23.009497869018190385759 114.89309767120407457
24.009497869018190385759 308.70529306126309166 24.009497869018190385759 115.94142365378048964
25.009497869018190385759 312.52158805883982495 25.009497869018190385759 116.92889285147415990
26.009497869018190385759 316.18917173034719781 26.009497869018190385759 117.86098066534700024
27.009497869018204596614 319.71796108402878644 27.009497869018204596614 118.74474472976386608
28.009497869018190385759 323.11655137537610472 28.009497869018190385759 119.58192286703926754
29.009497869018190385759 326.39264514606372813 29.009497869018190385759 120.36837036974334580
30.009497869018190385759 329.55339573317570512 30.009497869018190385759 121.12125696032319411
31.009497869018190385759 332.60535617874302261 31.009497869018190385759 121.83435685257796877
32.009497869018190385759 335.55456178018505398 32.009497869018190385759 122.51057832199089148
33.009497869018218807469 338.40662495122791142 33.009497869018218807469 123.14800588800838455
34.009497869018190385759 341.16689890999521140 34.009497869018190385759 123.76187511508216232
35.009497869018218807469 343.84016414365953551 35.009497869018218807469 124.34434139755329340
36.009497869018190385759 346.43084122596815178 36.009497869018190385759 124.90555339998743989
37.009497869018218807469 348.94302547293574435 37.009497869018218807469 125.44384389827206405
38.009497869018190385759 351.38061501224478889 38.009497869018190385759 125.96151103834638718
39.009497869018190385759 353.74717737478010804 39.009497869018190385759 126.46088578734224939
40.009497869018190385759 356.04605287696722371 40.009497869018190385759 126.93930542962037578
41.009497869018190385759 358.28044721505153802 41.009497869018190385759 127.40407450577795601
42.009497869018190385759 360.45329695447600216 42.009497869018190385759 127.84386336900044512
43.009497869018190385759 362.56737324309796122 43.009497869018190385759 128.27664244779353453
44.009497869018218807469 364.62534506474526097 44.009497869018218807469 128.67794303593845484
46.009497869018218807469 368.58288662662158686 46.009497869018218807469 129.44423091852644347
48.009497869018218807469 372.34295384419448283 48.009497869018218807469 130.14786125811022544
50.009497869018218807469 375.91910183861097039 50.009497869018218807469 130.75516716344048973
52.009497869018190385759 379.32484726002473963 52.009497869018190385759 131.29421680409180340
54.009497869018190385759 382.57304978289607789 54.009497869018190385759 131.77618962166675942
56.009497869018190385759 385.67389973815335225 56.009497869018190385759 132.20302179234607820
58.009497869018190385759 388.63618373228206337 58.009497869018190385759 132.57703454883682070
60.009497869018190385759 391.46864717194858940 60.009497869018190385759 132.96837008977681194
62.009497869018190385759 394.17864291074567973 62.009497869018190385759 133.34200014997597350
64.009497869018190385759 396.77387752985049474 64.009497869018190385759 133.69782609073109825
66.009497869018218807469 399.26474144304120273 66.009497869018218807469 134.07366091333767599
68.009497869018218807469 401.66022958036018053 68.009497869018218807469 134.45060391054903448
70.009497869018218807469 403.96568686174572349 70.009497869018218807469 134.76162839241357005
72.009497869018218807469 406.18670201173904388 72.009497869018218807469 134.97394440949423711
74.009497869018190385759 408.32845741396783978 74.009497869018190385759 135.16635911229707290
76.009497869018190385759 410.39512779736156745 76.009497869018190385759 135.33406776896131873
78.009497869018190385759 412.39207224618337477 78.009497869018190385759 135.54017055677104509
80.009497869018190385759 414.32260735016831177 80.009497869018190385759 135.64281743822425597
82.009497869018190385759 416.18667990693165848 82.009497869018190385759 135.78162765702143133
84.009497869018190385759 417.98513445653190956 84.009497869018190385759 135.89041679085838155
86.009497869018190385759 419.71945958140844368 86.009497869018190385759 135.86183298035834355
88.009497869018218807469 421.39401049036666791 88.009497869018218807469 135.87567344768180533
91.009497869018190385759 423.79771377772510732 91.009497869018190385759 135.82350685061004469
94.009497869018218807469 426.08017909179341132 94.009497869018218807469 135.86886355607569499
97.009497869018190385759 428.25785496931035823 97.009497869018190385759 136.07684036434525865
99.504748934509109403734 430.00108098250353805 99.504748934509109403734 136.17913274459382933
nan nan nan nan

