Time Pressure difference Time.1 Pressure.1 difference.1
(hr) (psi) (hr) (psi)
0.000200000000006639311 0.21644443451918516 0.000200000000006639311 0.17092491851794936
0.000399999999999067768 0.39285998718999759 0.000399999999999067768 0.33810423619914243
0.000600000000005707079 0.54977459602543310 0.000600000000005707079 0.45283137695473513
0.000799999999998135536 0.69348192902128847 0.000799999999998135536 0.55593774562664899
0.001007140329434719206 0.83188423938709732 0.001007140329434719206 0.65335594494802129
0.001267914553963578328 0.99436034767973258 0.001267914553963578328 0.76520846661555675
0.001596209851982166583 1.18427117304345675 0.001596209851982166583 0.89237293610389490
0.002009509145224797066 1.40530653911964620 0.002009509145224797066 1.03633354905825792
0.002529822128138903281 1.66151057073772779 0.002529822128138903281 1.19870092449830001
0.003184857364431081805 1.95731439481075875 0.003184857364431081805 1.38124781944499930
0.004009497869020606231 2.29757793368175856 0.004009497869020606231 1.58595196306121555
0.005047658755842121536 2.68764226074116719 0.005047658755842121536 1.81504442208691263
0.006354625877790454069 3.13339356653462975 0.006354625877790454069 2.07106168617331887
0.008000000000009777068 3.64133935886965032 0.008000000000009777068 2.35689989090953356
0.010071403294347192059 4.21869719954459477 0.010071403294347192059 2.67587013023431286
0.012679145539706837553 4.87349609451491261 0.012679145539706837553 3.03175388944210056
0.015962098519750611558 5.61469035996482457 0.015962098519750611558 3.42885602926555011
0.020095091452091651263 6.45228485058751744 0.020095091452091651263 3.87205074128231042
0.025298221281360611101 7.39746919716721330 0.025298221281360611101 4.36682226708795973
0.031848573644296607199 8.46276067237124607 0.031848573644296607199 4.91932704210298866
0.040094978690177640601 9.66216547559367989 0.040094978690177640601 5.53652750395935733
0.050476587558421215363 11.01138099378173152 0.050476587558421215363 6.22639920547351622
0.063546258777961384112 12.52804930217220125 0.063546258777961384112 6.99803786031583108
0.079999999999998294697 14.23200427049488326 0.079999999999998294697 7.86129039528241957
0.100714032943542974863 16.14534907636716454 0.100714032943542974863 8.82556877543106921
0.126791455396897845276 18.29214911093534113 0.126791455396897845276 9.89789615723893057
0.159620985197506115583 20.69759979131627858 0.159620985197506115583 11.08086506999120679
0.200950914520760193227 23.38676707542958155 0.200950914520760193227 12.37150494543987378
0.252982212813478213320 26.38321882189948653 0.252982212813478213320 13.76195884880534770
0.318485736442795541734 29.70805742042123399 0.318485736442795541734 15.24089127637010321
0.400949786901833249431 33.37917442229391440 0.400949786901833249431 16.79804394407484480
0.504765875584155310207 37.41234172970374772 0.504765875584155310207 18.42575977250450592
0.635462587779443310865 41.82112041410159975 0.635462587779443310865 20.12106123955566517
0.799999999999997157829 46.61883585618560488 0.799999999999997157829 21.88865660357700449
1.007140329435344483500 51.81976980921731268 1.007140329435344483500 23.74469258034441665
1.267914553968893187630 57.44270108915582540 1.267914553968893187630 25.69574641409702309
1.596209851975103788391 63.50236376167114116 1.596209851975103788391 27.78024351784202750
2.009509145207672986544 70.03149143765554641 2.009509145207672986544 30.01519167083879935
2.529822128134711078928 77.04794716476926908 2.529822128134711078928 32.43898710841565958
3.184857364427998049905 84.59530830223228293 3.184857364427998049905 35.10483598690569096
4.009497869018190385759 92.70689716363813204 4.009497869018190385759 38.02603804467777593
5.009497869018204596614 101.12414904567522456 5.009497869018204596614 41.11153706180420642
6.009497869018204596614 108.44228091561242877 6.009497869018204596614 43.82020935085129310
7.009497869018204596614 114.94576657738018355 7.009497869018204596614 46.23265657968204323
8.009497869018204596614 120.81313636397875655 8.009497869018204596614 48.39457859490624969
9.009497869018204596614 126.16509127970650184 9.009497869018204596614 50.34620336869599555
10.009497869018190385759 131.08803098300555234 10.009497869018190385759 52.11407055945390709
11.009497869018190385759 135.64654187298506827 11.009497869018190385759 53.70902773141614261
12.009497869018190385759 139.89059658182412704 12.009497869018190385759 55.16596632205710193
13.009497869018190385759 143.85970791273550162 13.009497869018190385759 56.50029217502470402
14.009497869018190385759 147.58625966578242128 14.009497869018190385759 57.72323831319985743
15.009497869018190385759 151.09636665030311065 15.009497869018190385759 58.84822677141714564
16.009497869018204596614 154.41170398078332937 16.009497869018204596614 59.88689388583827622
17.009497869018204596614 157.55128682514779825 17.009497869018204596614 60.84996570539125571
18.009497869018204596614 160.53159072013218633 18.009497869018204596614 61.74891539283515129
19.009497869018204596614 163.36661117483893690 19.009497869018204596614 62.58613727089332457
20.009497869018204596614 166.06900351906585911 20.009497869018204596614 63.36616689823295445
21.009497869018204596614 168.64910312150072969 21.009497869018204596614 64.09265399829268972
22.009497869018190385759 171.11573945521337237 22.009497869018190385759 64.77207643256113556
23.009497869018190385759 173.47701402953705951 23.009497869018190385759 65.40658815672885851
24.009497869018190385759 175.74040890465894904 24.009497869018190385759 66.00338141225233812
25.009497869018190385759 177.91295747590046972 25.009497869018190385759 66.56552998723320513
26.009497869018190385759 180.00084734565675149 26.009497869018190385759 67.09615092968836336
27.009497869018204596614 182.00972408957230186 27.009497869018204596614 67.59926202479044832
28.009497869018190385759 183.94448083306053832 28.009497869018190385759 68.07585258374021464
29.009497869018190385759 185.80950249550539866 29.009497869018190385759 68.52356309863519357
30.009497869018190385759 187.60886134392811186 30.009497869018190385759 68.95216798575994233
31.009497869018190385759 189.34628790809912857 31.009497869018190385759 69.35812301624221732
32.009497869018190385759 191.02521797503018774 32.009497869018190385759 69.74308381936377543
33.009497869018218807469 192.64884659160054525 33.009497869018218807469 70.10595994626187633
34.009497869018190385759 194.22022124926272113 34.009497869018190385759 70.45542473162440444
35.009497869018218807469 195.74206339396980070 35.009497869018218807469 70.78701238157876219
36.009497869018190385759 197.21688957939088027 36.009497869018190385759 71.10650034957548371
37.009497869018218807469 198.64703119577811208 37.009497869018218807469 71.41293951470912305
38.009497869018190385759 200.03470737758846099 38.009497869018190385759 71.70763817041088828
39.009497869018190385759 201.38194905642740196 39.009497869018190385759 71.99192329463055273
40.009497869018190385759 202.69065781476763277 40.009497869018190385759 72.26427905091911441
41.009497869018190385759 203.96265859821798472 41.009497869018190385759 72.52886378375673360
42.009497869018190385759 205.19962314102892265 42.009497869018190385759 72.77922772759457359
43.009497869018190385759 206.40312900817428954 43.009497869018190385759 73.02560112637327450
44.009497869018218807469 207.57469560447100321 44.009497869018218807469 73.25405438272956360
46.009497869018218807469 209.82765332166604821 46.009497869018218807469 73.69028838600586084
48.009497869018218807469 211.96819242215411805 48.009497869018218807469 74.09085256930815433
50.009497869018218807469 214.00402959426764937 50.009497869018218807469 74.43658097284340158
52.009497869018190385759 215.94285962548985935 52.009497869018190385759 74.74345230416578545
54.009497869018190385759 217.79200329877724585 54.009497869018190385759 75.01783081968007139
56.009497869018190385759 219.55726178749631572 56.009497869018190385759 75.26081874989986886
58.009497869018190385759 221.24363714976325923 58.009497869018190385759 75.47373753114082717
60.009497869018190385759 222.85610798937310051 60.009497869018190385759 75.69651786413004402
62.009497869018190385759 224.39886015453134860 62.009497869018190385759 75.90921878320834537
64.009497869018190385759 225.87628086423876539 64.009497869018190385759 76.11178413512405427
66.009497869018218807469 227.29428519545416520 66.009497869018218807469 76.32574018605700417
68.009497869018218807469 228.65799380117331907 68.009497869018218807469 76.54032710099701831
70.009497869018218807469 229.97044944884024176 70.009497869018218807469 76.71738778265947190
72.009497869018218807469 231.23483369950420752 72.009497869018218807469 76.83825549856015868
74.009497869018190385759 232.45409679159104144 74.009497869018190385759 76.94779375174174163
76.009497869018190385759 233.63061532370667805 76.009497869018190385759 77.04326729418333741
78.009497869018190385759 234.76744012679222351 78.009497869018190385759 77.16059792964762210
80.009497869018190385759 235.86645927613923845 80.009497869018190385759 77.21903296566688368
82.009497869018190385759 236.92764248458044563 82.009497869018190385759 77.29805514364657881
84.009497869018190385759 237.95147053368512502 84.009497869018190385759 77.35998685422823939
86.009497869018190385759 238.93879084684519398 86.009497869018190385759 77.34371460150616429
88.009497869018218807469 239.89208276663612196 88.009497869018218807469 77.35159373231969937
91.009497869018190385759 241.26046811052461294 91.009497869018190385759 77.32189622046415423
94.009497869018218807469 242.55983484190574018 94.009497869018218807469 77.34771698267414308
97.009497869018190385759 243.79954681892289159 97.009497869018190385759 77.46611446451041161
99.504748934509109403734 244.79193424880418206 99.504748934509109403734 77.52434768932639031
nan nan nan nan

