Time Pressure difference Time.1 Pressure.1 difference.1
(hr) (psi) (hr) (psi)
0.000200000000006639311 0.13392896094882131 0.000200000000006639311 0.10576292612107717
0.000399999999999067768 0.24308931758677269 0.000399999999999067768 0.20920819307336966
0.000600000000005707079 0.34018310780459354 0.000600000000005707079 0.28019771418606776
0.000799999999998135536 0.42910465402783537 0.000799999999998135536 0.34399666958129893
0.001007140329434719206 0.51474362026591658 0.001007140329434719206 0.40427596593557918
0.001267914553963578328 0.61527869020652071 0.001267914553963578328 0.47348676380024191
0.001596209851982166583 0.73278949417058470 0.001596209851982166583 0.55217211002323108
0.002009509145224797066 0.86955917816494244 0.002009509145224797066 0.64125037786302763
0.002529822128138903281 1.02809011855032417 0.002529822128138903281 0.74171816735818563
0.003184857364431081805 1.21112415631985360 0.003184857364431081805 0.85467240440731640
0.004009497869020606231 1.42166845749809712 0.004009497869020606231 0.98133684517864073
0.005047658755842121536 1.66302790913896281 0.005047658755842121536 1.12309200310949731
0.006354625877790454069 1.93884469952729299 0.006354625877790454069 1.28150737766149647
0.008000000000009777068 2.25314546839148466 0.008000000000009777068 1.45837500581205748
0.010071403294347192059 2.61039621438096603 0.010071403294347192059 1.65574368762299140
0.012679145539706837553 3.01556503208987303 0.012679145539706837553 1.87595328642898296
0.015962098519750611558 3.47419256877588856 0.015962098519750611558 2.12166751370976892
0.020095091452091651263 3.99246951165385955 0.020095091452091651263 2.39590236484037344
0.025298221281360611101 4.57731964986006457 0.025298221281360611101 2.70205131482568728
0.031848573644296607199 5.23648827527956762 0.031848573644296607199 3.04392377092003130
0.040094978690177640601 5.97864198049931428 0.040094978690177640601 3.42582786901883996
0.050476587558421215363 6.81349381140159860 0.050476587558421215363 3.85269862860677925
0.063546258777961384112 7.75196012539100998 0.063546258777961384112 4.33016418922768409
0.079999999999998294697 8.80631349288686316 0.079999999999998294697 4.86431751731551376
0.100714032943542974863 9.99023066015680961 0.100714032943542974863 5.46098243875646805
0.126791455396897845276 11.31860252905383390 0.126791455396897845276 6.12450466034432406
0.159620985197506115583 12.80701922571183360 0.159620985197506115583 6.85648835709133397
0.200950914520760193227 14.47099077101361253 0.200950914520760193227 7.65509543544813287
0.252982212813478213320 16.32510020944513585 0.252982212813478213320 8.51546427301445163
0.318485736442795541734 18.38240503140433901 0.318485736442795541734 9.43058081910290902
0.400949786901833249431 20.65397596218186749 0.400949786901833249431 10.39409757243340771
0.504765875584155310207 23.14957215532988855 0.504765875584155310207 11.40127657477551537
0.635462587779443310865 25.87758477236198829 0.635462587779443310865 12.45027542975438628
0.799999999999997157829 28.84625913681865939 0.799999999999997157829 13.54400745851832433
1.007140329435344483500 32.06443234529282194 1.007140329435344483500 14.69246373739786371
1.267914553968893187630 35.54372413434568045 1.267914553968893187630 15.89971405681663263
1.596209851975103788391 39.29325147716308209 1.596209851975103788391 17.18953484535093068
2.009509145207672986544 43.33326889544081695 2.009509145207672986544 18.57244997814365561
2.529822128134711078928 47.67482947732056431 2.529822128134711078928 20.07221782954751887
3.184857364427998049905 52.34489751252495893 3.184857364427998049905 21.72176068397976678
4.009497869018190385759 57.36409179333620756 4.009497869018190385759 23.52930799831967690
5.009497869018204596614 62.57242067049112677 5.009497869018204596614 25.43851706756800013
6.009497869018204596614 67.10064889499771823 6.009497869018204596614 27.11455769216897949
7.009497869018204596614 71.12479984700063085 7.009497869018204596614 28.60730363141616195
8.009497869018204596614 74.75534244222731672 8.009497869018204596614 29.94503250300650876
9.009497869018204596614 78.06696263934918534 9.009497869018204596614 31.15263610203769673
10.009497869018190385759 81.11312181059874149 10.009497869018190385759 32.24653632857705077
11.009497869018190385759 83.93378397419310488 11.009497869018190385759 33.23344531181468398
12.009497869018190385759 86.55987061221375711 12.009497869018190385759 34.13495276819369195
13.009497869018190385759 89.01583099585685943 13.009497869018190385759 34.96059134583639860
14.009497869018190385759 91.32170319495627098 14.009497869018190385759 35.71731168353421992
15.009497869018190385759 93.49364622643389566 15.009497869018190385759 36.41341891134609199
16.009497869018204596614 95.54507196464891194 16.009497869018204596614 37.05611322554802456
17.009497869018204596614 97.48774639327326952 17.009497869018204596614 37.65203156550602870
18.009497869018204596614 99.33186405263312224 18.009497869018204596614 38.20827316096250570
19.009497869018204596614 101.08608492050150574 19.009497869018204596614 38.72631954298678636
20.009497869018204596614 102.75823971414338587 20.009497869018204596614 39.20897717163388307
21.009497869018204596614 104.35472363236556248 21.009497869018204596614 39.65850438017524482
22.009497869018190385759 105.88100007346046993 22.009497869018190385759 40.07890946413607480
23.009497869018190385759 107.34208199481619772 23.009497869018190385759 40.47152522307856515
24.009497869018190385759 108.74259905830803064 24.009497869018190385759 40.84080198822651653
25.009497869018190385759 110.08690330620234477 25.009497869018190385759 41.18864172230558296
26.009497869018190385759 111.37882343089025028 26.009497869018190385759 41.51697315590686799
27.009497869018204596614 112.62185273577641453 27.009497869018204596614 41.82828236724570559
28.009497869018190385759 113.81901893189375130 28.009497869018190385759 42.12318151076007666
29.009497869018190385759 114.97303526847989019 29.009497869018190385759 42.40021059768922385
30.009497869018190385759 116.08642153539244646 30.009497869018190385759 42.66541772725908288
31.009497869018190385759 117.16148606630180495 31.009497869018190385759 42.91660984289474357
32.009497869018190385759 118.20035481739405725 32.009497869018190385759 43.15481139555939905
33.009497869018218807469 119.20500478248595755 33.009497869018218807469 43.37934765003300441
34.009497869018190385759 120.17732165276959222 34.009497869018190385759 43.59558539112242670
35.009497869018218807469 121.11898937280827226 35.009497869018218807469 43.80076132701794478
36.009497869018190385759 122.03156510630931564 36.009497869018190385759 43.99845036293380929
37.009497869018218807469 122.91649144372193803 37.009497869018218807469 44.18806521291385536
38.009497869018190385759 123.77514151516470520 38.009497869018190385759 44.37041540749764579
39.009497869018190385759 124.60877199679232774 39.009497869018190385759 44.54632203861304873
40.009497869018190385759 125.41855952761281401 40.009497869018190385759 44.71484715467428828
41.009497869018190385759 126.20563332617007291 41.009497869018190385759 44.87856380754448082
42.009497869018190385759 126.97102780867186311 42.009497869018190385759 45.03348108657611704
43.009497869018190385759 127.71571912236004209 43.009497869018190385759 45.18592914271190608
44.009497869018218807469 128.44064742681342750 44.009497869018218807469 45.32728878227547398
46.009497869018218807469 129.83470630754118247 46.009497869018218807469 45.59721656729395534
48.009497869018218807469 131.15920410872291768 48.009497869018218807469 45.84507299743115283
50.009497869018218807469 132.41891567269937013 50.009497869018218807469 46.05899878378287582
52.009497869018190385759 133.61860229025913327 52.009497869018190385759 46.24888104451314064
54.009497869018190385759 134.76279383003517864 54.009497869018190385759 46.41865777991934294
56.009497869018190385759 135.85507987437455313 56.009497869018190385759 46.56901101533392762
58.009497869018190385759 136.89855553841655933 58.009497869018190385759 46.70075841369710190
60.009497869018190385759 137.89630142450943140 60.009497869018190385759 46.83860782795143507
62.009497869018190385759 138.85090760295051382 62.009497869018190385759 46.97022042010839726
64.009497869018190385759 139.76508874590726350 64.009497869018190385759 47.09556144431429914
66.009497869018218807469 140.64250491566227197 66.009497869018218807469 47.22795067231093213
68.009497869018218807469 141.48632461011018790 68.009497869018218807469 47.36073025897469790
70.009497869018218807469 142.29843059737621047 70.009497869018218807469 47.47028980100044038
72.009497869018218807469 143.08079152667269796 72.009497869018218807469 47.54507891553135579
74.009497869018190385759 143.83523291209885997 74.009497869018190385759 47.61285771735339267
76.009497869018190385759 144.56322531760150696 76.009497869018190385759 47.67193372162076770
78.009497869018190385759 145.26665650074238556 78.009497869018190385759 47.74453420280249105
80.009497869018190385759 145.94669474271373133 80.009497869018190385759 47.78069195236280109
82.009497869018190385759 146.60332130277558349 82.009497869018190385759 47.82958837334142999
84.009497869018190385759 147.23683367333595129 84.009497869018190385759 47.86790975437583029
86.009497869018190385759 147.84775621315054650 86.009497869018190385759 47.85784099975894179
88.009497869018218807469 148.43762306088041214 88.009497869018218807469 47.86271635636203570
91.009497869018190385759 149.28433657278796431 91.009497869018190385759 47.84434047659218692
94.009497869018218807469 150.08834355320269083 94.009497869018218807469 47.86031754646406000
97.009497869018190385759 150.85543806097575725 97.009497869018190385759 47.93357815839207348
99.504748934509109403734 151.46949597213395577 99.504748934509109403734 47.96961103357145362
nan nan nan nan

