Time Pressure difference Time.1 Pressure.1 difference.1
(hr) (psi) (hr) (psi)
0.000200000000006639311 0.04950928414221831 0.000200000000006639311 0.03909719543812332
0.000399999999999067768 0.08986240176193494 0.000399999999999067768 0.07733762587546367
0.000600000000005707079 0.12575489293250378 0.000600000000005707079 0.10358019766120041
0.000799999999998135536 0.15862636499607186 0.000799999999998135536 0.12716464562721005
0.001007140329434719206 0.19028437147270849 0.001007140329434719206 0.14944798740746529
0.001267914553963578328 0.22744899448392708 0.001267914553963578328 0.17503302168918894
0.001596209851982166583 0.27088900732372329 0.001596209851982166583 0.20412049564839824
0.002009509145224797066 0.32144841657282236 0.002009509145224797066 0.23704990271713816
0.002529822128138903281 0.38005227131244212 0.002529822128138903281 0.27418965428406866
0.003184857364431081805 0.44771414309454305 0.003184857364431081805 0.31594524902260984
0.004009497869020606231 0.52554568571019700 0.004009497869020606231 0.36276907072954490
0.005047658755842121536 0.61476861096132274 0.005047658755842121536 0.41517145138644923
0.006354625877790454069 0.71672932020440216 0.006354625877790454069 0.47373258510709348
0.008000000000009777068 0.83291633428689948 0.008000000000009777068 0.53911493105848562
0.010071403294347192059 0.96498059109817702 0.010071403294347192059 0.61207586556679305
0.012679145539706837553 1.11475863745502402 0.012679145539706837553 0.69348036180787054
0.015962098519750611558 1.28429867471336157 0.015962098519750611558 0.78431310933346898
0.020095091452091651263 1.47588920336019469 0.020095091452091651263 0.88568902586516185
0.025298221281360611101 1.69208972838428906 0.025298221281360611101 0.99886257135736312
0.031848573644296607199 1.93576343825500619 0.031848573644296607199 1.12524196270977472
0.040094978690177640601 2.21011409705661865 0.040094978690177640601 1.26641978096431052
0.050476587558421215363 2.51873230942807957 0.050476587558421215363 1.42422034612004156
0.063546258777961384112 2.86565350606871450 0.063546258777961384112 1.60072420265288784
0.079999999999998294697 3.25541446656481215 0.079999999999998294697 1.79818372678014282
0.100714032943542974863 3.69307104972621403 0.100714032943542974863 2.01875180200476034
0.126791455396897845276 4.18412794912890540 0.126791455396897845276 2.26403489813676417
0.159620985197506115583 4.73434833936266752 0.159620985197506115583 2.53462602773992396
0.200950914520760193227 5.34946578264958195 0.200950914520760193227 2.82984570599504437
0.252982212813478213320 6.03487116747260988 0.252982212813478213320 3.14789674547453702
0.318485736442795541734 6.79539143341013574 0.318485736442795541734 3.48618627436031714
0.400949786901833249431 7.63511907606722939 0.400949786901833249431 3.84236782298486190
0.504765875584155310207 8.55766174462431906 0.504765875584155310207 4.21468991863739451
0.635462587779443310865 9.56612138504376830 0.635462587779443310865 4.60247148588076804
0.799999999999997157829 10.66354603162016801 0.799999999999997157829 5.00678948703520987
1.007140329435344483500 11.85320247835469232 1.007140329435344483500 5.43133730576793106
1.267914553968893187630 13.13938617288608413 1.267914553968893187630 5.87761941436823410
1.596209851975103788391 14.52546737070483474 1.596209851975103788391 6.35442520349465756
2.009509145207672986544 16.01893352532883341 2.009509145207672986544 6.86564501561708607
2.529822128134711078928 17.62387061246921505 2.529822128134711078928 7.42006156732088229
3.184857364427998049905 19.35024647382439511 3.184857364427998049905 8.02984518175555273
4.009497869018190385759 21.20568322218115753 4.009497869018190385759 8.69803802781485835
5.009497869018204596614 23.13103702511046222 5.009497869018204596614 9.40381199654172484
6.009497869018204596614 24.80497921236882419 6.009497869018204596614 10.02339099520938781
7.009497869018204596614 26.29258003822772594 7.009497869018204596614 10.57521176895952841
8.009497869018204596614 27.63467635305086034 8.009497869018204596614 11.06972765513984669
9.009497869018204596614 28.85887718421439274 9.009497869018204596614 11.51614035999497965
10.009497869018190385759 29.98494550344408438 10.009497869018190385759 11.92052053852611415
11.009497869018190385759 31.02765473927517803 11.009497869018190385759 12.28534945176087767
12.009497869018190385759 31.99843558176622338 12.009497869018190385759 12.61860813231804634
13.009497869018190385759 32.90632615012718531 13.009497869018190385759 12.92382049751298112
14.009497869018190385759 33.75873388249569018 14.009497869018190385759 13.20355597779938073
15.009497869018190385759 34.56163225432153041 15.009497869018190385759 13.46088471604263148
16.009497869018204596614 35.31997920968064619 16.009497869018204596614 13.69846839617415135
17.009497869018204596614 36.03812425912471440 17.009497869018204596614 13.91876048393113763
18.009497869018204596614 36.71983600049944840 18.009497869018204596614 14.12438533912358096
19.009497869018204596614 37.36831575260245586 19.009497869018204596614 14.31589063674392825
20.009497869018204596614 37.98645828295348537 20.009497869018204596614 14.49431383595944567
21.009497869018204596614 38.57662769348110743 21.009497869018204596614 14.66048977087047156
22.009497869018190385759 39.14084362905173720 22.009497869018190385759 14.81590018105504036
23.009497869018190385759 39.68095922083251992 23.009497869018190385759 14.96103776019018028
24.009497869018190385759 40.19868590781054962 24.009497869018190385759 15.09754765441548940
25.009497869018190385759 40.69563250181887781 25.009497869018190385759 15.22613295895656549
26.009497869018190385759 41.17321434885990072 26.009497869018190385759 15.34750666426889154
27.009497869018204596614 41.63272281227753524 27.009497869018204596614 15.46258779452684884
28.009497869018190385759 42.07527714070006652 28.009497869018190385759 15.57160264378808634
29.009497869018190385759 42.50188033621531503 29.009497869018190385759 15.67401150056757864
30.009497869018190385759 42.91346388512138077 30.009497869018190385759 15.77205015510051567
31.009497869018190385759 43.31088110507838707 31.009497869018190385759 15.86490790400848461
32.009497869018190385759 43.69491789458169251 32.009497869018190385759 15.95296345428262264
33.009497869018218807469 44.06630508546874836 33.009497869018218807469 16.03596737773732173
34.009497869018190385759 44.42573975789586882 34.009497869018190385759 16.11590360430118096
35.009497869018218807469 44.77384441269690285 35.009497869018218807469 16.19175063273649329
36.009497869018190385759 45.11119468384894304 36.009497869018190385759 16.26482999198501034
37.009497869018218807469 45.43832385123370443 37.009497869018218807469 16.33492458107716061
38.009497869018190385759 45.75573951745425205 38.009497869018190385759 16.40233365774794549
39.009497869018190385759 46.06390623578104737 39.009497869018190385759 16.46736075361051022
40.009497869018190385759 46.36325897229288984 40.009497869018190385759 16.52965913774689355
41.009497869018190385759 46.65421516322874851 41.009497869018190385759 16.59017998572734598
42.009497869018190385759 46.93715719941423714 42.009497869018190385759 16.64744798461107678
43.009497869018190385759 47.21244593148854563 43.009497869018190385759 16.70380319019681892
44.009497869018218807469 47.48042890659453974 44.009497869018218807469 16.75605936027245235
46.009497869018218807469 47.99576820847493508 46.009497869018218807469 16.85584309122715041
48.009497869018218807469 48.48539298805871312 48.009497869018218807469 16.94746774312620730
50.009497869018218807469 48.95106835294098602 50.009497869018218807469 17.02654931343632327
52.009497869018190385759 49.39455440113844986 52.009497869018190385759 17.09674275579158831
54.009497869018190385759 49.81752568124523606 54.009497869018190385759 17.15950382385643991
56.009497869018190385759 50.22130914787305755 56.009497869018190385759 17.21508464073955835
58.009497869018190385759 50.60704896680801568 58.009497869018190385759 17.26378747046623019
60.009497869018190385759 50.97588393891818015 60.009497869018190385759 17.31474602170716537
62.009497869018190385759 51.32877153094852218 62.009497869018190385759 17.36339901785997242
64.009497869018190385759 51.66671527099889971 64.009497869018190385759 17.40973361448585521
66.009497869018218807469 51.99106816787514163 66.009497869018218807469 17.45867370824764464
68.009497869018218807469 52.30300151463789149 68.009497869018218807469 17.50775810521339437
70.009497869018218807469 52.60321131087840740 70.009497869018218807469 17.54825878899542246
72.009497869018218807469 52.89242530369890716 72.009497869018218807469 17.57590594981727961
74.009497869018190385759 53.17131832769531741 74.009497869018190385759 17.60096162063300795
76.009497869018190385759 53.44043400366310692 76.009497869018190385759 17.62280014353753543
78.009497869018190385759 53.70047017562988856 78.009497869018190385759 17.64963823610708005
80.009497869018190385759 53.95185872005530570 80.009497869018190385759 17.66300460798245808
82.009497869018190385759 54.19459270908291870 82.009497869018190385759 17.68108006218308859
84.009497869018190385759 54.42878211620950424 84.009497869018190385759 17.69524625991144262
86.009497869018190385759 54.65462078021679559 86.009497869018190385759 17.69152416104832781
88.009497869018218807469 54.87267582345342731 88.009497869018218807469 17.69332642557458968
91.009497869018190385759 55.18567892264199060 91.009497869018190385759 17.68653344632317825
94.009497869018218807469 55.48289477322184382 94.009497869018218807469 17.69243966172605198
97.009497869018190385759 55.76646525476829197 97.009497869018190385759 17.71952178367100217
99.504748934509109403734 55.99346296600212725 99.504748934509109403734 17.73284199345295420
nan nan nan nan

