Time Pressure difference Time.1 Pressure.1 difference.1
(hr) (psi) (hr) (psi)
0.000200000000006639311 0.59347667529453996 0.000200000000006639311 0.46866509916211918
0.000399999999999067768 1.07719673906934821 0.000399999999999067768 0.92706000248151965
0.000600000000005707079 1.50744647297296175 0.000600000000005707079 1.24163442068233820
0.000799999999998135536 1.90148270860675872 0.000799999999998135536 1.52434543155694091
0.001007140329434719206 2.28097291444849271 0.001007140329434719206 1.79145984905102629
0.001267914553963578328 2.72647192105733138 0.001267914553963578328 2.09815224717168780
0.001596209851982166583 3.24719515189334951 0.001596209851982166583 2.44682901834938882
0.002009509145224797066 3.85325986532806208 0.002009509145224797066 2.84155973128877148
0.002529822128138903281 4.55575479073247980 0.002529822128138903281 3.28676059943082288
0.003184857364431081805 5.36682979222304812 0.003184857364431081805 3.78729240815564339
0.004009497869020606231 6.29981046332095040 0.004009497869020606231 4.34857796323236467
0.005047658755842121536 7.36934168267739409 0.005047658755842121536 4.97673470572217980
0.006354625877790454069 8.59156300501430792 0.006354625877790454069 5.67871752660426132
0.008000000000009777068 9.98431759690065590 0.008000000000009777068 6.46246744281646279
0.010071403294347192059 11.56739554713840512 0.010071403294347192059 7.33706326031989065
0.012679145539706837553 13.36281187205701926 0.012679145539706837553 8.31287356782511466
0.015962098519750611558 15.39511872893580957 0.015962098519750611558 9.40170201572812125
0.020095091452091651263 17.69174878386899863 0.020095091452091651263 10.61691332287085032
0.025298221281360611101 20.28338328255525980 0.025298221281360611101 11.97354492588634045
0.031848573644296607199 23.20434377908244272 0.031848573644296607199 13.48847737350819642
0.040094978690177640601 26.49303436856331473 0.040094978690177640601 15.18080122053372349
0.050476587558421215363 30.19249627327248930 0.050476587558421215363 17.07238491823383342
0.063546258777961384112 34.35110292531087595 0.063546258777961384112 19.18816832667243943
0.079999999999998294697 39.02323751587307044 0.079999999999998294697 21.55515108383889000
0.100714032943542974863 44.26950553197448812 0.100714032943542974863 24.19914019069809186
0.126791455396897845276 50.15589272353238925 0.126791455396897845276 27.13939268920352177
0.159620985197506115583 56.75148329877043807 0.159620985197506115583 30.38301712739524874
0.200950914520760193227 64.12500649714561973 0.200950914520760193227 33.92186839878674931
0.252982212813478213320 72.34108386649859312 0.252982212813478213320 37.73440329511144142
0.318485736442795541734 81.45757679792917827 0.318485736442795541734 41.78954059649867503
0.400949786901833249431 91.52354277080588929 0.400949786901833249431 46.05915274988264230
0.504765875584155310207 102.58222732338124672 0.504765875584155310207 50.52224453751235700
0.635462587779443310865 114.67081403866568223 0.635462587779443310865 55.17065178587843377
0.799999999999997157829 127.82584025083151857 0.799999999999997157829 60.01728423561436898
1.007140329435344483500 142.08646560591841990 1.007140329435344483500 65.10641513965403249
1.267914553968893187630 157.50418040574982115 1.267914553968893187630 70.45607887736281327
1.596209851975103788391 174.11938450780795051 1.596209851975103788391 76.17163545214748410
2.009509145207672986544 192.02183136131358765 2.009509145207672986544 82.29971909746122094
2.529822128134711078928 211.26050029049633849 2.529822128134711078928 88.94560981339775196
3.184857364427998049905 231.95487760289498169 3.184857364427998049905 96.25519544796721050
4.009497869018190385759 254.19633093255617950 4.009497869018190385759 104.26494302572936590
5.009497869018204596614 277.27589254459337553 5.009497869018204596614 112.72518226623735416
6.009497869018204596614 297.34173799442118025 6.009497869018204596614 120.15218692975355452
7.009497869018204596614 315.17387609926822734 7.009497869018204596614 126.76696158945075865
8.009497869018204596614 331.26182551413529609 8.009497869018204596614 132.69481227635586151
9.009497869018204596614 345.93654060564688280 9.009497869018204596614 138.04604149481158970
10.009497869018190385759 359.43492366307970087 10.009497869018190385759 142.89341927592198545
11.009497869018190385759 371.93406642592680100 11.009497869018190385759 147.26668894097977613
12.009497869018190385759 383.57099062758226182 12.009497869018190385759 151.26152056047916972
13.009497869018190385759 394.45403782524255121 13.009497869018190385759 154.92015596377740394
14.009497869018190385759 404.67200230940341044 14.009497869018190385759 158.27339537490283305
15.009497869018190385759 414.29648920244397914 15.009497869018190385759 161.35804114743410764
16.009497869018204596614 423.38693026988977408 16.009497869018204596614 164.20599936439526800
17.009497869018204596614 431.99546387540522119 17.009497869018204596614 166.84668015994378720
18.009497869018204596614 440.16726487778180399 18.009497869018204596614 169.31154220616087969
19.009497869018204596614 447.94070806004225460 19.009497869018204596614 171.60715058148170442
20.009497869018204596614 455.35049352001931311 20.009497869018204596614 173.74594149515488084
21.009497869018204596614 462.42496017185692381 21.009497869018204596614 175.73792225338320350
22.009497869018190385759 469.18831786106892423 22.009497869018190385759 177.60085473444186732
23.009497869018190385759 475.66278040356939982 23.009497869018190385759 179.34064494586945671
24.009497869018190385759 481.86886312567776258 24.009497869018190385759 180.97701354972411991
25.009497869018190385759 487.82585114359812906 25.009497869018190385759 182.51838867467165528
26.009497869018190385759 493.55071046389758749 26.009497869018190385759 183.97331706527452866
27.009497869018204596614 499.05892089076274942 27.009497869018204596614 185.35281522926413800
28.009497869018190385759 504.36389905839178027 28.009497869018190385759 186.65959579412640323
29.009497869018190385759 509.47766813283732290 29.009497869018190385759 187.88718914141907135
30.009497869018190385759 514.41139400754468625 30.009497869018190385759 189.06239608998691892
31.009497869018190385759 519.17530555446535345 31.009497869018190385759 190.17549859292219594
32.009497869018190385759 523.77882347992158429 32.009497869018190385759 191.23103627890066036
33.009497869018218807469 528.23070839632407569 33.009497869018218807469 192.22601920749224291
34.009497869018190385759 532.53931632862361312 34.009497869018190385759 193.18422910284107274
35.009497869018218807469 536.71210930604615896 35.009497869018218807469 194.09342104626432501
36.009497869018190385759 540.75598755639441606 36.009497869018190385759 194.96943644238442062
37.009497869018218807469 544.67734360132703841 37.009497869018218807469 195.80967286291212304
38.009497869018190385759 548.48226216435534752 38.009497869018190385759 196.61771756402984579
39.009497869018190385759 552.17631192891383307 39.009497869018190385759 197.39720903366443849
40.009497869018190385759 555.76470691145971159 40.009497869018190385759 198.14399094606855556
41.009497869018190385759 559.25245099511380431 41.009497869018190385759 198.86946521352652439
42.009497869018190385759 562.64412796733734012 42.009497869018190385759 199.55594699501739342
43.009497869018190385759 565.94406340951013590 43.009497869018190385759 200.23148695941060282
44.009497869018218807469 569.15642343161403005 44.009497869018218807469 200.85789104941977712
46.009497869018218807469 575.33388814005206768 46.009497869018218807469 202.05401654227415520
48.009497869018218807469 581.20310825429351098 48.009497869018218807469 203.15233769003850739
50.009497869018218807469 586.78524243589527032 50.009497869018218807469 204.10030266747386918
52.009497869018190385759 592.10138929569802713 52.009497869018190385759 204.94172405980938834
54.009497869018190385759 597.17162194826016730 54.009497869018190385759 205.69405224750988737
56.009497869018190385759 602.01184683668350317 56.009497869018190385759 206.36030947553186365
58.009497869018190385759 606.63577928160896136 58.009497869018190385759 206.94411903699901245
60.009497869018190385759 611.05707029344227976 60.009497869018190385759 207.55496833713075944
62.009497869018190385759 615.28719719790865383 62.009497869018190385759 208.13818053460352075
64.009497869018190385759 619.33818946646113091 64.009497869018190385759 208.69360166082401520
66.009497869018218807469 623.22626585850332503 66.009497869018218807469 209.28025534886600667
68.009497869018218807469 626.96546687418492638 68.009497869018218807469 209.86863882531440595
70.009497869018218807469 630.56413558552969789 70.009497869018218807469 210.35412779116308002
72.009497869018218807469 634.03099562767283714 72.009497869018218807469 210.68553927024561290
74.009497869018190385759 637.37413636404005501 74.009497869018190385759 210.98588609348541922
76.009497869018190385759 640.60007427467962771 76.009497869018190385759 211.24766838727688878
78.009497869018190385759 643.71717454120437196 78.009497869018190385759 211.56938142000154812
80.009497869018190385759 646.73061414425274052 80.009497869018190385759 211.72960651876405791
82.009497869018190385759 649.64031003836578293 82.009497869018190385759 211.94628023257934046
84.009497869018190385759 652.44758049558834045 84.009497869018190385759 212.11609298740000895
86.009497869018190385759 655.15474909618842503 86.009497869018190385759 212.07147552025884352
88.009497869018218807469 657.76861403755071933 88.009497869018218807469 212.09307958861847965
91.009497869018190385759 661.52063836756758519 91.009497869018190385759 212.01165092707913118
94.009497869018218807469 665.08341811490288364 94.009497869018218807469 212.08244979120328821
97.009497869018190385759 668.48262837446600315 97.009497869018190385759 212.40708804785109010
99.504748934509109403734 671.20369068220497866 99.504748934509109403734 212.56675979331427584
nan nan nan nan

