Time Pressure difference Time.1 Pressure.1 difference.1
(hr) (psi) (hr) (psi)
0.000200000000006639311 0.39290060107734787 0.000200000000006639311 0.31027133302818372
0.000399999999999067768 0.71313880372612470 0.000399999999999067768 0.61374346688348724
0.000600000000005707079 0.99797793237461330 0.000600000000005707079 0.82200182502926999
0.000799999999998135536 1.25884256323805732 0.000799999999998135536 1.00916558516978228
0.001007140329434719206 1.51007725566162243 0.001007140329434719206 1.18600390006693623
0.001267914553963578328 1.80501189212244717 0.001267914553963578328 1.38904410802061484
0.001596209851982166583 2.14974737863313736 0.001596209851982166583 1.61987931803023733
0.002009509145224797066 2.55098166485355149 0.002009509145224797066 1.88120371515267348
0.002529822128138903281 3.01605584541540628 0.002529822128138903281 2.17594097438254463
0.003184857364431081805 3.55301352019900163 0.003184857364431081805 2.50730909160250626
0.004009497869020606231 4.17067665967451262 0.004009497869020606231 2.87889813822549101
0.005047658755842121536 4.87874064339818858 0.005047658755842121536 3.29475805651553966
0.006354625877790454069 5.68789037444262746 0.006354625877790454069 3.75949320745244675
0.008000000000009777068 6.60993860158449742 0.008000000000009777068 4.27836079904105926
0.010071403294347192059 7.65798699858681520 0.010071403294347192059 4.85737129212621621
0.012679145539706837553 8.84661021262384573 0.012679145539706837553 5.50338902511630579
0.015962098519750611558 10.19206255958424201 0.015962098519750611558 6.22422839330022182
0.020095091452091651263 11.71250534461487725 0.020095091452091651263 7.02873726936583498
0.025298221281360611101 13.42825053679326963 0.025298221281360611101 7.92687091884881756
0.031848573644296607199 15.36202010615190616 0.031848573644296607199 8.92980480663269915
0.040094978690177640601 17.53923879587239654 0.040094978690177640601 10.05017749252446535
0.050476587558421215363 19.98840127610232287 0.050476587558421215363 11.30246659292699718
0.063546258777961384112 22.74153231098120997 0.063546258777961384112 12.70318309541202062
0.079999999999998294697 25.83463531799511159 0.079999999999998294697 14.27020162662703129
0.100714032943542974863 29.30783307410931471 0.100714032943542974863 16.02060724924290724
0.126791455396897845276 33.20481026295887972 0.126791455396897845276 17.96714874290585939
0.159620985197506115583 37.57130284699348266 0.159620985197506115583 20.11453219450016761
0.200950914520760193227 42.45281178794988364 0.200950914520760193227 22.45736528219143935
0.252982212813478213320 47.89211862391725560 0.252982212813478213320 24.98138571088126270
0.318485736442795541734 53.92752945231890038 0.318485736442795541734 27.66601671575687504
0.400949786901833249431 60.59152189853352866 0.400949786901833249431 30.49263695420037479
0.504765875584155310207 67.91272589644169955 0.504765875584155310207 33.44734691841726715
0.635462587779443310865 75.91575817105245960 0.635462587779443310865 36.52474166359225194
0.799999999999997157829 84.62480760990877116 0.799999999999997157829 39.73336785224095991
1.007140329435344483500 94.06579915514814161 1.007140329435344483500 43.10253579833781146
1.267914553968893187630 104.27282103867288754 1.267914553968893187630 46.64418483966586138
1.596209851975103788391 115.27261926238837475 1.596209851975103788391 50.42806667901529494
2.009509145207672986544 127.12461348946857242 2.009509145207672986544 54.48505467521764700
2.529822128134711078928 139.86122960408260951 2.529822128134711078928 58.88484756630290207
3.184857364427998049905 153.56157137560640535 3.184857364427998049905 63.72402778854726790
4.009497869018190385759 168.28612710936073427 4.009497869018190385759 69.02673768227431594
5.009497869018204596614 183.56553741722277096 5.009497869018204596614 74.62768751101702946
6.009497869018204596614 196.84977092892697215 6.009497869018204596614 79.54460289787962779
7.009497869018204596614 208.65521850849950170 7.009497869018204596614 83.92379596135830866
8.009497869018204596614 219.30595721203181370 8.009497869018204596614 87.84822331450725130
9.009497869018204596614 229.02108944908599142 9.009497869018204596614 91.39090875431911343
10.009497869018190385759 237.95745213630627291 10.009497869018190385759 94.60002837625209793
11.009497869018190385759 246.23228568732480426 11.009497869018190385759 97.49527321333312102
12.009497869018190385759 253.93630288606783552 12.009497869018190385759 100.13997992185731789
13.009497869018190385759 261.14122931959906282 13.009497869018190385759 102.56211394821198724
14.009497869018190385759 267.90584965724139010 14.009497869018190385759 104.78206602894636035
15.009497869018190385759 274.27756878750034275 15.009497869018190385759 106.82420050295370118
16.009497869018204596614 280.29573244605535365 16.009497869018204596614 108.70964022092050527
17.009497869018204596614 285.99485790254101403 17.009497869018204596614 110.45785563529966566
18.009497869018204596614 291.40485236293790194 18.009497869018204596614 112.08967339637817417
19.009497869018204596614 296.55112116488362517 19.009497869018204596614 113.60943979672425996
20.009497869018204596614 301.45663688651546863 20.009497869018204596614 115.02538800588328627
21.009497869018204596614 306.14016079826677696 21.009497869018204596614 116.34414318165156033
22.009497869018190385759 310.61772059465414486 22.009497869018190385759 117.57746425734707429
23.009497869018190385759 314.90402253455556547 23.009497869018190385759 118.72926119945796586
24.009497869018190385759 319.01264842224014728 24.009497869018190385759 119.81258971901522159
25.009497869018190385759 322.95636562340877163 25.009497869018190385759 120.83302950761687100
26.009497869018190385759 326.74640617877281557 26.009497869018190385759 121.79623878439031159
27.009497869018204596614 330.39301821538197146 27.009497869018204596614 122.70951083092460010
28.009497869018190385759 333.90508397555561260 28.009497869018190385759 123.57464149365159756
29.009497869018190385759 337.29056318099071632 29.009497869018190385759 124.38734767758117528
30.009497869018190385759 340.55684801141200069 30.009497869018190385759 125.16537238470792204
31.009497869018190385759 343.71071030825027037 31.009497869018190385759 125.90228195616990092
32.009497869018190385759 346.75838688135979737 32.009497869018190385759 126.60108177180696032
33.009497869018218807469 349.70567753724554905 33.009497869018218807469 127.25979239512051322
34.009497869018190385759 352.55811423253254588 34.009497869018190385759 127.89415809054399631
35.009497869018218807469 355.32063706999207398 35.009497869018218807469 128.49607232902420151
36.009497869018190385759 357.99781422182684310 36.009497869018190385759 129.07602262870156551
37.009497869018218807469 360.59387774248284586 37.009497869018218807469 129.63228609854823503
38.009497869018190385759 363.11285591415617091 38.009497869018190385759 130.16723761725612007
39.009497869018190385759 365.55843538395475889 39.009497869018190385759 130.68328598057570389
40.009497869018190385759 367.93406799806797380 40.009497869018190385759 131.17767956750418534
41.009497869018190385759 370.24306648767429806 41.009497869018190385759 131.65796680981060263
42.009497869018190385759 372.48846546714628403 42.009497869018190385759 132.11243977531097471
43.009497869018190385759 374.67312861014630698 43.009497869018190385759 132.55966890681835935
44.009497869018218807469 376.79981401515414063 44.009497869018218807469 132.97436851293139171
46.009497869018218807469 380.88949385956385640 46.009497869018218807469 133.76624196755903995
48.009497869018218807469 384.77510589241467187 48.009497869018218807469 134.49336580762977178
50.009497869018218807469 388.47065782654453869 50.009497869018218807469 135.12094903868054985
52.009497869018190385759 391.99011761929097020 52.009497869018190385759 135.67799699788452017
54.009497869018190385759 395.34677431654870361 54.009497869018190385759 136.17606239701456161
56.009497869018190385759 398.55115849401823880 56.009497869018190385759 136.61714605920238341
58.009497869018190385759 401.61235013402773575 58.009497869018190385759 137.00364672075122030
60.009497869018190385759 404.53938664346611631 60.009497869018190385759 137.40804855688122643
62.009497869018190385759 407.33986638021968929 62.009497869018190385759 137.79415374429902386
64.009497869018190385759 410.02175324036306847 64.009497869018190385759 138.16186035085567596
66.009497869018218807469 412.59578456300920379 66.009497869018218807469 138.55024391545245521
68.009497869018218807469 415.07125560975453027 68.009497869018218807469 138.93977265547553657
70.009497869018218807469 417.45368976197096345 70.009497869018218807469 139.26118192805341778
72.009497869018218807469 419.74886234602081458 72.009497869018218807469 139.48058696072945395
74.009497869018190385759 421.96212878004359936 74.009497869018190385759 139.67942619451065411
76.009497869018190385759 424.09780318291620915 76.009497869018190385759 139.85273447243250189
78.009497869018190385759 426.16142357326793899 78.009497869018190385759 140.06571882243954974
80.009497869018190385759 428.15641727838766428 80.009497869018190385759 140.17179297873255450
82.009497869018190385759 430.08272931951705687 82.009497869018190385759 140.31523792937605322
84.009497869018190385759 431.94123243504719767 84.009497869018190385759 140.42765942160491477
86.009497869018190385759 433.73346490966912370 86.009497869018190385759 140.39812122678097239
88.009497869018218807469 435.46392736817529112 88.009497869018218807469 140.41242381321376342
91.009497869018190385759 437.94788786045381812 91.009497869018190385759 140.35851542659034408
94.009497869018218807469 440.30656236697848271 94.009497869018218807469 140.40538654626186599
97.009497869018190385759 442.55694862437917436 97.009497869018190385759 140.62030748836346561
99.504748934509109403734 444.35837917891433335 99.504748934509109403734 140.72601530701768979
nan nan nan nan

