Time Pressure difference Time.1 Pressure.1 difference.1
(hr) (psi) (hr) (psi)
0.000200000000006639311 0.35418180194048482 0.000200000000006639311 0.27969532121118984
0.000399999999999067768 0.64286179721999603 0.000399999999999067768 0.55326147741677856
0.000600000000005707079 0.89963115713252706 0.000600000000005707079 0.74099679865320289
0.000799999999998135536 1.13478861112574458 0.000799999999998135536 0.90971631102542561
0.001007140329434719206 1.36126511899706859 0.001007140329434719206 1.06912790991494400
0.001267914553963578328 1.62713511438501679 0.001267914553963578328 1.25215930900727468
0.001596209851982166583 1.93789828316201995 0.001596209851982166583 1.46024662271546446
0.002009509145224797066 2.29959251855942126 0.002009509145224797066 1.69581853482260381
0.002529822128138903281 2.71883547938900882 0.002529822128138903281 1.96151060372449093
0.003184857364431081805 3.20287810059942313 0.003184857364431081805 2.26022370454636290
0.004009497869020606231 3.75967298238833258 0.004009497869020606231 2.59519412137289818
0.005047658755842121536 4.39796006303100118 0.005047658755842121536 2.97007269068767510
0.006354625877790454069 5.12737129069303066 0.006354625877790454069 3.38901003191997630
0.008000000000009777068 5.95855531451397358 0.008000000000009777068 3.85674527603378259
0.010071403294347192059 6.90332269016388178 0.010071403294347192059 4.37869657674705781
0.012679145539706837553 7.97481179102440318 0.012679145539706837553 4.96105181908707316
0.015962098519750611558 9.18767513448789508 0.015962098519750611558 5.61085532061635472
0.020095091452091651263 10.55828430096139137 0.020095091452091651263 6.33608303118923466
0.025298221281360611101 12.10494959536453052 0.025298221281360611101 7.14570916432575132
0.031848573644296607199 13.84815382751658142 0.031848573644296607199 8.04980788707761974
0.040094978690177640601 15.81081623278965687 0.040094978690177640601 9.05977227920622141
0.050476587558421215363 18.01862344437010677 0.050476587558421215363 10.18865324532029781
0.063546258777961384112 20.50044431264542055 0.063546258777961384112 11.45133468051681369
0.079999999999998294697 23.28873426080981091 0.079999999999998294697 12.86392973773486581
0.100714032943542974863 26.41966212496445721 0.100714032943542974863 14.44183981434174946
0.126791455396897845276 29.93260763607601760 0.126791455396897845276 16.19655734820916138
0.159620985197506115583 33.86879965851754548 0.159620985197506115583 18.13232465998560983
0.200950914520760193227 38.26925521433931010 0.200950914520760193227 20.24428081981070449
0.252982212813478213320 43.17253989038098183 0.252982212813478213320 22.51956902531784266
0.318485736442795541734 48.61318486978019848 0.318485736442795541734 24.93964027042380494
0.400949786901833249431 54.62046723648094826 0.400949786901833249431 27.48770827212247170
0.504765875584155310207 61.22019555769703913 0.504765875584155310207 30.15124326409828370
0.635462587779443310865 68.43456067762080863 0.635462587779443310865 32.92537293745472482
0.799999999999997157829 76.28536776466735603 0.799999999999997157829 35.81780171494418852
1.007140329435344483500 84.79598696053741946 1.007140329435344483500 38.85495149510904156
1.267914553968893187630 93.99714723680042994 1.267914553968893187630 42.04758504124967544
1.596209851975103788391 103.91295888273459980 1.596209851975103788391 45.45858030192331967
2.009509145207672986544 114.59698598889089283 2.009509145207672986544 49.11576818864530480
2.529822128134711078928 126.07845899689515079 2.529822128134711078928 53.08197890468016311
3.184857364427998049905 138.42868631274373570 3.184857364427998049905 57.44427706948203394
4.009497869018190385759 151.70219535868059779 4.009497869018190385759 62.22442589129090607
5.009497869018204596614 165.47588025655946353 5.009497869018204596614 67.27342428295234811
6.009497869018204596614 177.45100513463853531 6.009497869018204596614 71.70579711957483937
7.009497869018204596614 188.09307258116754724 7.009497869018204596614 75.65343803947970969
8.009497869018204596614 197.69422314105614191 8.009497869018204596614 79.19112860984660074
9.009497869018204596614 206.45196754861063937 9.009497869018204596614 82.38469642150253947
10.009497869018190385759 214.50768706309997924 10.009497869018190385759 85.27757000637912199
11.009497869018190385759 221.96706851943011429 11.009497869018190385759 87.88749992413551126
12.009497869018190385759 228.91188531571219755 12.009497869018190385759 90.27158125427526159
13.009497869018190385759 235.40679476629443911 13.009497869018190385759 92.45502355913133385
14.009497869018190385759 241.50478854400759587 14.009497869018190385759 94.45620814887249139
15.009497869018190385759 247.24859997322329264 15.009497869018190385759 96.29709835322805134
16.009497869018204596614 252.67369742309998060 16.009497869018204596614 97.99673544955354032
17.009497869018204596614 257.81119662296913475 17.009497869018204596614 99.57267115427660542
18.009497869018204596614 262.68805754203452807 18.009497869018204596614 101.04367973373024370
19.009497869018204596614 267.32718192246369426 19.009497869018204596614 102.41367917055271164
20.009497869018204596614 271.74927848574418476 20.009497869018204596614 103.69009128801756958
21.009497869018204596614 275.97125965336488207 21.009497869018204596614 104.87888836084259481
22.009497869018190385759 280.00757365398550292 22.009497869018190385759 105.99067052600913996
23.009497869018190385759 283.87147750287886083 23.009497869018190385759 107.02896243828359957
24.009497869018190385759 287.57521457126006226 24.009497869018190385759 108.00553322004927281
25.009497869018190385759 291.13029405147347006 25.009497869018190385759 108.92541270638159290
26.009497869018190385759 294.54684111107468425 26.009497869018190385759 109.79370152130822191
27.009497869018204596614 297.83409396475468611 27.009497869018204596614 110.61697422238437127
28.009497869018190385759 301.00005954500818461 28.009497869018190385759 111.39684968248400310
29.009497869018190385759 304.05191317446337962 29.009497869018190385759 112.12946688867576484
30.009497869018190385759 306.99631856279142994 30.009497869018190385759 112.83082034033445495
31.009497869018190385759 309.83938021325309364 31.009497869018190385759 113.49511039021453485
32.009497869018190385759 312.58672032277672770 32.009497869018190385759 114.12504624986797808
33.009497869018218807469 315.24356714989181683 33.009497869018218807469 114.71884354842852360
34.009497869018190385759 317.81490749879350233 34.009497869018190385759 115.29069501538536713
35.009497869018218807469 320.30519464467784019 35.009497869018218807469 115.83329298803796803
36.009497869018190385759 322.71854658445784025 36.009497869018190385759 116.35609148112352784
37.009497869018218807469 325.05877832036418340 37.009497869018218807469 116.85753738770584675
38.009497869018190385759 327.32952116332660353 38.009497869018190385759 117.33977155158143546
39.009497869018190385759 329.53409845597207095 39.009497869018190385759 117.80496539121365629
40.009497869018190385759 331.67562187871072865 40.009497869018190385759 118.25063844695856119
41.009497869018190385759 333.75707770617486858 41.009497869018190385759 118.68359528251099277
42.009497869018190385759 335.78120150350190443 42.009497869018190385759 119.09328173606384382
43.009497869018190385759 337.75057474064885810 43.009497869018190385759 119.49643820679261808
44.009497869018218807469 339.66768371640711166 44.009497869018218807469 119.87027080810293000
46.009497869018218807469 343.35434179908992292 46.009497869018218807469 120.58410826800960081
48.009497869018218807469 346.85704214534314360 48.009497869018218807469 121.23957693159516680
50.009497869018218807469 350.18841206334712979 50.009497869018218807469 121.80531431919831675
52.009497869018190385759 353.36104302352890727 52.009497869018190385759 122.30746740681672691
54.009497869018190385759 356.38691448890818947 54.009497869018190385759 122.75645043220374930
56.009497869018190385759 359.27551928863033481 56.009497869018190385759 123.15406704529067383
58.009497869018190385759 362.03504260870352027 58.009497869018190385759 123.50247959641225748
60.009497869018190385759 364.67363125533773882 60.009497869018190385759 123.86702923221280059
62.009497869018190385759 367.19813479832407666 62.009497869018190385759 124.21508528161365348
64.009497869018190385759 369.61573232329982375 64.009497869018190385759 124.54655585747572388
66.009497869018218807469 371.93610304710682612 66.009497869018218807469 124.89666575900237433
68.009497869018218807469 374.16762622010179484 68.009497869018218807469 125.24780798344967536
70.009497869018218807469 376.31528091628405264 70.009497869018218807469 125.53754364435185664
72.009497869018218807469 378.38427332646142531 72.009497869018218807469 125.73532717946207526
74.009497869018190385759 380.37943111351262360 74.009497869018190385759 125.91457159375920583
76.009497869018190385759 382.30464325697460026 76.009497869018190385759 126.07080102684544443
78.009497869018190385759 384.16490202565995560 78.009497869018190385759 126.26279661215066596
80.009497869018190385759 385.96329699731876417 80.009497869018190385759 126.35841758018219139
82.009497869018190385759 387.69977861113170547 82.009497869018190385759 126.48772659869440815
84.009497869018190385759 389.37513360057567979 84.009497869018190385759 126.58906939782804102
86.009497869018190385759 390.99074865847398996 86.009497869018190385759 126.56244207519191036
88.009497869018218807469 392.55068089085909833 88.009497869018218807469 126.57533519834129265
91.009497869018190385759 394.78985690813124165 91.009497869018190385759 126.52673926985042385
94.009497869018218807469 396.91609337766396948 94.009497869018218807469 126.56899142619406007
97.009497869018190385759 398.94471297641933916 97.009497869018190385759 126.76273276010793722
99.504748934509109403734 400.56861967986139916 99.504748934509109403734 126.85802349162499070
nan nan nan nan

