Time Pressure difference Time.1 Pressure.1 difference.1
(hr) (psi) (hr) (psi)
0.000200000000006639311 0.47858974670811028 0.000200000000006639311 0.37793955590185868
0.000399999999999067768 0.86866988369870435 0.000399999999999067768 0.74759705012948219
0.000600000000005707079 1.21563063168086982 0.000600000000005707079 1.00127524405827062
0.000799999999998135536 1.53338819496202783 0.000799999999998135536 1.22925824106303017
0.001007140329434719206 1.83941559090284890 0.001007140329434719206 1.44466387827216436
0.001267914553963578328 2.19867361334462830 0.001267914553963578328 1.69198587632882647
0.001596209851982166583 2.61859373746265822 0.001596209851982166583 1.97316479126784960
0.002009509145224797066 3.10733469353728209 0.002009509145224797066 2.29148239293233535
0.002529822128138903281 3.67383862268694061 0.002529822128138903281 2.65049999141266390
0.003184857364431081805 4.32790338324724910 0.003184857364431081805 3.05413740721856186
0.004009497869020606231 5.08027496186523742 0.004009497869020606231 3.50676768371893388
0.005047658755842121536 5.94276323929278671 0.005047658755842121536 4.01332403006900940
0.006354625877790454069 6.92838342864255452 0.006354625877790454069 4.57941498936857005
0.008000000000009777068 8.05152456477336287 0.008000000000009777068 5.21144433356536130
0.010071403294347192059 9.32814571394904490 0.010071403294347192059 5.91673336714566567
0.012679145539706837553 10.77600016206523215 0.012679145539706837553 6.70364349747608124
0.015962098519750611558 12.41488718889582898 0.015962098519750611558 7.58169339022353395
0.020095091452091651263 14.26692896581521453 0.020095091452091651263 8.56166058336323132
0.025298221281360611101 16.35686737438146210 0.025298221281360611101 9.65567152312117827
0.031848573644296607199 18.71237990313172617 0.031848573644296607199 10.87733897286115514
0.040094978690177640601 21.36443627154731573 0.040094978690177640601 12.24205788265500239
0.050476587558421215363 24.34774565780476863 0.050476587558421215363 13.76746334582706943
0.063546258777961384112 27.70131722533090723 0.063546258777961384112 15.47366729231124971
0.079999999999998294697 31.46900651012651906 0.079999999999998294697 17.38244269220804483
0.100714032943542974863 35.69968681402006894 0.100714032943542974863 19.51460075271268835
0.126791455396897845276 40.44657017491275042 0.126791455396897845276 21.88567068198872079
0.159620985197506115583 45.76536728050578517 0.159620985197506115583 24.50138493481926716
0.200950914520760193227 51.71150256561261926 0.200950914520760193227 27.35517515795209675
0.252982212813478213320 58.33708795223522969 0.252982212813478213320 30.42966853958719398
0.318485736442795541734 65.68878385629797378 0.318485736442795541734 33.69980065214973308
0.400949786901833249431 73.80615106864988206 0.400949786901833249431 37.14288895552032699
0.504765875584155310207 82.72406353136841517 0.504765875584155310207 40.74200254682814659
0.635462587779443310865 92.47250672208976141 0.635462587779443310865 44.49055769684742501
0.799999999999997157829 103.08094497232829667 0.799999999999997157829 48.39896504134036093
1.007140329435344483500 114.58095729076202929 1.007140329435344483500 52.50292728909000317
1.267914553968893187630 127.01406633789881084 1.267914553968893187630 56.81698767222626145
1.596209851975103788391 140.41285125014672985 1.596209851975103788391 61.42611030044835019
2.009509145207672986544 154.84969074484538964 2.009509145207672986544 66.36790181763183227
2.529822128134711078928 170.36408258720240383 2.529822128134711078928 71.72726181743520613
3.184857364427998049905 187.05238258030246357 3.184857364427998049905 77.62183675697035312
4.009497869018190385759 204.98827114775119185 4.009497869018190385759 84.08103426887694809
5.009497869018204596614 223.60002457606782400 5.009497869018204596614 90.90351596657001210
6.009497869018204596614 239.78146571956531830 6.009497869018204596614 96.89277962035741609
7.009497869018204596614 254.16160703620133177 7.009497869018204596614 102.22704709994211214
8.009497869018204596614 267.13520474615830835 8.009497869018204596614 107.00736733301852155
9.009497869018204596614 278.96914611407243001 9.009497869018204596614 111.32269014661812889
10.009497869018190385759 289.85447319995950011 10.009497869018190385759 115.23169853908576954
11.009497869018190385759 299.93399581299337342 11.009497869018190385759 118.75837803368850132
12.009497869018190385759 309.31821062374012854 12.009497869018190385759 121.97987861240778784
13.009497869018190385759 318.09448611789611050 13.009497869018190385759 124.93026480929216859
14.009497869018190385759 326.33442753079162912 14.009497869018190385759 127.63437445206066911
15.009497869018190385759 334.09577845844148669 15.009497869018190385759 130.12188558841211261
16.009497869018204596614 341.42646569357953013 16.009497869018204596614 132.41852782968348379
17.009497869018204596614 348.36853450487222972 17.009497869018204596614 134.54801801133433514
18.009497869018204596614 354.95841467149466553 18.009497869018204596614 136.53572494486130040
19.009497869018204596614 361.22705227515706383 19.009497869018204596614 138.38694282185798556
20.009497869018204596614 367.20243006855031354 20.009497869018204596614 140.11170041427465094
21.009497869018204596614 372.90740103698408348 21.009497869018204596614 141.71806778508121738
22.009497869018190385759 378.36148841416684263 22.009497869018190385759 143.22036841686539788
23.009497869018190385759 383.58260580138107798 23.009497869018190385759 144.62336501517174270
24.009497869018190385759 388.58729710883534381 24.009497869018190385759 145.94296065934972262
25.009497869018190385759 393.39111418424909061 25.009497869018190385759 147.18595193658015319
26.009497869018190385759 398.00773870564574963 26.009497869018190385759 148.35923108793261349
27.009497869018204596614 402.44965385201618346 27.009497869018204596614 149.47168201375953345
28.009497869018190385759 406.72767902676730500 28.009497869018190385759 150.52549222328482870
29.009497869018190385759 410.85150991674800025 29.009497869018190385759 151.51544450548658460
30.009497869018190385759 414.83015088950662630 30.009497869018190385759 152.46315149930498478
31.009497869018190385759 418.67185068242440593 31.009497869018190385759 153.36077640541535061
32.009497869018190385759 422.38420631428965635 32.009497869018190385759 154.21198005806533615
33.009497869018218807469 425.97428249286451774 33.009497869018218807469 155.01435131812743862
34.009497869018190385759 429.44881765966005105 34.009497869018190385759 155.78706817491141123
35.009497869018218807469 432.81382932273669439 35.009497869018218807469 156.52025611645274239
36.009497869018190385759 436.07488194387315161 36.009497869018190385759 157.22668992252175713
37.009497869018218807469 439.23713056192582371 37.009497869018218807469 157.90427095041255257
38.009497869018190385759 442.30548200205777221 38.009497869018190385759 158.55589202489679224
39.009497869018190385759 445.28442694588346740 39.009497869018190385759 159.18448728490159283
40.009497869018190385759 448.17817006549790904 40.009497869018190385759 159.78670499821996032
41.009497869018190385759 450.99074657787787146 41.009497869018190385759 160.37173986203100640
42.009497869018190385759 453.72585292767098508 42.009497869018190385759 160.92533051790707077
43.009497869018190385759 456.38697733772261245 43.009497869018190385759 161.47009750523591265
44.009497869018218807469 458.97747943041389362 44.009497869018218807469 161.97524048263369423
46.009497869018218807469 463.95909268192440322 46.009497869018218807469 162.93981654852910879
48.009497869018218807469 468.69213221790090529 48.009497869018218807469 163.82552151688668118
50.009497869018218807469 473.19366074509628106 50.009497869018218807469 164.58997669655110485
52.009497869018190385759 477.48069254433829656 52.009497869018190385759 165.26851330598535128
54.009497869018190385759 481.56941491870389882 54.009497869018190385759 165.87520363061224771
56.009497869018190385759 485.47265509610622303 56.009497869018190385759 166.41248486048240807
58.009497869018190385759 489.20147334581082532 58.009497869018190385759 166.88327888117353837
60.009497869018190385759 492.76687807620908188 60.009497869018190385759 167.37587820983591769
62.009497869018190385759 496.17812479916904067 62.009497869018190385759 167.84619050597976297
64.009497869018190385759 499.44491428632267116 64.009497869018190385759 168.29409160669658263
66.009497869018218807469 502.58032562279311151 66.009497869018218807469 168.76717917972723626
68.009497869018218807469 505.59568130816626308 68.009497869018218807469 169.24166168372948960
70.009497869018218807469 508.49770933849129051 70.009497869018218807469 169.63316829362241833
72.009497869018218807469 511.29344460242276682 72.009497869018218807469 169.90042418156704684
74.009497869018190385759 513.98941050105474915 74.009497869018190385759 170.14262899945239838
76.009497869018190385759 516.59086203541005489 76.009497869018190385759 170.35373472086286029
78.009497869018190385759 519.10454503108894642 78.009497869018190385759 170.61316961570179274
80.009497869018190385759 521.53463429386806638 80.009497869018190385759 170.74237787716376147
82.009497869018190385759 523.88106285446826860 82.009497869018190385759 170.91710726776986462
84.009497869018190385759 526.14489379002509395 84.009497869018190385759 171.05404717914396429
86.009497869018190385759 528.32800087542898382 86.009497869018190385759 171.01806689013386631
88.009497869018218807469 530.43586629338312832 88.009497869018218807469 171.03548878055440241
91.009497869018190385759 533.46156291887257339 91.009497869018190385759 170.96982331445738623
94.009497869018218807469 536.33464947447782833 94.009497869018218807469 171.02691673001848471
97.009497869018190385759 539.07583079609355536 97.009497869018190385759 171.28871057548633416
99.504748934509109403734 541.27014200468715899 99.504748934509109403734 171.41747260337857028
nan nan nan nan

