Time Pressure difference Time.1 Pressure.1 difference.1
(hr) (psi) (hr) (psi)
0.000200000000006639311 0.11742586623474854 0.000200000000006639311 0.09273052764170273
0.000399999999999067768 0.21313518366612774 0.000399999999999067768 0.18342898444821512
0.000600000000005707079 0.29826481016042561 0.000600000000005707079 0.24567098163233428
0.000799999999998135536 0.37622919902914476 0.000799999999998135536 0.30160845437222894
0.001007140329434719206 0.45131549644168040 0.001007140329434719206 0.35445997013309077
0.001267914553963578328 0.53946235871187831 0.001267914553963578328 0.41514242323717887
0.001596209851982166583 0.64249315839601029 0.001596209851982166583 0.48413194480709837
0.002009509145224797066 0.76240970597400159 0.002009509145224797066 0.56223374362398149
0.002529822128138903281 0.90140602811284354 0.002529822128138903281 0.65032161593016280
0.003184857364431081805 1.06188610862167243 0.003184857364431081805 0.74935732139977973
0.004009497869020606231 1.24648656226136478 0.004009497869020606231 0.86041382160212565
0.005047658755842121536 1.45810503881852171 0.005047658755842121536 0.98470151931401417
0.006354625877790454069 1.69993492612582564 0.006354625877790454069 1.12359651595913190
0.008000000000009777068 1.97550669029585135 0.008000000000009777068 1.27867002879256231
0.010071403294347192059 2.28873601734824028 0.010071403294347192059 1.45171839910072720
0.012679145539706837553 2.64397881960486503 0.012679145539706837553 1.64479316582635948
0.015962098519750611558 3.04609301053810100 0.015962098519750611558 1.86022981059861237
0.020095091452091651263 3.50050644386712806 0.020095091452091651263 2.10067268955198649
0.025298221281360611101 4.01328974039863429 0.025298221281360611101 2.36909712437323305
0.031848573644296607199 4.59123379586123193 0.031848573644296607199 2.66884311668344010
0.040094978690177640601 5.24193728148044169 0.040094978690177640601 3.00368794203073675
0.050476587558421215363 5.97391637492557237 0.050476587558421215363 3.37795851323343221
0.063546258777961384112 6.79674229003477137 0.063546258777961384112 3.79658945501005451
0.079999999999998294697 7.72117533736526074 0.079999999999998294697 4.26492294172213349
0.100714032943542974863 8.75920697691473826 0.100714032943542974863 4.78806517142154764
0.126791455396897845276 9.92389321267753211 0.126791455396897845276 5.36982636096540311
0.159620985197506115583 11.22890311259094354 0.159620985197506115583 6.01161301451135888
0.200950914520760193227 12.68783551013041766 0.200950914520760193227 6.71181353344978504
0.252982212813478213320 14.31347648695426855 0.252982212813478213320 7.46616535785627367
0.318485736442795541734 16.11727455360096073 0.318485736442795541734 8.26851872764946982
0.400949786901833249431 18.10893627015945384 0.400949786901833249431 9.11330829810512100
0.504765875584155310207 20.29701824045511316 0.504765875584155310207 9.99637993522971691
0.635462587779443310865 22.68887764401406315 0.635462587779443310865 10.91611826779413086
0.799999999999997157829 25.29174379294527242 0.799999999999997157829 11.87507762950658652
1.007140329435344483500 28.11336485250792450 1.007140329435344483500 12.88201796880855454
1.267914553968893187630 31.16392874338365360 1.267914553968893187630 13.94050758536055490
1.596209851975103788391 34.45142902026147169 1.596209851975103788391 15.07139311085271416
2.009509145207672986544 37.99362438699787248 2.009509145207672986544 16.28390163960462900
2.529822128134711078928 41.80020593983083188 2.529822128134711078928 17.59886397377389144
3.184857364427998049905 45.89481535458349981 3.184857364427998049905 19.04514562339457839
4.009497869018190385759 50.29553071927582408 4.009497869018190385759 20.62996198904805922
5.009497869018204596614 54.86207499545430011 5.009497869018204596614 22.30391306872075674
6.009497869018204596614 58.83232249087478039 6.009497869018204596614 23.77342736043252103
7.009497869018204596614 62.36060650092473168 7.009497869018204596614 25.08223304176298640
8.009497869018204596614 65.54378365787704297 8.009497869018204596614 26.25512328462655987
9.009497869018204596614 68.44733691127773056 9.009497869018204596614 27.31392264870603981
10.009497869018190385759 71.11813997611737648 10.009497869018190385759 28.27302948240167879
11.009497869018190385759 73.59123239443471221 11.009497869018190385759 29.13832882789439083
12.009497869018190385759 75.89372541829168028 12.009497869018190385759 29.92875005742100925
13.009497869018190385759 78.04705561248114520 13.009497869018190385759 30.65265117999873823
14.009497869018190385759 80.06879190079105513 14.009497869018190385759 31.31612635760109242
15.009497869018190385759 81.97310214166004982 15.009497869018190385759 31.92645733933188268
16.009497869018204596614 83.77174556142203699 16.009497869018204596614 32.48995709348996996
17.009497869018204596614 85.47503830689836946 17.009497869018204596614 33.01244473752898045
18.009497869018204596614 87.09191871913330374 18.009497869018204596614 33.50014471458798226
19.009497869018204596614 88.62997966963402519 19.009497869018204596614 33.95435599740546451
20.009497869018204596614 90.09608695315890259 20.009497869018204596614 34.37753922631407022
21.009497869018204596614 91.49584773453852904 21.009497869018204596614 34.77167445655175726
22.009497869018190385759 92.83405219710988376 22.009497869018190385759 35.14027607045105839
23.009497869018190385759 94.11509558787201968 23.009497869018190385759 35.48451263634850505
24.009497869018190385759 95.34303708903784980 24.009497869018190385759 35.80828610342135221
25.009497869018190385759 96.52169247226271409 25.009497869018190385759 36.11326406932006705
26.009497869018190385759 97.65441864793695004 26.009497869018190385759 36.40113760115057318
27.009497869018204596614 98.74427846501723138 27.009497869018204596614 36.67408643573675420
28.009497869018190385759 99.79392655166040527 28.009497869018190385759 36.93264729616404196
29.009497869018190385759 100.80574182307476860 29.009497869018190385759 37.17554009750002564
30.009497869018190385759 101.78193357368532190 30.009497869018190385759 37.40806767555891099
31.009497869018190385759 102.72452569794234023 31.009497869018190385759 37.62830720822525166
32.009497869018190385759 103.63538218586683115 32.009497869018190385759 37.83715691079852661
33.009497869018218807469 104.51623642066304853 33.009497869018218807469 38.03402519078723287
34.009497869018190385759 105.36874173347095507 34.009497869018190385759 38.22361752302203541
35.009497869018218807469 106.19437456857598079 35.009497869018218807469 38.40351111610578272
36.009497869018190385759 106.99450021169300840 36.009497869018190385759 38.57684036560547725
37.009497869018218807469 107.77038349331071743 37.009497869018218807469 38.74309035255480893
38.009497869018190385759 108.52322834267995688 38.009497869018190385759 38.90297085491499729
39.009497869018190385759 109.25413658486530721 39.009497869018190385759 39.05720178740953941
40.009497869018190385759 109.96413987018185310 40.009497869018190385759 39.20496077542532731
41.009497869018190385759 110.65422827176048770 41.009497869018190385759 39.34850381230204164
42.009497869018190385759 111.32530874220043415 42.009497869018190385759 39.48433175837242004
43.009497869018190385759 111.97823714519719829 43.009497869018190385759 39.61799474597962956
44.009497869018218807469 112.61383779128192373 44.009497869018218807469 39.74193566218465890
46.009497869018218807469 113.83611690471619227 46.009497869018218807469 39.97860220355157423
48.009497869018218807469 114.99740644603669182 48.009497869018218807469 40.19591708305574684
50.009497869018218807469 116.10189288838567734 50.009497869018218807469 40.38348234597076214
52.009497869018190385759 117.15375082321297384 52.009497869018190385759 40.54996679258260883
54.009497869018190385759 118.15695193628677373 54.009497869018190385759 40.69882317196719157
56.009497869018190385759 119.11464349175020061 56.009497869018190385759 40.83064946842074505
58.009497869018190385759 120.02953921614722788 58.009497869018190385759 40.94616259020836679
60.009497869018190385759 120.90434011153671179 60.009497869018190385759 41.06702582071571328
62.009497869018190385759 121.74131709263431844 62.009497869018190385759 41.18242074748840054
64.009497869018190385759 122.54285032224096597 64.009497869018190385759 41.29231690615234385
66.009497869018218807469 123.31214885970386774 66.009497869018218807469 41.40839276956172199
68.009497869018218807469 124.05199077189756451 68.009497869018218807469 41.52481089057022956
70.009497869018218807469 124.76402682708341274 70.009497869018218807469 41.62087020466862697
72.009497869018218807469 125.44998309210639320 72.009497869018218807469 41.68644359892559947
74.009497869018190385759 126.11146013620042083 74.009497869018190385759 41.74587051047572572
76.009497869018190385759 126.74974731638045000 76.009497869018190385759 41.79766700710825944
78.009497869018190385759 127.36649977553243218 78.009497869018190385759 41.86132145743346911
80.009497869018190385759 127.96274183602861285 80.009497869018190385759 41.89302374970198173
82.009497869018190385759 128.53845706641462243 82.009497869018190385759 41.93589501928040164
84.009497869018190385759 129.09390630126611654 84.009497869018190385759 41.96949433440535415
86.009497869018190385759 129.62954928641164543 86.009497869018190385759 41.96066627940950156
88.009497869018218807469 130.14673111972928155 88.009497869018218807469 41.96494088117050580
91.009497869018190385759 130.88911026524064596 91.009497869018190385759 41.94882932781779061
94.009497869018218807469 131.59404529546205254 94.009497869018218807469 41.96283765922203912
97.009497869018190385759 132.26661630938633607 97.009497869018190385759 42.02707089716840017
99.504748934509109403734 132.80500831679992757 99.504748934509109403734 42.05866370242046770
nan nan nan nan

