Time Pressure difference Time.1 Pressure.1 difference.1
(hr) (psi) (hr) (psi)
0.000200000000006639311 0.23675593570573625 0.000200000000006639311 0.18696479356948711
0.000399999999999067768 0.42972661355386832 0.000399999999999067768 0.36983249296856341
0.000600000000005707079 0.60136634697210134 0.000600000000005707079 0.49532581702086859
0.000799999999998135536 0.75855941209659994 0.000799999999998135536 0.60810785665319667
0.001007140329434719206 0.90994962255538803 0.001007140329434719206 0.71466793978185328
0.001267914553963578328 1.08767275567313848 0.001267914553963578328 0.83701688577009581
0.001596209851982166583 1.29540512476600989 0.001596209851982166583 0.97611467790836592
0.002009509145224797066 1.53718281258541944 0.002009509145224797066 1.13358479119862210
0.002529822128138903281 1.81742945127616551 0.002529822128138903281 1.31118898779432813
0.003184857364431081805 2.14099199197775070 0.003184857364431081805 1.51086638314658295
0.004009497869020606231 2.51318642012696758 0.004009497869020606231 1.73478029977077242
0.005047658755842121536 2.93985502421247924 0.005047658755842121536 1.98537117137366126
0.006354625877790454069 3.42743636456720502 0.006354625877790454069 2.26541351596084439
0.008000000000009777068 3.98304862421812222 0.008000000000009777068 2.57807524724122006
0.010071403294347192059 4.61458667281564150 0.010071403294347192059 2.92697817764633061
0.012679145539706837553 5.33083297141953771 0.012679145539706837553 3.31625865326071390
0.015962098519750611558 6.14158212394979319 0.015962098519750611558 3.75062551001774303
0.020095091452091651263 7.05777785709426375 0.020095091452091651263 4.23541034163724817
0.025298221281360611101 8.09165985496589713 0.025298221281360611101 4.77661203995251871
0.031848573644296607199 9.25692003165534949 0.031848573644296607199 5.38096477039417920
0.040094978690177640601 10.56887895130921429 0.040094978690177640601 6.05608433717548511
0.050476587558421215363 12.04470706944453262 0.050476587558421215363 6.81069473208686649
0.063546258777961384112 13.70370202261064740 0.063546258777961384112 7.65474522550675829
0.079999999999998294697 15.56755892344454928 0.079999999999998294697 8.59900679601273232
0.100714032943542974863 17.66045514804971361 0.100714032943542974863 9.65377464292020093
0.126791455396897845276 20.00871442339848372 0.126791455396897845276 10.82673098724375826
0.159620985197506115583 22.63989654592660372 0.159620985197506115583 12.12071164547425184
0.200950914520760193227 25.58141970420889422 0.200950914520760193227 13.53246728636091767
0.252982212813478213320 28.85906340342671328 0.252982212813478213320 15.05340366746156811
0.318485736442795541734 32.49591031617923420 0.318485736442795541734 16.67112154277433689
0.400949786901833249431 36.51153096632149442 0.400949786901833249431 18.37439997401735070
0.504765875584155310207 40.92317731724192953 0.504765875584155310207 20.15486332886856502
0.635462587779443310865 45.74568303360673838 0.635462587779443310865 22.00925466966059574
0.799999999999997157829 50.99362397172208716 0.799999999999997157829 23.94272408543760378
1.007140329435344483500 56.68262210802949141 1.007140329435344483500 25.97293352630049057
1.267914553968893187630 62.83321849341677989 1.267914553968893187630 28.10707745588911877
1.596209851975103788391 69.46152986247311389 1.596209851975103788391 30.38718719107060551
2.009509145207672986544 76.60336160189301324 2.009509145207672986544 32.83186654904067581
2.529822128134711078928 84.27825305706431891 2.529822128134711078928 35.48311493090626811
3.184857364427998049905 92.53387095816023589 3.184857364427998049905 38.39913144608745910
4.009497869018190385759 101.40666463940476660 4.009497869018190385759 41.59446390224284329
5.009497869018204596614 110.61380526110517053 5.009497869018204596614 44.96951121423158071
6.009497869018204596614 118.61868264376374782 6.009497869018204596614 47.93236975914232545
7.009497869018204596614 125.73246608024284399 7.009497869018204596614 50.57120499771671973
8.009497869018204596614 132.15043948317909894 8.009497869018204596614 52.93600532522003732
9.009497869018204596614 138.00463063733292302 9.009497869018204596614 55.07077377279649966
10.009497869018190385759 143.38954708698261697 10.009497869018190385759 57.00454052397743965
11.009497869018190385759 148.37583612499540209 11.009497869018190385759 58.74917109624112044
12.009497869018190385759 153.01815989742053148 12.009497869018190385759 60.34283119685425589
13.009497869018190385759 157.35973915381333654 13.009497869018190385759 61.80237237913259207
14.009497869018190385759 161.43599664321655496 14.009497869018190385759 63.14008179127139897
15.009497869018190385759 165.27549783156322860 15.009497869018190385759 64.37064101389617576
16.009497869018204596614 168.90195186167795782 16.009497869018204596614 65.50677835606356325
17.009497869018204596614 172.33615831607076530 17.009497869018204596614 66.56022641674761076
18.009497869018204596614 175.59613882290119591 18.009497869018204596614 67.54353501914225433
19.009497869018204596614 178.69720225282969750 19.009497869018204596614 68.45932317314725424
20.009497869018204596614 181.65319153258525375 20.009497869018204596614 69.31255206170349936
21.009497869018204596614 184.47541191882632461 21.009497869018204596614 70.10721390429083044
22.009497869018190385759 187.17352145687561915 22.009497869018190385759 70.85039445555808868
23.009497869018190385759 189.75638191500681273 23.009497869018190385759 71.54444980193508741
24.009497869018190385759 192.23217748222225509 24.009497869018190385759 72.19724711662792060
25.009497869018190385759 194.60860157921078439 25.009497869018190385759 72.81214863706152585
26.009497869018190385759 196.89242246313773421 26.009497869018190385759 73.39256392015765584
27.009497869018204596614 199.08981549973745473 27.009497869018204596614 73.94288778664761708
28.009497869018190385759 201.20613299334772250 28.009497869018190385759 74.46420238631993982
29.009497869018190385759 203.24617135138859680 29.009497869018190385759 74.95392679117573209
30.009497869018190385759 205.21438498910609383 30.009497869018190385759 75.42275266477554396
31.009497869018190385759 207.11485451531075341 31.009497869018190385759 75.86680318198928319
32.009497869018190385759 208.95133813690986813 32.009497869018190385759 76.28788933906945147
33.009497869018218807469 210.72733072922875408 33.009497869018218807469 76.68481835764129073
34.009497869018190385759 212.44616576532254726 34.009497869018190385759 77.06707749236335303
35.009497869018218807469 214.11082007610184519 35.009497869018218807469 77.42978187193219242
36.009497869018190385759 215.72404637276483186 36.009497869018190385759 77.77925111551806481
37.009497869018218807469 217.28839482705348018 37.009497869018218807469 78.11444703515103072
38.009497869018190385759 218.80629282064660401 38.009497869018190385759 78.43680069666645238
39.009497869018190385759 220.27996187110679216 39.009497869018190385759 78.74776360380410267
40.009497869018190385759 221.71148200852883292 40.009497869018190385759 79.04567767153322677
41.009497869018190385759 223.10284943441439509 41.009497869018190385759 79.33509147020896535
42.009497869018190385759 224.45589276130144185 42.009497869018190385759 79.60894997769142378
43.009497869018190385759 225.77233759545165981 43.009497869018190385759 79.87844346081298852
44.009497869018218807469 227.05384592512518793 44.009497869018218807469 80.12833514591827111
46.009497869018218807469 229.51822489437373065 46.009497869018218807469 80.60550606445802657
48.009497869018218807469 231.85963569930640915 48.009497869018218807469 81.04365984853941995
50.009497869018218807469 234.08651917496140982 50.009497869018218807469 81.42183197322754040
52.009497869018190385759 236.20729220031589080 52.009497869018190385759 81.75750061423411807
54.009497869018190385759 238.22996255262142995 54.009497869018190385759 82.05762726023657194
56.009497869018190385759 240.16087579688013420 56.009497869018190385759 82.32341757686992878
58.009497869018190385759 242.00550339255627819 58.009497869018190385759 82.55631700620389779
60.009497869018190385759 243.76929114380106967 60.009497869018190385759 82.80000341149708731
62.009497869018190385759 245.45681770568970137 62.009497869018190385759 83.03266453412526005
64.009497869018190385759 247.07288200105884357 64.009497869018190385759 83.25423895132337293
66.009497869018218807469 248.62395418740294417 66.009497869018218807469 83.48827298944067365
68.009497869018218807469 250.11563544820427296 68.009497869018218807469 83.72299709287943870
70.009497869018218807469 251.55125408920059726 70.009497869018218807469 83.91667343968323678
72.009497869018218807469 252.93429023435504632 72.009497869018218807469 84.04888358053648290
74.009497869018190385759 254.26797097731221697 74.009497869018190385759 84.16870108328349431
76.009497869018190385759 255.55489594059412184 76.009497869018190385759 84.27313401973718499
78.009497869018190385759 256.79840225012753763 78.009497869018190385759 84.40147515471718975
80.009497869018190385759 258.00055516129015132 80.009497869018190385759 84.46539383048020966
82.009497869018190385759 259.16132154471705462 82.009497869018190385759 84.55183157941399941
84.009497869018190385759 260.28122729930953483 84.009497869018190385759 84.61957506342267266
86.009497869018190385759 261.36119937206234454 86.009497869018190385759 84.60177579578240170
88.009497869018218807469 262.40394977112987362 88.009497869018218807469 84.61039431717080106
91.009497869018190385759 263.90074664289056727 91.009497869018190385759 84.57790994203263324
94.009497869018218807469 265.32204808220194536 94.009497869018218807469 84.60615376697201384
97.009497869018190385759 266.67809666703300309 97.009497869018190385759 84.73566186293952285
99.504748934509109403734 267.76361136306150001 99.504748934509109403734 84.79935978920451589
nan nan nan nan

