Time Pressure difference Time.1 Pressure.1 difference.1
(hr) (psi) (hr) (psi)
0.000200000000006639311 0.28943889190835320 0.000200000000006639311 0.22856821948441322
0.000399999999999067768 0.52534942568515808 0.000399999999999067768 0.45212765896424911
0.000600000000005707079 0.73518245099002200 0.000600000000005707079 0.60554577094240236
0.000799999999998135536 0.92735413382318932 0.000799999999998135536 0.74342408212830491
0.001007140329434719206 1.11243171014814179 0.001007140329434719206 0.87369592638210491
0.001267914553963578328 1.32970181390603526 0.001267914553963578328 1.02326997295218147
0.001596209851982166583 1.58365881204638215 0.001596209851982166583 1.19331982071371279
0.002009509145224797066 1.87923689688726880 0.002009509145224797066 1.38583020050019234
0.002529822128138903281 2.22184404767273858 0.002529822128138903281 1.60295490196840129
0.003184857364431081805 2.61740575962963629 0.003184857364431081805 1.84706453274756521
0.004009497869020606231 3.07242093184422860 0.004009497869020606231 2.12080379811118558
0.005047658755842121536 3.59403187946619429 0.005047658755842121536 2.42715617733616451
0.006354625877790454069 4.19010987196419737 0.006354625877790454069 2.76951357447223900
0.008000000000009777068 4.86935703121572061 0.008000000000009777068 3.15174882772653175
0.010071403294347192059 5.64142499411241971 0.010071403294347192059 3.57828967562125166
0.012679145539706837553 6.51705049589090901 0.012679145539706837553 4.05419288441524284
0.015962098519750611558 7.50820763678580683 0.015962098519750611558 4.58521510071874161
0.020095091452091651263 8.62827534272113716 0.020095091452091651263 5.17787430505786972
0.025298221281360611101 9.89221687363122903 0.025298221281360611101 5.83950426331996919
0.031848573644296607199 11.31677086979849634 0.031848573644296607199 6.57833762814945189
0.040094978690177640601 12.92066702894638652 0.040094978690177640601 7.40368487332981573
0.050476587558421215363 14.72489657819492415 0.050476587558421215363 8.32621125424024378
0.063546258777961384112 16.75305126624786922 0.063546258777961384112 9.35807995397072823
0.079999999999998294697 19.03165380453274835 0.079999999999998294697 10.51245871040698887
0.100714032943542974863 21.59026152147632871 0.100714032943542974863 11.80193361172013944
0.126791455396897845276 24.46105570259975792 0.126791455396897845276 13.23589632756877599
0.159620985197506115583 27.67772875319713677 0.159620985197506115583 14.81781370063340297
0.200950914520760193227 31.27379996010524721 0.200950914520760193227 16.54371335812487587
0.252982212813478213320 35.28078528676294923 0.252982212813478213320 18.40308866585113989
0.318485736442795541734 39.72690376455156525 0.318485736442795541734 20.38078129626031298
0.400949786901833249431 44.63608075239302764 0.400949786901833249431 22.46307342668072948
0.504765875584155310207 50.02940712241908727 0.504765875584155310207 24.63972567818784398
0.635462587779443310865 55.92501732794818281 0.635462587779443310865 26.90675637899526151
0.799999999999997157829 62.34073064639482453 0.799999999999997157829 29.27046161651353273
1.007140329435344483500 69.29564525807357711 1.007140329435344483500 31.75243347987406040
1.267914553968893187630 76.81487301071864238 1.267914553968893187630 34.36146734553736337
1.596209851975103788391 84.91811693642827663 1.596209851975103788391 37.14894734350722416
2.009509145207672986544 93.64914984038395573 2.009509145207672986544 40.13761701437680784
2.529822128134711078928 103.03185896520463416 2.529822128134711078928 43.37882147049131021
3.184857364427998049905 113.12451784697337587 3.184857364427998049905 46.94371029334015333
4.009497869018190385759 123.97168652967445723 4.009497869018190385759 50.85006847030224009
5.009497869018204596614 135.22760106987655604 5.009497869018204596614 54.97613167209009077
6.009497869018204596614 145.01372462615620407 6.009497869018204596614 58.59828581814718262
7.009497869018204596614 153.71046791579286150 7.009497869018204596614 61.82431495699416502
8.009497869018204596614 161.55656944860501767 8.009497869018204596614 64.71533090697141688
9.009497869018204596614 168.71343584617642364 9.009497869018204596614 67.32512825843217286
10.009497869018190385759 175.29660448167308573 10.009497869018190385759 69.68919699446036020
11.009497869018190385759 181.39244309114718590 11.009497869018190385759 71.82204294875590733
12.009497869018190385759 187.06777724724867085 12.009497869018190385759 73.77032446585936043
13.009497869018190385759 192.37544518535889893 13.009497869018190385759 75.55464290853743137
14.009497869018190385759 197.35875192843630543 14.009497869018190385759 77.19001956251945273
15.009497869018190385759 202.05261933295668086 15.009497869018190385759 78.69440295532615437
16.009497869018204596614 206.48603230274835596 16.009497869018204596614 80.08335370071043258
17.009497869018204596614 210.68441874565218086 17.009497869018204596614 81.37121513682818374
18.009497869018204596614 214.66981046445832249 18.009497869018204596614 82.57332967487633368
19.009497869018204596614 218.46092286136820348 19.009497869018204596614 83.69289910711835034
20.009497869018204596614 222.07467919265113210 20.009497869018204596614 84.73598857945520990
21.009497869018204596614 225.52490036188959266 21.009497869018204596614 85.70747866047352659
22.009497869018190385759 228.82339352368711616 22.009497869018190385759 86.61603182770639364
23.009497869018190385759 231.98099236794402600 23.009497869018190385759 87.46452844418874406
24.009497869018190385759 235.00770223027706152 24.009497869018190385759 88.26258628735209300
25.009497869018190385759 237.91292847217189887 25.009497869018190385759 89.01431576005377622
26.009497869018190385759 240.70494542410403938 26.009497869018190385759 89.72388511418736812
27.009497869018204596614 243.39130259485327201 27.009497869018204596614 90.39666710646464765
28.009497869018190385759 245.97854328409269442 28.009497869018190385759 91.03398468676110156
29.009497869018190385759 248.47253119633566598 29.009497869018190385759 91.63268261870277342
30.009497869018190385759 250.87871194378655559 30.009497869018190385759 92.20583167597224872
31.009497869018190385759 253.20207415276595952 31.009497869018190385759 92.74869236189574906
32.009497869018190385759 255.44721230678524648 32.009497869018190385759 93.26347865580608243
33.009497869018218807469 257.61839896120193316 33.009497869018218807469 93.74873236215664463
34.009497869018190385759 259.71970935385274970 34.009497869018190385759 94.21605184052998538
35.009497869018218807469 261.75478272038191108 35.009497869018218807469 94.65946523753639497
36.009497869018190385759 263.72698430557846905 36.009497869018190385759 95.08669841468159234
37.009497869018218807469 265.63943174567395999 37.009497869018218807469 95.49648216629725539
38.009497869018190385759 267.49509256357868026 38.009497869018190385759 95.89056599914182755
39.009497869018190385759 269.29668260918151645 39.009497869018190385759 96.27072440572297296
40.009497869018190385759 271.04674476109693160 40.009497869018190385759 96.63493034375107982
41.009497869018190385759 272.74771941579882650 41.009497869018190385759 96.98874453194447653
42.009497869018190385759 274.40184208888325657 42.009497869018190385759 97.32354206388014006
43.009497869018190385759 276.01122236870230608 43.009497869018190385759 97.65300326576601719
44.009497869018218807469 277.57789206932193338 44.009497869018218807469 97.95850087543894347
46.009497869018218807469 280.59064491108421180 46.009497869018218807469 98.54185191794333321
48.009497869018218807469 283.45306669942016242 48.009497869018218807469 99.07750372904551739
50.009497869018218807469 286.17547652488582344 50.009497869018218807469 99.53982675547389647
52.009497869018190385759 288.76816419127089830 52.009497869018190385759 99.95018841847389979
54.009497869018190385759 291.24091936727978691 54.009497869018190385759 100.31709927792994108
56.009497869018190385759 293.60149963371941340 56.009497869018190385759 100.64203328432357409
58.009497869018190385759 295.85659395980070485 58.009497869018190385759 100.92675751964871722
60.009497869018190385759 298.01285995059856759 60.009497869018190385759 101.22466904998034920
62.009497869018190385759 300.07589510400674726 62.009497869018190385759 101.50910195056600571
64.009497869018190385759 302.05156619968590803 64.009497869018190385759 101.77998113084036902
66.009497869018218807469 303.94778313527007185 66.009497869018218807469 102.06609244821699178
68.009497869018218807469 305.77139347019073057 68.009497869018218807469 102.35304738432446925
70.009497869018218807469 307.52646612513535729 70.009497869018218807469 102.58982061258862473
72.009497869018218807469 309.21725562162436063 72.009497869018218807469 102.75145016816256316
74.009497869018190385759 310.84770714652648849 74.009497869018190385759 102.89792947446989047
76.009497869018190385759 312.42099879064591050 76.009497869018190385759 103.02560083914252687
78.009497869018190385759 313.94121025752860987 78.009497869018190385759 103.18250045724140307
80.009497869018190385759 315.41086636340025962 80.009497869018190385759 103.26064232358974948
82.009497869018190385759 316.82992660694628739 82.009497869018190385759 103.36631420968573991
84.009497869018190385759 318.19903391014787530 84.009497869018190385759 103.44913198102075569
86.009497869018190385759 319.51932148434428882 86.009497869018190385759 103.42737201843640094
88.009497869018218807469 320.79410481403539279 88.009497869018218807469 103.43790833412838026
91.009497869018190385759 322.62396908621474267 91.009497869018190385759 103.39819553235088279
94.009497869018218807469 324.36153867422001440 94.009497869018218807469 103.43272417624459081
97.009497869018190385759 326.01933533556848488 97.009497869018190385759 103.59105042761507320
99.504748934509109403734 327.34639887816626924 99.504748934509109403734 103.66892242326342455
nan nan nan nan

