Time Pressure difference Time.1 Pressure.1 difference.1
(hr) (psi) (hr) (psi)
0.000200000000006639311 0.55983575145431463 0.000200000000006639311 0.44209905610800976
0.000399999999999067768 1.01613638915418725 0.000399999999999067768 0.87451007720716600
0.000600000000005707079 1.42199763546754276 0.000600000000005707079 1.17125300432280466
0.000799999999998135536 1.79369812726327393 0.000799999999998135536 1.43793868516922130
0.001007140329434719206 2.15167712357601149 0.001007140329434719206 1.68991185760749230
0.001267914553963578328 2.57192324531825278 0.001267914553963578328 1.97921955294698271
0.001596209851982166583 3.06312954435287077 0.001596209851982166583 2.30813175848573371
0.002009509145224797066 3.63483978740037550 0.002009509145224797066 2.68048736149379296
0.002529822128138903281 4.29751414484069105 0.002529822128138903281 3.10045224459677637
0.003184857364431081805 5.06261377191521778 0.003184857364431081805 3.57261166202489555
0.004009497869020606231 5.94270890764607351 0.004009497869020606231 4.10208103055716133
0.005047658755842121536 6.95161429317803403 0.005047658755842121536 4.69463102721600301
0.006354625877790454069 8.10455462077285560 0.006354625877790454069 5.35682230851867214
0.008000000000009777068 9.41836162616724870 0.008000000000009777068 6.09614575889210730
0.010071403294347192059 10.91170360703323361 0.010071403294347192059 6.92116555679373668
0.012679145539706837553 12.60534766968373432 0.012679145539706837553 7.84166255275053548
0.015962098519750611558 14.52245424483570524 0.015962098519750611558 8.86877131323230294
0.020095091452091651263 16.68890099184219977 0.020095091452091651263 10.01509898478298410
0.025298221281360611101 19.13363000557619387 0.025298221281360611101 11.29483061457941417
0.031848573644296607199 21.88901734026814694 0.031848573644296607199 12.72388988602591375
0.040094978690177640601 24.99129017440945688 0.040094978690177640601 14.32028521551951172
0.050476587558421215363 28.48104996045597304 0.050476587558421215363 16.10464545228047228
0.063546258777961384112 32.40392810708469540 0.063546258777961384112 18.10049675307496386
0.079999999999998294697 36.81122512192518315 0.079999999999998294697 20.33330829512930649
0.100714032943542974863 41.76011110075026522 0.100714032943542974863 22.82742422266921523
0.126791455396897845276 47.31283142476532078 0.126791455396897845276 25.60101000200802801
0.159620985197506115583 53.53455429894708573 0.159620985197506115583 28.66077123675145089
0.200950914520760193227 60.49011308072988413 0.200950914520760193227 31.99902452163627231
0.252982212813478213320 68.24046627834412959 0.252982212813478213320 35.59544781421207205
0.318485736442795541734 76.84019543932998886 0.318485736442795541734 39.42072171776666067
0.400949786901833249431 86.33557724476021633 0.400949786901833249431 43.44831307529036479
0.504765875584155310207 96.76740588152112821 0.504765875584155310207 47.65841677228438300
0.635462587779443310865 108.17075720011030171 0.635462587779443310865 52.04333141726714729
0.799999999999997157829 120.58009743447421158 0.799999999999997157829 56.61523496878275807
1.007140329435344483500 134.03236648601077263 1.007140329435344483500 61.41589107291429883
1.267914553968893187630 148.57613595494262881 1.267914553968893187630 66.46231183939465836
1.596209851975103788391 164.24951565335467762 1.596209851975103788391 71.85388499336265511
2.009509145207672986544 181.13717140179528542 2.009509145207672986544 77.63460133043935230
2.529822128134711078928 199.28530615638265999 2.529822128134711078928 83.90377310739768291
3.184857364427998049905 218.80663320401430383 3.184857364427998049905 90.79901859369741146
4.009497869018190385759 239.78734105081770167 4.009497869018190385759 98.35473769913723174
5.009497869018204596614 261.55864943778755105 5.009497869018204596614 106.33541257627950927
6.009497869018204596614 280.48707263217056607 6.009497869018204596614 113.34142125352151709
7.009497869018204596614 297.30840504765200194 7.009497869018204596614 119.58124077208083236
8.009497869018204596614 312.48441722295967793 8.009497869018204596614 125.17307425427365786
9.009497869018204596614 326.32730354457811472 9.009497869018204596614 130.22097176302014532
10.009497869018190385759 339.06053761586770179 10.009497869018190385759 134.79357839717991396
11.009497869018190385759 350.85117282103470870 11.009497869018190385759 138.91895149298838419
12.009497869018190385759 361.82846388612574628 12.009497869018190385759 142.68733811159637526
13.009497869018190385759 372.09461108220739334 13.009497869018190385759 146.13858562572372080
14.009497869018190385759 381.73337544052810699 14.009497869018190385759 149.30174836434684948
15.009497869018190385759 390.81230318348195851 15.009497869018190385759 152.21154255832820468
16.009497869018204596614 399.38745721715804393 16.009497869018204596614 154.89806571058463192
17.009497869018204596614 407.50802046856404104 17.009497869018204596614 157.38906085675978375
18.009497869018204596614 415.21660708257064698 18.009497869018204596614 159.71420345008974095
19.009497869018204596614 422.54941658712004937 19.009497869018204596614 161.87968643087364740
20.009497869018204596614 429.53918212262789211 20.009497869018204596614 163.89724106815680216
21.009497869018204596614 436.21263622628640633 21.009497869018204596614 165.77630740907378026
22.009497869018190385759 442.59261642081582977 22.009497869018190385759 167.53364050885315351
23.009497869018190385759 448.70007734326009086 23.009497869018190385759 169.17481159599662988
24.009497869018190385759 454.55437141908851117 24.009497869018190385759 170.71842347685205254
25.009497869018190385759 460.17369059749034932 25.009497869018190385759 172.17242653589349288
26.009497869018190385759 465.57403917556962369 26.009497869018190385759 173.54488304980978342
27.009497869018204596614 470.77001949267673808 27.009497869018204596614 174.84618506118820846
28.009497869018190385759 475.77428766791609860 28.009497869018190385759 176.07889143360372941
29.009497869018190385759 480.59818534028084969 29.009497869018190385759 177.23689927564879554
30.009497869018190385759 485.25224547021872468 30.009497869018190385759 178.34549021536736291
31.009497869018190385759 489.74611711127101898 31.009497869018190385759 179.39549706840361409
32.009497869018190385759 494.08868696180826419 32.009497869018190385759 180.39120213688809713
33.009497869018218807469 498.28821904337740989 33.009497869018218807469 181.32978496364506782
34.009497869018190385759 502.35259572389941241 34.009497869018190385759 182.23367921786717716
35.009497869018218807469 506.28885605126498604 35.009497869018218807469 183.09133407786646330
36.009497869018190385759 510.10350911736884427 36.009497869018190385759 183.91769298629202467
37.009497869018218807469 513.80258508702729614 37.009497869018218807469 184.71030103218021168
38.009497869018190385759 517.39182377429028747 38.009497869018190385759 185.47254212991904865
39.009497869018190385759 520.87647820460108505 39.009497869018190385759 186.20784852159573575
40.009497869018190385759 524.26146684054276648 40.009497869018190385759 186.91229948067640976
41.009497869018190385759 527.55150992266351295 41.009497869018190385759 187.59665060783999024
42.009497869018190385759 530.75093140876094822 42.009497869018190385759 188.24421951829447153
43.009497869018190385759 533.86381168683203668 43.009497869018190385759 188.88146684299479716
44.009497869018218807469 536.89408071303057568 44.009497869018218807469 189.47236353538849585
46.009497869018218807469 542.72137897275501928 46.009497869018218807469 190.60068726233777170
48.009497869018218807469 548.25790532651012654 48.009497869018218807469 191.63675063381171526
50.009497869018218807469 553.52361906787120915 50.009497869018218807469 192.53098069808766013
52.009497869018190385759 558.53842284364236548 52.009497869018190385759 193.32470654625873863
54.009497869018190385759 563.32125193408069208 54.009497869018190385759 194.03438939283819309
56.009497869018190385759 567.88711113364149696 56.009497869018190385759 194.66288016836267616
58.009497869018190385759 572.24893831698295799 58.009497869018190385759 195.21359678142582084
60.009497869018190385759 576.41961069392095851 60.009497869018190385759 195.78982039930409087
62.009497869018190385759 580.40995500380256544 62.009497869018190385759 196.33997350964739326
64.009497869018190385759 584.23131883360292704 64.009497869018190385759 196.86391087149388568
66.009497869018218807469 587.89900159058822737 66.009497869018218807469 197.41731039326182895
68.009497869018218807469 591.42624789628996496 68.009497869018218807469 197.97234165125917116
70.009497869018218807469 594.82092789993271253 70.009497869018218807469 198.43031092171747787
72.009497869018218807469 598.09127074182606520 72.009497869018218807469 198.74293650947231527
74.009497869018190385759 601.24490724393922392 74.009497869018190385759 199.02625832561938068
76.009497869018190385759 604.28798450295983002 76.009497869018190385759 199.27320162307830742
78.009497869018190385759 607.22839352443031657 78.009497869018190385759 199.57667851598009179
80.009497869018190385759 610.07101783447160415 80.009497869018190385759 199.72782133641700852
82.009497869018190385759 612.81577909501459089 82.009497869018190385759 199.93221301083954700
84.009497869018190385759 615.46392085252284687 84.009497869018190385759 200.09240001592172575
86.009497869018190385759 618.01763497629758604 86.009497869018190385759 200.05031166723881597
88.009497869018218807469 620.48333431135790761 88.009497869018218807469 200.07069111995883759
91.009497869018190385759 624.02267704833639073 91.009497869018190385759 199.99387820073133071
94.009497869018218807469 627.38350243566242170 94.009497869018218807469 200.06066386720993933
97.009497869018190385759 630.59003018853377398 97.009497869018190385759 200.36690016920286439
99.504748934509109403734 633.15685046171631711 99.504748934509109403734 200.51752100289110103
nan nan nan nan

