Time Pressure difference Time.1 Pressure.1 difference.1
(hr) (psi) (hr) (psi)
0.000200000000006639311 0.34973866105592677 0.000200000000006639311 0.27618659854366595
0.000399999999999067768 0.63479722270289940 0.000399999999999067768 0.54632092124846765
0.000600000000005707079 0.88834546161294337 0.000600000000005707079 0.73170113988873631
0.000799999999998135536 1.12055291170302040 0.000799999999998135536 0.89830409923836840
0.001007140329434719206 1.34418831642900494 0.001007140329434719206 1.05571591104504336
0.001267914553963578328 1.60672302513645926 0.001267914553963578328 1.23645121731721930
0.001596209851982166583 1.91358773122271186 0.001596209851982166583 1.44192811669573628
0.002009509145224797066 2.27074458373878318 0.002009509145224797066 1.67454482560439910
0.002529822128138903281 2.68472822427122582 0.002529822128138903281 1.93690383987848480
0.003184857364431081805 3.16269862621914344 0.003184857364431081805 2.23186964373664143
0.004009497869020606231 3.71250862597844300 0.004009497869020606231 2.56263792271768232
0.005047658755842121536 4.34278852102165125 0.005047658755842121536 2.93281371428119897
0.006354625877790454069 5.06304942862340468 0.006354625877790454069 3.34649556915395507
0.008000000000009777068 5.88380641271899485 0.008000000000009777068 3.80836316683622611
0.010071403294347192059 6.81672186788584078 0.010071403294347192059 4.32376669137567848
0.012679145539706837553 7.87476934920151628 0.012679145539706837553 4.89881640200175195
0.015962098519750611558 9.07241756111618258 0.015962098519750611558 5.54046824670181248
0.020095091452091651263 10.42583270578804111 0.020095091452091651263 6.25659811861159199
0.025298221281360611101 11.95309538897106805 0.025298221281360611101 7.05606765151163007
0.031848573644296607199 13.67443146767318396 0.031848573644296607199 7.94882463401392236
0.040094978690177640601 15.61247265997688238 0.040094978690177640601 8.94611922194019371
0.050476587558421215363 17.79258336531886897 0.050476587558421215363 10.06083859887362841
0.063546258777961384112 20.24327028004950790 0.063546258777961384112 11.30767994438129698
0.079999999999998294697 22.99658168047707107 0.079999999999998294697 12.70255427507511037
0.100714032943542974863 26.08823267178389571 0.100714032943542974863 14.26066978082850234
0.126791455396897845276 29.55710897397470305 0.126791455396897845276 15.99337472914560365
0.159620985197506115583 33.44392224344653641 0.159620985197506115583 17.90485822159869400
0.200950914520760193227 37.78917495179383934 0.200950914520760193227 19.99032030773422264
0.252982212813478213320 42.63094888817190764 0.252982212813478213320 22.23706547123679300
0.318485736442795541734 48.00334204883314015 0.318485736442795541734 24.62677739964787804
0.400949786901833249431 53.93526424247491491 0.400949786901833249431 27.14288039057254664
0.504765875584155310207 60.45220027292306497 0.504765875584155310207 29.77300186114364422
0.635462587779443310865 67.57606260460404712 0.635462587779443310865 32.51233062461927403
0.799999999999997157829 75.32838286439374542 0.799999999999997157829 35.36847445328718464
1.007140329435344483500 83.73223802017224671 1.007140329435344483500 38.36752378818115261
1.267914553968893187630 92.81797155461835303 1.267914553968893187630 41.52010637585765807
1.596209851975103788391 102.60939129818416404 1.596209851975103788391 44.88831137340456223
2.009509145207672986544 113.15938939046394296 2.009509145207672986544 48.49962055903863956
2.529822128134711078928 124.49682958295559843 2.529822128134711078928 52.41607594351034294
3.184857364427998049905 136.69212573175948933 3.184857364427998049905 56.72364993778602127
4.009497869018190385759 149.79912122335662161 4.009497869018190385759 61.44383273494853626
5.009497869018204596614 163.40001795943416596 5.009497869018204596614 66.42949243710884843
6.009497869018204596614 175.22491725660543693 6.009497869018204596614 70.80626203026118048
7.009497869018204596614 185.73348206491635892 7.009497869018204596614 74.70438057303461221
8.009497869018204596614 195.21418808373107368 8.009497869018204596614 78.19769151259046680
9.009497869018204596614 203.86206831412988549 9.009497869018204596614 81.35119664560555464
10.009497869018190385759 211.81673041535498214 10.009497869018190385759 84.20777970163959480
11.009497869018190385759 219.18253540180285199 11.009497869018190385759 86.78496856308004226
12.009497869018190385759 226.04023084042549385 12.009497869018190385759 89.13914206291337905
13.009497869018190385759 232.45366293230867427 13.009497869018190385759 91.29519351448273312
14.009497869018190385759 238.47515858019389157 14.009497869018190385759 93.27127363804433458
15.009497869018190385759 244.14691502732264894 15.009497869018190385759 95.08907023768577460
16.009497869018204596614 249.50395569915428950 16.009497869018204596614 96.76738572169175256
17.009497869018204596614 254.57700598432970196 17.009497869018204596614 98.32355162366739876
18.009497869018204596614 259.39268764455380278 18.009497869018204596614 99.77610669047555803
19.009497869018204596614 263.97361512415324114 19.009497869018204596614 101.12891975443467629
20.009497869018204596614 268.34023735778680475 20.009497869018204596614 102.38931953350838455
21.009497869018204596614 272.50925460394989841 21.009497869018204596614 103.56320338140551485
22.009497869018190385759 276.49493384112190597 22.009497869018190385759 104.66103845847855780
23.009497869018190385759 280.31036577793230435 23.009497869018190385759 105.68630520339473833
24.009497869018190385759 283.96764019491808995 24.009497869018190385759 106.65062509721711592
25.009497869018190385759 287.47812190387435294 25.009497869018190385759 107.55896487673165041
26.009497869018190385759 290.85180905412573793 26.009497869018190385759 108.41636117964307573
27.009497869018204596614 294.09782396878108557 27.009497869018204596614 109.22930608697811294
28.009497869018190385759 297.22407313494528580 28.009497869018190385759 109.99939816316967267
29.009497869018190385759 300.23764186223894512 29.009497869018190385759 110.72282483093252381
30.009497869018190385759 303.14511026540873218 30.009497869018190385759 111.41537994179979876
31.009497869018190385759 305.95250626792557114 31.009497869018190385759 112.07133660395737706
32.009497869018190385759 308.66538153736547656 32.009497869018190385759 112.69337004243236322
33.009497869018218807469 311.28889874478562660 33.009497869018218807469 113.27971827093927004
34.009497869018190385759 313.82798213590547221 34.009497869018190385759 113.84439597397373234
35.009497869018218807469 316.28702912046145457 35.009497869018218807469 114.38018716202314806
36.009497869018190385759 318.67010603590728124 36.009497869018190385759 114.89642725107360377
37.009497869018218807469 320.98098002602273482 37.009497869018218807469 115.39158261760917412
38.009497869018190385759 323.22323684765757434 38.009497869018190385759 115.86776724896304813
39.009497869018190385759 325.40015815276103694 39.009497869018190385759 116.32712532358193869
40.009497869018190385759 327.51481658632542349 40.009497869018190385759 116.76720749869920724
41.009497869018190385759 329.57016096075693667 41.009497869018190385759 117.19473297609957285
42.009497869018190385759 331.56889252406722335 42.009497869018190385759 117.59927999385516273
43.009497869018190385759 333.51356036218192003 43.009497869018190385759 117.99737894613394928
44.009497869018218807469 335.40661958376398388 44.009497869018218807469 118.36652189115540068
46.009497869018218807469 339.04702926756010584 46.009497869018218807469 119.07140440084819488
48.009497869018218807469 342.50578892846601775 48.009497869018218807469 119.71865033926333410
50.009497869018218807469 345.79536746757031551 50.009497869018218807469 120.27729066286428861
52.009497869018190385759 348.92819839778570667 52.009497869018190385759 120.77314433898928314
54.009497869018190385759 351.91611090212978752 54.009497869018190385759 121.21649496083202280
56.009497869018190385759 354.76847872407762452 56.009497869018190385759 121.60912355189098832
58.009497869018190385759 357.49338436809250652 58.009497869018190385759 121.95316533624219346
60.009497869018190385759 360.09887244030664988 60.009497869018190385759 122.31314176872625410
62.009497869018190385759 362.59170658400813636 62.009497869018190385759 122.65683152360060149
64.009497869018190385759 364.97897582462042010 64.009497869018190385759 122.98414386643212026
66.009497869018218807469 367.27023795511803428 66.009497869018218807469 123.32986170826221439
68.009497869018218807469 369.47376710981382075 68.009497869018218807469 123.67659892272538968
70.009497869018218807469 371.59447990120520444 70.009497869018218807469 123.96269990687791562
72.009497869018218807469 373.63751720946277146 72.009497869018218807469 124.15800228652976500
74.009497869018190385759 375.60764613538617596 74.009497869018190385759 124.33499811498444387
76.009497869018190385759 377.50870687203047282 76.009497869018190385759 124.48926768063053316
78.009497869018190385759 379.34562906118037517 78.009497869018190385759 124.67885471916670781
80.009497869018190385759 381.12146352244201353 80.009497869018190385759 124.77327614100428832
82.009497869018190385759 382.83616131672681604 82.009497869018190385759 124.90096300337026491
84.009497869018190385759 384.49049930809530906 84.009497869018190385759 125.00103447706675297
86.009497869018190385759 386.08584679358267522 86.009497869018190385759 124.97474118894399453
88.009497869018218807469 387.62620998362609726 88.009497869018218807469 124.98747257040511727
91.009497869018190385759 389.83729597917613319 91.009497869018190385759 124.93948626825731196
94.009497869018218807469 391.93685923134916038 94.009497869018218807469 124.98120837962889595
97.009497869018190385759 393.94003019714523361 97.009497869018190385759 125.17251926670155626
99.504748934509109403734 395.54356531111756112 99.504748934509109403734 125.26661459477664096
nan nan nan nan

