Time Pressure difference Time.1 Pressure.1 difference.1
(hr) (psi) (hr) (psi)
0.000200000000006639311 0.27166632837012095 0.000200000000006639311 0.21453332881431766
0.000399999999999067768 0.49309112761677121 0.000399999999999067768 0.42436543429100576
0.000600000000005707079 0.69003966891168744 0.000600000000005707079 0.56836313588453558
0.000799999999998135536 0.87041133613229160 0.000799999999998135536 0.69777523498007565
0.001007140329434719206 1.04412449987588762 0.001007140329434719206 0.82004793090250183
0.001267914553963578328 1.24805345691180514 0.001267914553963578328 0.96043760619195973
0.001596209851982166583 1.48641660428914801 0.001596209851982166583 1.12004579663480053
0.002009509145224797066 1.76384515760471738 0.002009509145224797066 1.30073536362737352
0.002529822128138903281 2.08541502720160565 0.002529822128138903281 1.50452784658437677
0.003184857364431081805 2.45668786210851797 0.003184857364431081805 1.73364828950867955
0.004009497869020606231 2.88376350620467070 0.004009497869020606231 1.99057900349032302
0.005047658755842121536 3.37334571142879636 0.005047658755842121536 2.27812027171025999
0.006354625877790454069 3.93282242368569435 0.006354625877790454069 2.59945572340815367
0.008000000000009777068 4.57036142403580747 0.008000000000009777068 2.95822039093630584
0.010071403294347192059 5.29502170500025393 0.010071403294347192059 3.35857013413573613
0.012679145539706837553 6.11688072859936316 0.012679145539706837553 3.80525121607395578
0.015962098519750611558 7.04717734329895862 0.015962098519750611558 4.30366680506057264
0.020095091452091651263 8.09846896202773436 0.020095091452091651263 4.85993465474729813
0.025298221281360611101 9.28480004805738268 0.025298221281360611101 5.48093821206348064
0.031848573644296607199 10.62188143042490651 0.031848573644296607199 6.17440461589466150
0.040094978690177640601 12.12729273769529215 0.040094978690177640601 6.94907264426570404
0.050476587558421215363 13.82073626198997296 0.050476587558421215363 7.81495266845356173
0.063546258777961384112 15.72435513586422751 0.063546258777961384112 8.78346100942866848
0.079999999999998294697 17.86304348320179258 0.079999999999998294697 9.86695685976796355
0.100714032943542974863 20.26454370875409694 0.100714032943542974863 11.07725347766714741
0.126791455396897845276 22.95906105419450682 0.126791455396897845276 12.42316585131455398
0.159620985197506115583 25.97821909291310050 0.159620985197506115583 13.90794794708573789
0.200950914520760193227 29.35347890992334641 0.200950914520760193227 15.52787130981896269
0.252982212813478213320 33.11442127792663115 0.252982212813478213320 17.27307444952694482
0.318485736442795541734 37.28753248076330351 0.318485736442795541734 19.12932981315661252
0.400949786901833249431 41.89526877636890134 0.400949786901833249431 21.08376190048103638
0.504765875584155310207 46.95742598332318352 0.504765875584155310207 23.12676006636929316
0.635462587779443310865 52.49102503588119362 0.635462587779443310865 25.25458712765344416
0.799999999999997157829 58.51279104530041053 0.799999999999997157829 27.47315256988551013
1.007140329435344483500 65.04064949661292871 1.007140329435344483500 29.80272265216249394
1.267914553968893187630 72.09817028199030631 1.267914553968893187630 32.25155268396928676
1.596209851975103788391 79.70384659822653362 1.596209851975103788391 34.86787162943222285
2.009509145207672986544 87.89876344667615626 2.009509145207672986544 37.67302649595016106
2.529822128134711078928 96.70534130944645312 2.529822128134711078928 40.71520962581202241
3.184857364427998049905 106.17827552303641880 3.184857364427998049905 44.06120176655610976
4.009497869018190385759 116.35938998837866620 4.009497869018190385759 47.72769584493281059
5.009497869018204596614 126.92415188137536575 5.009497869018204596614 51.60040428871613472
6.009497869018204596614 136.10937311402381056 6.009497869018204596614 55.00014546089253287
7.009497869018204596614 144.27210585078802296 7.009497869018204596614 58.02808509121382485
8.009497869018204596614 151.63642921930471630 8.009497869018204596614 60.74158251794685270
9.009497869018204596614 158.35383890825332287 9.009497869018204596614 63.19112915484423354
10.009497869018190385759 164.53277789069318260 10.009497869018190385759 65.41003577550226566
11.009497869018190385759 170.25431062063813670 11.009497869018190385759 67.41191750453404552
12.009497869018190385759 175.58115934610182762 12.009497869018190385759 69.24056770041184450
13.009497869018190385759 180.56291784941581113 13.009497869018190385759 70.91532272994302843
14.009497869018190385759 185.24023207318143136 14.009497869018190385759 72.45028151920685389
15.009497869018190385759 189.64587954935404923 15.009497869018190385759 73.86229049315700479
16.009497869018204596614 193.80706540696559159 16.009497869018204596614 75.16595478926329577
17.009497869018204596614 197.74765619109459180 17.009497869018204596614 76.37473701439137130
18.009497869018204596614 201.48833087453542134 18.009497869018204596614 77.50303750185760521
19.009497869018204596614 205.04665566812630573 19.009497869018204596614 78.55386144264616632
20.009497869018204596614 208.43851468082166889 20.009497869018204596614 79.53290156141848399
21.009497869018204596614 211.67688016422965802 21.009497869018204596614 80.44473874272513569
22.009497869018190385759 214.77283427223264312 22.009497869018190385759 81.29750355758407920
23.009497869018190385759 217.73654546815797062 23.009497869018190385759 82.09389950463329910
24.009497869018190385759 220.57740472490917227 24.009497869018190385759 82.84295379602345122
25.009497869018190385759 223.30423988177537353 25.009497869018190385759 83.54852444145397783
26.009497869018190385759 225.92481719630816883 26.009497869018190385759 84.21452374752674075
27.009497869018204596614 228.44622261095878457 27.009497869018204596614 84.84599456483962854
28.009497869018190385759 230.87459764384138339 28.009497869018190385759 85.44417860950385091
29.009497869018190385759 233.21544594743787115 29.009497869018190385759 86.00611438772979511
30.009497869018190385759 235.47387875425579296 30.009497869018190385759 86.54407008183359551
31.009497869018190385759 237.65457837145578424 31.009497869018190385759 87.05359721686707530
32.009497869018190385759 239.76185716514055457 32.009497869018190385759 87.53677382606360879
33.009497869018218807469 241.79972534077722912 33.009497869018218807469 87.99223125219965880
34.009497869018190385759 243.77200790230040184 34.009497869018190385759 88.43085567488340359
35.009497869018218807469 245.68212062351631175 35.009497869018218807469 88.84704193347715773
36.009497869018190385759 247.53322211137623299 36.009497869018190385759 89.24804149448185342
37.009497869018218807469 249.32823856830799514 37.009497869018218807469 89.63266308591056486
38.009497869018190385759 251.06995530090281932 38.009497869018190385759 90.00254878866820718
39.009497869018190385759 252.76092139633703937 39.009497869018190385759 90.35936413519613097
40.009497869018190385759 254.40352359155588147 40.009497869018190385759 90.70120655071372084
41.009497869018190385759 256.00005243412698519 41.009497869018190385759 91.03329530629876842
42.009497869018190385759 257.55260617114481647 42.009497869018190385759 91.34753509504538727
43.009497869018190385759 259.06316485483461065 43.009497869018190385759 91.65676622313125677
44.009497869018218807469 260.53363553874953595 44.009497869018218807469 91.94350520764884038
46.009497869018218807469 263.36139478496500033 46.009497869018218807469 92.49103644929769530
48.009497869018218807469 266.04805383191188639 48.009497869018218807469 92.99379735971815819
50.009497869018218807469 268.60329814177873686 50.009497869018218807469 93.42773213013776967
52.009497869018190385759 271.03678568829815276 52.009497869018190385759 93.81289614716409631
54.009497869018190385759 273.35770502016617911 54.009497869018190385759 94.15727739244302086
56.009497869018190385759 275.57333737550857222 56.009497869018190385759 94.46225931072474680
58.009497869018190385759 277.68996099735676353 58.009497869018190385759 94.72950047896853221
60.009497869018190385759 279.71382469047409813 60.009497869018190385759 95.00911919603419165
62.009497869018190385759 281.65018224674315661 62.009497869018190385759 95.27608691851371248
64.009497869018190385759 283.50454020496829344 64.009497869018190385759 95.53033316666595454
66.009497869018218807469 285.28432276731490447 66.009497869018218807469 95.79887624525630940
68.009497869018218807469 286.99595702903866368 68.009497869018218807469 96.06821114142735496
70.009497869018218807469 288.64326206481996451 70.009497869018218807469 96.29044566269283223
72.009497869018218807469 290.23023115362985891 72.009497869018218807469 96.44215059643327947
74.009497869018190385759 291.76056723402047055 74.009497869018190385759 96.57963555937087108
76.009497869018190385759 293.23725325086940074 76.009497869018190385759 96.69946745428289603
78.009497869018190385759 294.66411839961017449 78.009497869018190385759 96.84673288530552782
80.009497869018190385759 296.04353246389325705 80.009497869018190385759 96.92007656687809458
82.009497869018190385759 297.37545742932678650 82.009497869018190385759 97.01925982838926643
84.009497869018190385759 298.66049674022644922 84.009497869018190385759 97.09699229797561770
86.009497869018190385759 299.89971402477931406 86.009497869018190385759 97.07656847344469497
88.009497869018218807469 301.09622118510344535 88.009497869018218807469 97.08645782238365030
91.009497869018190385759 302.81372537039453618 91.009497869018190385759 97.04918352597846365
94.009497869018218807469 304.44460208896089171 94.009497869018218807469 97.08159198998396278
97.009497869018190385759 306.00060421847217640 97.009497869018190385759 97.23019645398959199
99.504748934509109403734 307.24618140319114445 99.504748934509109403734 97.30328683587005401
nan nan nan nan

