Time Pressure difference Time.1 Pressure.1 difference.1
(hr) (psi) (hr) (psi)
0.000200000000006639311 0.56618309557511182 0.000200000000006639311 0.44711151706161534
0.000399999999999067768 1.02765720989289711 0.000399999999999067768 0.88442515744761008
0.000600000000005707079 1.43812005763837658 0.000600000000005707079 1.18453251684347149
0.000799999999998135536 1.81403484072430898 0.000799999999998135536 1.45424184486501740
0.001007140329434719206 2.17607255581610204 0.001007140329434719206 1.70907185599306466
0.001267914553963578328 2.60108337281619173 0.001267914553963578328 2.00165968393277627
0.001596209851982166583 3.09785890426616861 0.001596209851982166583 2.33430105279963085
0.002009509145224797066 3.67605112285842939 0.002009509145224797066 2.71087837466265658
0.002529822128138903281 4.34623879500895338 0.002529822128138903281 3.13560476437678526
0.003184857364431081805 5.12001302102990241 0.003184857364431081805 3.61311746318164051
0.004009497869020606231 6.01008655966020200 0.004009497869020606231 4.14858988577889853
0.005047658755842121536 7.03043078176281888 0.005047658755842121536 4.74785813636811227
0.006354625877790454069 8.19644299515803532 0.006354625877790454069 5.41755725532727350
0.008000000000009777068 9.52514577158864562 0.008000000000009777068 6.16526305774575878
0.010071403294347192059 11.03541906743043377 0.010071403294347192059 6.99963682160999223
0.012679145539706837553 12.74826544371642889 0.012679145539706837553 7.93057029144385250
0.015962098519750611558 14.68710792108100627 0.015962098519750611558 8.96932427596736304
0.020095091452091651263 16.87811755637556033 0.020095091452091651263 10.12864885989390196
0.025298221281360611101 19.35056458613828312 0.025298221281360611101 11.42288991859958891
0.031848573644296607199 22.13719214004442648 0.031848573644296607199 12.86815167611691102
0.040094978690177640601 25.27463813557056227 0.040094978690177640601 14.48264672589955104
0.050476587558421215363 28.80396435910060049 0.050476587558421215363 16.28723780434714641
0.063546258777961384112 32.77131958222170738 0.063546258777961384112 18.30571780469712806
0.079999999999998294697 37.22858595097195433 0.079999999999998294697 20.56384467035752905
0.100714032943542974863 42.23358174815106736 0.100714032943542974863 23.08623855625956978
0.126791455396897845276 47.84925808491004773 0.126791455396897845276 25.89127088638453600
0.159620985197506115583 54.14152203476281500 0.159620985197506115583 28.98572329158990257
0.200950914520760193227 61.17594202722342800 0.200950914520760193227 32.36182525317410352
0.252982212813478213320 69.01416771007139062 0.252982212813478213320 35.99902432004214603
0.318485736442795541734 77.71139946925437414 0.318485736442795541734 39.86766867601798481
0.400949786901833249431 87.31443866476882931 0.400949786901833249431 43.94092433464739855
0.504765875584155310207 97.86454200262681979 0.504765875584155310207 48.19876163364815369
0.635462587779443310865 109.39718301870566108 0.635462587779443310865 52.63339186417493920
0.799999999999997157829 121.94721872057937162 0.799999999999997157829 57.25713105686418913
1.007140329435344483500 135.55200782938956650 1.007140329435344483500 62.11221636852557282
1.267914553968893187630 150.26067264377419974 1.267914553968893187630 67.21585278995468116
1.596209851975103788391 166.11175505985531231 1.596209851975103788391 72.66855489124658618
2.009509145207672986544 183.19088082811947515 2.009509145207672986544 78.51481222987744957
2.529822128134711078928 201.54477674772485329 2.529822128134711078928 84.85506305192599541
3.184857364427998049905 221.28743403399178646 3.184857364427998049905 91.82848592469170512
4.009497869018190385759 242.50601838699478208 4.009497869018190385759 99.46987077962630508
5.009497869018204596614 264.52416700510940473 5.009497869018204596614 107.54102949891306196
6.009497869018204596614 283.66719817221786570 6.009497869018204596614 114.62647138111248069
7.009497869018204596614 300.67924864229649984 7.009497869018204596614 120.93703715271666965
8.009497869018204596614 316.02732444770981601 8.009497869018204596614 126.59227010749670228
9.009497869018204596614 330.02715959383635891 9.009497869018204596614 131.69740001430156440
10.009497869018190385759 342.90476139836050606 10.009497869018190385759 136.32185026109351611
11.009497869018190385759 354.82907727478789184 11.009497869018190385759 140.49399629449621330
12.009497869018190385759 365.93082742224964932 12.009497869018190385759 144.30510838497050941
13.009497869018190385759 376.31337084504417589 13.009497869018190385759 147.79548568950741583
14.009497869018190385759 386.06141824597631285 14.009497869018190385759 150.99451195124419201
15.009497869018190385759 395.24328167762570274 15.009497869018190385759 153.93729700910290603
16.009497869018204596614 403.91565967993761888 16.009497869018204596614 156.65427960753004299
17.009497869018204596614 412.12829280947750021 17.009497869018204596614 159.17351732905865447
18.009497869018204596614 419.92427836468596070 18.009497869018204596614 161.52502208331068800
19.009497869018204596614 427.34022629899220647 19.009497869018204596614 163.71505702532800797
20.009497869018204596614 434.40924087685266386 20.009497869018204596614 165.75548643174133190
21.009497869018204596614 441.15835772545062810 21.009497869018204596614 167.65585737969817615
22.009497869018190385759 447.61067329633527834 22.009497869018190385759 169.43311489103970757
23.009497869018190385759 453.78737980746939229 23.009497869018190385759 171.09289336012361105
24.009497869018190385759 459.70804909957701057 24.009497869018190385759 172.65400650946943983
25.009497869018190385759 465.39107937977485108 25.009497869018190385759 174.12449486396482712
26.009497869018190385759 470.85265639978246099 26.009497869018190385759 175.51251210933142488
27.009497869018204596614 476.10754805835335901 27.009497869018204596614 176.82856811176858969
28.009497869018190385759 481.16855396800588096 28.009497869018190385759 178.07525074690988731
29.009497869018190385759 486.04714435774434378 29.009497869018190385759 179.24638792956770317
30.009497869018190385759 490.75397160933675877 30.009497869018190385759 180.36754792755971266
31.009497869018190385759 495.29879417602467129 31.009497869018190385759 181.42945962019959438
32.009497869018190385759 499.69059951239569273 32.009497869018190385759 182.43645386179613865
33.009497869018218807469 503.93774533638617186 33.009497869018218807469 183.38567821720116058
34.009497869018190385759 508.04820338516816491 34.009497869018190385759 184.29982070559813678
35.009497869018218807469 512.02909251443111316 35.009497869018218807469 185.16719954360192446
36.009497869018190385759 515.88699561529813309 36.009497869018190385759 186.00292760064908748
37.009497869018218807469 519.62801122180087532 37.009497869018218807469 186.80452213231831138
38.009497869018190385759 523.25794422524597849 38.009497869018190385759 187.57540541937393641
39.009497869018190385759 526.78210720918843890 39.009497869018190385759 188.31904861821249142
40.009497869018190385759 530.20547440109316994 40.009497869018190385759 189.03148654961833586
41.009497869018190385759 533.53281955897489297 41.009497869018190385759 189.72359675985629224
42.009497869018190385759 536.76851566509617442 42.009497869018190385759 190.37850772144972211
43.009497869018190385759 539.91668937035626641 43.009497869018190385759 191.02298007250720957
44.009497869018218807469 542.98131518823504393 44.009497869018218807469 191.62057627388497849
46.009497869018218807469 548.87468258922615405 46.009497869018218807469 192.76169278685406994
48.009497869018218807469 554.47398135062007896 48.009497869018218807469 193.80950290857148843
50.009497869018218807469 559.79939706183790804 50.009497869018218807469 194.71387163570770440
52.009497869018190385759 564.87105802327562287 52.009497869018190385759 195.51659664315508280
54.009497869018190385759 569.70811420090694810 54.009497869018190385759 196.23432578051210839
56.009497869018190385759 574.32574051157394024 56.009497869018190385759 196.86994230179084298
58.009497869018190385759 578.73702151785573733 58.009497869018190385759 197.42690286738303485
60.009497869018190385759 582.95498042967972196 60.009497869018190385759 198.00965963285628391
62.009497869018190385759 586.99056673853942812 62.009497869018190385759 198.56605030680893265
64.009497869018190385759 590.85525668885918549 64.009497869018190385759 199.09592800155616032
66.009497869018218807469 594.56452315057219948 66.009497869018218807469 199.65560189431923277
68.009497869018218807469 598.13176091098716824 68.009497869018218807469 200.21692602372240799
70.009497869018218807469 601.56492935004541778 70.009497869018218807469 200.68008768953740173
72.009497869018218807469 604.87235090896695056 72.009497869018218807469 200.99625778508993790
74.009497869018190385759 608.06174292697721739 74.009497869018190385759 201.28279186672619971
76.009497869018190385759 611.13932219573712246 76.009497869018190385759 201.53253497481387058
78.009497869018190385759 614.11306918797265553 78.009497869018190385759 201.83945264881430148
80.009497869018190385759 616.98792279858128040 80.009497869018190385759 201.99230910667117200
82.009497869018190385759 619.76380380130717640 82.009497869018190385759 202.19901814701685794
84.009497869018190385759 622.44196984178040566 84.009497869018190385759 202.36102133129497815
86.009497869018190385759 625.02463764042784078 86.009497869018190385759 202.31845579045014460
88.009497869018218807469 627.51829275026216237 88.009497869018218807469 202.33906630272480243
91.009497869018190385759 631.09776408970071770 91.009497869018190385759 202.26138248872146619
94.009497869018218807469 634.49669407325484372 94.009497869018218807469 202.32892536230303904
97.009497869018190385759 637.73957701606821047 97.009497869018190385759 202.63863373121193945
99.504748934509109403734 640.33549955992168634 99.504748934509109403734 202.79096228410304548
nan nan nan nan

