Time Pressure difference Time.1 Pressure.1 difference.1
(hr) (psi) (hr) (psi)
0.000200000000006639311 0.21390549687086627 0.000200000000006639311 0.16891993413650713
0.000399999999999067768 0.38825165889451374 0.000399999999999067768 0.33413820410296480
0.000600000000005707079 0.54332562715709953 0.000600000000005707079 0.44751957194646846
0.000799999999998135536 0.68534724363687449 0.000799999999998135536 0.54941648174833058
0.001007140329434719206 0.82212606649106101 0.001007140329434719206 0.64569194559379239
0.001267914553963578328 0.98269629668055691 0.001267914553963578328 0.75623241422123944
0.001596209851982166583 1.17037942907813752 0.001596209851982166583 0.88190521837833602
0.002009509145224797066 1.38882200493642460 0.002009509145224797066 1.02417714379071234
0.002529822128138903281 1.64202071067042299 0.002529822128138903281 1.18463991658629664
0.003184857364431081805 1.93435469516488467 0.003184857364431081805 1.36504549898230154
0.004009497869020606231 2.27062687287610743 0.004009497869020606231 1.56734842097252103
0.005047658755842121536 2.65611566530725307 0.005047658755842121536 1.79375357842606920
0.006354625877790454069 3.09663821678055839 0.006354625877790454069 2.04676770744987779
0.008000000000009777068 3.59862570070109156 0.008000000000009777068 2.32925297136807297
0.010071403294347192059 4.16921101538571381 0.010071403294347192059 2.64448162430781064
0.012679145539706837553 4.81632898490183514 0.012679145539706837553 2.99619079396477384
0.015962098519750611558 5.54882888946670327 0.015962098519750611558 3.38863484417152616
0.020095091452091651263 6.37659822477417482 0.020095091452091651263 3.82663079123794292
0.025298221281360611101 7.31069536494237759 0.025298221281360611101 4.31559854547988930
0.031848573644296607199 8.36349075246073248 0.031848573644296607199 4.86162232606659028
0.040094978690177640601 9.54882629112923631 0.040094978690177640601 5.47158289980734125
0.050476587558421215363 10.88221523432387983 0.050476587558421215363 6.15336226464684710
0.063546258777961384112 12.38109271211739504 0.063546258777961384112 6.91594943966696452
0.079999999999998294697 14.06505993887617656 0.079999999999998294697 7.76907584519112948
0.100714032943542974863 15.95596081740684724 0.100714032943542974863 8.72204304199492775
0.126791455396897845276 18.07757844687744964 0.126791455396897845276 9.78179180348832844
0.159620985197506115583 20.45481269698998972 0.159620985197506115583 10.95088424805582505
0.200950914520760193227 23.11243549683216969 0.200950914520760193227 12.22638465282474485
0.252982212813478213320 26.07373824920858496 0.252982212813478213320 13.60052824647332059
0.318485736442795541734 29.35957580845148129 0.318485736442795541734 15.06211249306957534
0.400949786901833249431 32.98762985429046068 0.400949786901833249431 16.60099944033203201
0.504765875584155310207 36.97348728126148387 0.504765875584155310207 18.20962182795900119
0.635462587779443310865 41.33055008666345742 0.635462587779443310865 19.88503706079255196
0.799999999999997157829 46.07198734174355081 0.799999999999997157829 21.63189816834443135
1.007140329435344483500 51.21191327186578945 1.007140329435344483500 23.46616246209990564
1.267914553968893187630 56.76888641362320698 1.267914553968893187630 25.39433003387301113
1.596209851975103788391 62.75746799907089013 1.596209851975103788391 27.45437555868845791
2.009509145207672986544 69.21000766712586483 2.009509145207672986544 29.66310731106356258
2.529822128134711078928 76.14415892823238607 2.529822128134711078928 32.05847113060432463
3.184857364427998049905 83.60298797024128703 3.184857364427998049905 34.69304905450796639
4.009497869018190385759 91.61942622916731693 4.009497869018190385759 37.57998481248213807
5.009497869018204596614 99.93794201874648309 5.009497869018204596614 40.62929029275078818
6.009497869018204596614 107.17023069959351744 6.009497869018204596614 43.30618929981491050
7.009497869018204596614 113.59742913952234744 7.009497869018204596614 45.69033802742770689
8.009497869018204596614 119.39597347407871553 8.009497869018204596614 47.82690025361703334
9.009497869018204596614 124.68514886000320985 9.009497869018204596614 49.75563206818343076
10.009497869018190385759 129.55034147000839084 10.009497869018190385759 51.50276181388846197
11.009497869018190385759 134.05538009148378364 11.009497869018190385759 53.07900981081302660
12.009497869018190385759 138.24965116737459425 12.009497869018190385759 54.51885821270746391
13.009497869018190385759 142.17220400760078292 13.009497869018190385759 55.83753214951121180
14.009497869018190385759 145.85504254360316168 14.009497869018190385759 57.04613287844091474
15.009497869018190385759 149.32397525264559590 15.009497869018190385759 58.15792499110726510
16.009497869018204596614 152.60042299567149371 16.009497869018204596614 59.18440832706011889
17.009497869018204596614 155.70317788878242027 17.009497869018204596614 60.13618311647171311
18.009497869018204596614 158.64852220728607790 18.009497869018204596614 61.02458793954675542
19.009497869018204596614 161.45028729009010249 19.009497869018204596614 61.85198903311158602
20.009497869018204596614 164.12098001737595609 20.009497869018204596614 62.62286875279914256
21.009497869018204596614 166.67081452183504098 21.009497869018204596614 63.34083401004292568
22.009497869018190385759 169.10851670500559862 22.009497869018190385759 64.01228667968652530
23.009497869018190385759 171.44209304385336168 23.009497869018190385759 64.63935545107808878
24.009497869018190385759 173.67893783246353223 24.009497869018190385759 65.22914819920538321
25.009497869018190385759 175.82600196298668038 25.009497869018190385759 65.78470265600465439
26.009497869018190385759 177.88940045597161088 26.009497869018190385759 66.30909930587969825
27.009497869018204596614 179.87471266330166486 27.009497869018204596614 66.80630880455831289
28.009497869018190385759 181.78677431302463674 28.009497869018190385759 67.27730885841774011
29.009497869018190385759 183.62991888851999533 29.009497869018190385759 67.71976763706763336
30.009497869018190385759 185.40817088828083570 30.009497869018190385759 68.14334490088299390
31.009497869018190385759 187.12521708219765060 31.009497869018190385759 68.54453799552383941
32.009497869018190385759 188.78445295479525612 32.009497869018190385759 68.92498312940055882
33.009497869018218807469 190.38903607439701204 33.009497869018218807469 69.28360264483944775
34.009497869018190385759 191.94197818475521444 34.009497869018190385759 69.62896813653203765
35.009497869018218807469 193.44596880870327027 35.009497869018218807469 69.95666619528456920
36.009497869018190385759 194.90349498021916474 36.009497869018190385759 70.27240650383266996
37.009497869018218807469 196.31686074186870883 37.009497869018218807469 70.57525107465389169
38.009497869018190385759 197.68825919720617890 38.009497869018190385759 70.86649285462893033
39.009497869018190385759 199.01969745459246042 39.009497869018190385759 71.14744325598387320
40.009497869018190385759 200.31305479054751117 40.009497869018190385759 71.41660422334236102
41.009497869018190385759 201.57013474369341566 41.009497869018190385759 71.67808532295019575
42.009497869018190385759 202.79258943849484353 42.009497869018190385759 71.92551244633246199
43.009497869018190385759 203.98197793476461470 43.009497869018190385759 72.16899583456830669
44.009497869018218807469 205.13980181438924433 44.009497869018218807469 72.39476928733098759
46.009497869018218807469 207.36633187507760567 46.009497869018218807469 72.82588617619934723
48.009497869018218807469 209.48176201251007456 48.009497869018218807469 73.22175165940424790
50.009497869018218807469 211.49371839668094708 50.009497869018218807469 73.56342459779538956
52.009497869018190385759 213.40980555363660187 52.009497869018190385759 73.86669626540724209
54.009497869018190385759 215.23725839204669796 54.009497869018190385759 74.13785626461050526
56.009497869018190385759 216.98181003632333841 56.009497869018190385759 74.37799389652860782
58.009497869018190385759 218.64840386941409633 58.009497869018190385759 74.58841509675794157
60.009497869018190385759 220.24196009506957239 60.009497869018190385759 74.80858217070915828
62.009497869018190385759 221.76661546063655805 62.009497869018190385759 75.01878806434373814
64.009497869018190385759 223.22670572213627338 64.009497869018190385759 75.21897728309913589
66.009497869018218807469 224.62807657146055362 66.009497869018218807469 75.43042358563405969
68.009497869018218807469 225.97578859529446049 68.009497869018218807469 75.64249335201171220
70.009497869018218807469 227.27284886879519377 70.009497869018218807469 75.81747707553151372
72.009497869018218807469 228.52240163264781359 72.009497869018218807469 75.93692698831311816
74.009497869018190385759 229.72736251837591226 74.009497869018190385759 76.04518033529902254
76.009497869018190385759 230.89008024659574403 76.009497869018190385759 76.13953395348909226
78.009497869018190385759 232.01356986137528793 78.009497869018190385759 76.25548827651392969
80.009497869018190385759 233.09969729049538500 80.009497869018190385759 76.31323785756522682
82.009497869018190385759 234.14843260206339437 82.009497869018190385759 76.39133308917566012
84.009497869018190385759 235.16025093798208445 84.009497869018190385759 76.45253832807892991
86.009497869018190385759 236.13598978119304661 86.009497869018190385759 76.43645695222163283
88.009497869018218807469 237.07809939107440300 88.009497869018218807469 76.44424365921329922
91.009497869018190385759 238.43043329397889352 91.009497869018190385759 76.41489450526809435
94.009497869018218807469 239.71455818686874295 94.009497869018218807469 76.44041238463691457
97.009497869018190385759 240.93972808790914542 97.009497869018190385759 76.55742103970676737
99.504748934509109403734 241.92047460952198890 99.504748934509109403734 76.61497117684160685
nan nan nan nan

