Time Pressure difference Time.1 Pressure.1 difference.1
(hr) (psi) (hr) (psi)
0.000200000000006639311 0.04697034649389942 0.000200000000006639311 0.03709221105668110
0.000399999999999067768 0.08525407346645110 0.000399999999999067768 0.07337159377928604
0.000600000000005707079 0.11930592406417025 0.000600000000005707079 0.09826839265293372
0.000799999999998135536 0.15049167961165791 0.000799999999998135536 0.12064338174889157
0.001007140329434719206 0.18052619857667218 0.001007140329434719206 0.14178398805323633
0.001267914553963578328 0.21578494348475136 0.001267914553963578328 0.16605696929487154
0.001596209851982166583 0.25699726335840412 0.001596209851982166583 0.19365277792283936
0.002009509145224797066 0.30496388238960065 0.002009509145224797066 0.22489349744959264
0.002529822128138903281 0.36056241124513738 0.002529822128138903281 0.26012864637206512
0.003184857364431081805 0.42475444344866908 0.003184857364431081805 0.29974292855991186
0.004009497869020606231 0.49859462490454581 0.004009497869020606231 0.34416552864085026
0.005047658755842121536 0.58324201552740873 0.005047658755842121536 0.39388060772560568
0.006354625877790454069 0.67997397045033026 0.006354625877790454069 0.44943860638365279
0.008000000000009777068 0.79020267611834061 0.008000000000009777068 0.51146801151702492
0.010071403294347192059 0.91549440693929618 0.010071403294347192059 0.58068735964029072
0.012679145539706837553 1.05759152784194588 0.012679145539706837553 0.65791726633054382
0.015962098519750611558 1.21843720421524071 0.015962098519750611558 0.74409192423944492
0.020095091452091651263 1.40020257754685140 0.020095091452091651263 0.84026907582079446
0.025298221281360611101 1.60531589615945403 0.025298221281360611101 0.94763884974929324
0.031848573644296607199 1.83649351834449304 0.031848573644296607199 1.06753724667337591
0.040094978690177640601 2.09677491259217641 0.040094978690177640601 1.20147517681229465
0.050476587558421215363 2.38956654997022877 0.050476587558421215363 1.35118340529337289
0.063546258777961384112 2.71869691601390873 0.063546258777961384112 1.51863578200402194
0.079999999999998294697 3.08847013494610412 0.079999999999998294697 1.70596917668885339
0.100714032943542974863 3.50368279076589539 0.100714032943542974863 1.91522606856861888
0.126791455396897845276 3.96955728507101346 0.126791455396897845276 2.14793054438616071
0.159620985197506115583 4.49156124503637777 0.159620985197506115583 2.40464520580454355
0.200950914520760193227 5.07513420405216742 0.200950914520760193227 2.68472541337991366
0.252982212813478213320 5.72539059478170742 0.252982212813478213320 2.98646614314250947
0.318485736442795541734 6.44690982144038482 0.318485736442795541734 3.30740749105978749
0.400949786901833249431 7.24357450806378189 0.400949786901833249431 3.64532331924204867
0.504765875584155310207 8.11880729618204633 0.504765875584155310207 3.99855197409188756
0.635462587779443310865 9.07555105760562597 0.635462587779443310865 4.36644730711765217
0.799999999999997157829 10.11669751717810861 0.799999999999997157829 4.75003105180263496
1.007140329435344483500 11.24534594100316909 1.007140329435344483500 5.15280718752342182
1.267914553968893187630 12.46557149735346393 1.267914553968893187630 5.57620303414422214
1.596209851975103788391 13.78057160810458726 1.596209851975103788391 6.02855724434108442
2.009509145207672986544 15.19744975479915006 2.009509145207672986544 6.51356065584185107
2.529822128134711078928 16.72008237593233204 2.529822128134711078928 7.03954558950955533
3.184857364427998049905 18.35792614183339566 3.184857364427998049905 7.61805824935783171
4.009497869018190385759 20.11821228771032821 4.009497869018190385759 8.25198479561922227
5.009497869018204596614 21.94482999818172075 5.009497869018204596614 8.92156522748830305
6.009497869018204596614 23.53292899634991286 6.009497869018204596614 9.50937094417300699
7.009497869018204596614 24.94424260036989338 7.009497869018204596614 10.03289321670519385
8.009497869018204596614 26.21751346315081577 8.009497869018204596614 10.50204931385062501
9.009497869018204596614 27.37893476451109009 9.009497869018204596614 10.92556905948241486
10.009497869018190385759 28.44725599044695130 10.009497869018190385759 11.30921179296067258
11.009497869018190385759 29.43649295777388630 11.009497869018190385759 11.65533153115775633
12.009497869018190385759 30.35749016731666927 12.009497869018190385759 11.97150002296840299
13.009497869018190385759 31.21882224499245240 13.009497869018190385759 12.26106047199949423
14.009497869018190385759 32.02751676031642347 14.009497869018190385759 12.52645054304043803
15.009497869018190385759 32.78924085666401567 15.009497869018190385759 12.77058293573275272
16.009497869018204596614 33.50869822456881764 16.009497869018204596614 12.99598283739599047
17.009497869018204596614 34.19001532275934352 17.009497869018204596614 13.20497789501159325
18.009497869018204596614 34.83676748765332576 18.009497869018204596614 13.40005788583519220
19.009497869018204596614 35.45199186785360723 19.009497869018204596614 13.58174239896218971
20.009497869018204596614 36.03843478126356104 20.009497869018204596614 13.75101569052562667
21.009497869018204596614 36.59833909381541162 21.009497869018204596614 13.90866978262070397
22.009497869018190385759 37.13362087884395635 22.009497869018190385759 14.05611042818042478
23.009497869018190385759 37.64603823514880787 23.009497869018190385759 14.19380505453940167
24.009497869018190385759 38.13721483561513281 24.009497869018190385759 14.32331444136854159
25.009497869018190385759 38.60867698890508848 25.009497869018190385759 14.44530562772802362
26.009497869018190385759 39.06176745917477433 26.009497869018190385759 14.56045504046023176
27.009497869018204596614 39.49771138600689113 27.009497869018204596614 14.66963457429470274
28.009497869018190385759 39.91757062066416495 28.009497869018190385759 14.77305891846561892
29.009497869018190385759 40.32229672922991170 29.009497869018190385759 14.87021603900001310
30.009497869018190385759 40.71277342947413302 30.009497869018190385759 14.96322707022356546
31.009497869018190385759 41.08981027917693041 31.009497869018190385759 15.05132288329009960
32.009497869018190385759 41.45415287434672535 32.009497869018190385759 15.13486276431940958
33.009497869018218807469 41.80649456826521515 33.009497869018218807469 15.21361007631489315
34.009497869018190385759 42.14749669338839055 34.009497869018190385759 15.28944700920881417
35.009497869018218807469 42.47774982743039374 35.009497869018218807469 15.36140444644231096
36.009497869018190385759 42.79780008467720620 36.009497869018190385759 15.43073614624218948
37.009497869018218807469 43.10815339732427987 37.009497869018218807469 15.49723614102192215
38.009497869018190385759 43.40929133707198417 38.009497869018190385759 15.56118834196599643
39.009497869018190385759 43.70165463394612004 39.009497869018190385759 15.62288071496381647
40.009497869018190385759 43.98565594807274692 40.009497869018190385759 15.68198431017012950
41.009497869018190385759 44.26169130870420076 41.009497869018190385759 15.73940152492081346
42.009497869018190385759 44.53012349688017935 42.009497869018190385759 15.79373270334896873
43.009497869018190385759 44.79129485807887789 43.009497869018190385759 15.84719789839185289
44.009497869018218807469 45.04553511651277375 44.009497869018218807469 15.89677426487386569
46.009497869018218807469 45.53444676188647122 46.009497869018218807469 15.99144088142062792
48.009497869018218807469 45.99896257841467673 48.009497869018218807469 16.07836683322229732
50.009497869018218807469 46.44075715535427662 50.009497869018218807469 16.15339293838830770
52.009497869018190385759 46.86150032928519948 52.009497869018190385759 16.21998671703304495
54.009497869018190385759 47.26278077451470949 54.009497869018190385759 16.27952926878687734
56.009497869018190385759 47.64585739670008024 56.009497869018190385759 16.33225978736829731
58.009497869018190385759 48.01181568645888831 58.009497869018190385759 16.37846503608334459
60.009497869018190385759 48.36173604461468756 60.009497869018190385759 16.42681032828628673
62.009497869018190385759 48.69652683705373164 62.009497869018190385759 16.47296829899535808
64.009497869018190385759 49.01714012889639349 64.009497869018190385759 16.51692676246093683
66.009497869018218807469 49.32485954388155136 66.009497869018218807469 16.56335710782468951
68.009497869018218807469 49.62079630875901870 68.009497869018218807469 16.60992435622809182
70.009497869018218807469 49.90561073083336652 70.009497869018218807469 16.64834808186745363
72.009497869018218807469 50.17999323684254875 72.009497869018218807469 16.67457743957023908
74.009497869018190385759 50.44458405448017402 74.009497869018190385759 16.69834820419028887
76.009497869018190385759 50.69989892655218711 76.009497869018190385759 16.71906680284330449
78.009497869018190385759 50.94659991021297429 78.009497869018190385759 16.74452858297338409
80.009497869018190385759 51.18509673441145225 80.009497869018190385759 16.75720949988079411
82.009497869018190385759 51.41538282656585324 82.009497869018190385759 16.77435800771215924
84.009497869018190385759 51.63756252050644946 84.009497869018190385759 16.78779773376214024
86.009497869018190385759 51.85181971456464822 86.009497869018190385759 16.78426651176379991
88.009497869018218807469 52.05869244789170835 88.009497869018218807469 16.78597635246820019
91.009497869018190385759 52.35564410609624986 91.009497869018190385759 16.77953173112711482
94.009497869018218807469 52.63761811818482528 94.009497869018218807469 16.78513506368881636
97.009497869018190385759 52.90664652375453159 97.009497869018190385759 16.81082835886735793
99.504748934509109403734 53.12200332671996250 99.504748934509109403734 16.82346548096818850
nan nan nan nan

