Time Pressure difference Time.1 Pressure.1 difference.1
(hr) (psi) (hr) (psi)
0.000200000000006639311 0.01586836030199305 0.000200000000006639311 0.01253115238401388
0.000399999999999067768 0.02880205184677402 0.000399999999999067768 0.02478770060111015
0.000600000000005707079 0.04030605542708454 0.000600000000005707079 0.03319878130166680
0.000799999999998135536 0.05084178365258713 0.000799999999998135536 0.04075789923949040
0.001007140329434719206 0.06098858060022708 0.001007140329434719206 0.04789999596393119
0.001267914553963578328 0.07290031874484842 0.001267914553963578328 0.05610032746448363
0.001596209851982166583 0.08682339978324463 0.001596209851982166583 0.06542323578474303
0.002009509145224797066 0.10302833864513536 0.002009509145224797066 0.07597753292215967
0.002529822128138903281 0.12181162542065455 0.002529822128138903281 0.08788129945002200
0.003184857364431081805 0.14349812278671253 0.003184857364431081805 0.10126450289186212
0.004009497869020606231 0.16844413003531955 0.004009497869020606231 0.11627213805434131
0.005047658755842121536 0.19704122146196240 0.005047658755842121536 0.13306777288027222
0.006354625877790454069 0.22972093596294940 0.006354625877790454069 0.15183736702150430
0.008000000000009777068 0.26696036355349345 0.008000000000009777068 0.17279324713413002
0.010071403294347192059 0.30928865099300545 0.010071403294347192059 0.19617816204063879
0.012679145539706837553 0.35729443508173847 0.012679145539706837553 0.22226934673329185
0.015962098519750611558 0.41163419061325690 0.015962098519750611558 0.25138240683765029
0.020095091452091651263 0.47304141133339572 0.020095091452091651263 0.28387468777729546
0.025298221281360611101 0.54233645140522091 0.025298221281360611101 0.32014826005043695
0.031848573644296607199 0.62043699944070707 0.031848573644296607199 0.36065447522749189
0.040094978690177640601 0.70836990290276247 0.040094978690177640601 0.40590377595009952
0.050476587558421215363 0.80728599661156386 0.050476587558421215363 0.45648088016668004
0.063546258777961384112 0.91847868784253672 0.063546258777961384112 0.51305262905541282
0.079999999999998294697 1.04340207261692708 0.079999999999998294697 0.57634093807055853
0.100714032943542974863 1.18367661850199157 0.100714032943542974863 0.64703583397588482
0.126791455396897845276 1.34106665036182870 0.126791455396897845276 0.72565221094127064
0.159620985197506115583 1.51741933953931674 0.159620985197506115583 0.81238013709612955
0.200950914520760193227 1.71457236623384035 0.200950914520760193227 0.90700182884456559
0.252982212813478213320 1.93425357931814434 0.252982212813478213320 1.00894126457517208
0.318485736442795541734 2.17801007481094100 0.318485736442795541734 1.11736739562830678
0.400949786901833249431 2.44715355002154800 0.400949786901833249431 1.23152814839258395
0.504765875584155310207 2.74284030276420498 0.504765875584155310207 1.35086215340942117
0.635462587779443310865 3.06606454648838733 0.635462587779443310865 1.47515111726947690
0.799999999999997157829 3.41780321526287434 0.799999999999997157829 1.60474022020359275
1.007140329435344483500 3.79910335844701708 1.007140329435344483500 1.74081323902818297
1.267914553968893187630 4.21134172207887225 1.267914553968893187630 1.88385237640007519
1.596209851975103788391 4.65559851625155030 1.596209851975103788391 2.03667474470982590
2.009509145207672986544 5.13427356581052319 2.009509145207672986544 2.20052724859521964
2.529822128134711078928 5.64867647835551701 2.529822128134711078928 2.37822486132079591
3.184857364427998049905 6.20200207494371547 3.184857364427998049905 2.57366832748575458
4.009497869018190385759 6.79669334044267881 4.009497869018190385759 2.78783270122271087
5.009497869018204596614 7.41379391830463508 5.009497869018204596614 3.01404230658388661
6.009497869018204596614 7.95031385011821445 6.009497869018204596614 3.21262531897736769
7.009497869018204596614 8.42710898661144903 7.009497869018204596614 3.38949095158959279
8.009497869018204596614 8.85726806187527593 8.009497869018204596614 3.54798963305764348
9.009497869018204596614 9.24964012314563711 9.009497869018204596614 3.69107062820351883
10.009497869018190385759 9.61055945623207819 10.009497869018190385759 3.82067965978401070
11.009497869018190385759 9.94476113438306975 11.009497869018190385759 3.93761200376951193
12.009497869018190385759 10.25590884030968652 12.009497869018190385759 4.04442568343527142
13.009497869018190385759 10.54689940709204521 13.009497869018190385759 4.14225015945928909
14.009497869018190385759 10.82010701362041161 14.009497869018190385759 4.23190896724339183
15.009497869018190385759 11.07744623535946538 15.009497869018190385759 4.31438612693674095
16.009497869018204596614 11.32050615694892493 16.009497869018204596614 4.39053474236350993
17.009497869018204596614 11.55068085228356267 17.009497869018204596614 4.46114118074715993
18.009497869018204596614 11.76917820528828429 18.009497869018204596614 4.52704658305243068
19.009497869018204596614 11.97702427968027372 19.009497869018204596614 4.58842648613587478
20.009497869018204596614 12.17514688556201463 20.009497869018204596614 4.64561340896135988
21.009497869018204596614 12.36430374791061126 21.009497869018204596614 4.69887492656104833
22.009497869018190385759 12.54514218879863385 22.009497869018190385759 4.74868595546636030
23.009497869018190385759 12.71825616052324470 23.009497869018190385759 4.79520441031736588
24.009497869018190385759 12.88419420122133019 24.009497869018190385759 4.83895758154342648
25.009497869018190385759 13.04347195571117801 25.009497869018190385759 4.88017082017838710
26.009497869018190385759 13.19654306053201864 26.009497869018190385759 4.91907264880413209
27.009497869018204596614 13.34382141419151857 27.009497869018204596614 4.95595762645091309
28.009497869018190385759 13.48566575022437952 28.009497869018190385759 4.99089828326541252
29.009497869018190385759 13.62239754365875299 29.009497869018190385759 5.02372163479730194
30.009497869018190385759 13.75431534779531439 30.009497869018190385759 5.05514428048093478
31.009497869018190385759 13.88169266188409878 31.009497869018190385759 5.08490637948989921
32.009497869018190385759 14.00478137646848964 32.009497869018190385759 5.11312931227007095
33.009497869018218807469 14.12381573252203459 33.009497869018218807469 5.13973313389016706
34.009497869018190385759 14.23901915317175337 34.009497869018190385759 5.16535371932730225
35.009497869018218807469 14.35059115791567308 35.009497869018218807469 5.18966366433861914
36.009497869018190385759 14.45871624482338014 36.009497869018190385759 5.21308653589263127
37.009497869018218807469 14.56356533693388045 37.009497869018218807469 5.23555275034524392
38.009497869018190385759 14.66530112738918312 38.009497869018190385759 5.25715822363716079
39.009497869018190385759 14.76407251146828514 39.009497869018190385759 5.27800024154182967
40.009497869018190385759 14.86001890137592696 40.009497869018190385759 5.29796767235477351
41.009497869018190385759 14.95327409077844472 41.009497869018190385759 5.31736538004081538
42.009497869018190385759 15.04396064083789675 42.009497869018190385759 5.33572050788816465
43.009497869018190385759 15.13219420881043220 43.009497869018190385759 5.35378307378103191
44.009497869018218807469 15.21808618801107116 44.009497869018218807469 5.37053184624117019
46.009497869018218807469 15.38325904117786180 46.009497869018218807469 5.40251381129075270
48.009497869018218807469 15.54019006027522920 48.009497869018218807469 5.43188068689942494
50.009497869018218807469 15.68944498491698525 50.009497869018218807469 5.45722734405010357
52.009497869018190385759 15.83158794908283618 52.009497869018190385759 5.47972524224089330
54.009497869018190385759 15.96715566706577860 54.009497869018190385759 5.49984096918475629
56.009497869018190385759 16.09657344483110819 56.009497869018190385759 5.51765533357037086
58.009497869018190385759 16.22020800218205494 58.009497869018190385759 5.53326521489302170
60.009497869018190385759 16.33842433939685179 60.009497869018190385759 5.54959808388050213
62.009497869018190385759 16.45152933684247643 62.009497869018190385759 5.56519199290383781
64.009497869018190385759 16.55984463814067098 64.009497869018190385759 5.58004282515572214
66.009497869018218807469 16.66380389995998357 66.009497869018218807469 5.59572875264347580
68.009497869018218807469 16.76378253674291230 68.009497869018218807469 5.61146093115814004
70.009497869018218807469 16.86000362528154284 70.009497869018218807469 5.62444191954981498
72.009497869018218807469 16.95270041785221338 72.009497869018218807469 5.63330318904399974
74.009497869018190385759 17.04208920759464974 74.009497869018190385759 5.64133385276698984
76.009497869018190385759 17.12834423194330569 76.009497869018190385759 5.64833337933895407
78.009497869018190385759 17.21168915885573369 78.009497869018190385759 5.65693533208560329
80.009497869018190385759 17.29226241027413735 80.009497869018190385759 5.66121942563540248
82.009497869018190385759 17.37006176573170535 82.009497869018190385759 5.66701284044329778
84.009497869018190385759 17.44512247314407105 84.009497869018190385759 5.67155328843315498
86.009497869018190385759 17.51750666032589265 86.009497869018190385759 5.67036030802831093
88.009497869018218807469 17.58739609726071151 88.009497869018218807469 5.67093795691493252
91.009497869018190385759 17.68771760341089916 91.009497869018190385759 5.66876071997537689
94.009497869018218807469 17.78297909398136056 94.009497869018218807469 5.67065373773270842
97.009497869018190385759 17.87386706883599174 97.009497869018190385759 5.67933390502275692
99.504748934509109403734 17.94662274551350123 99.504748934509109403734 5.68360320302979360
nan nan nan nan

