Time Pressure difference Time.1 Pressure.1 difference.1
(hr) (psi) (hr) (psi)
0.000200000000006639311 0.27230106278220068 0.000200000000006639311 0.21503457490967823
0.000399999999999067768 0.49424320969064212 0.000399999999999067768 0.42535694231505017
0.000600000000005707079 0.69165191112877078 0.000600000000005707079 0.56969108713660221
0.000799999999998135536 0.87244500747839526 0.000799999999998135536 0.69940555094965517
0.001007140329434719206 1.04656404309989681 0.001007140329434719206 0.82196393074105911
0.001267914553963578328 1.25096946966159894 0.001267914553963578328 0.96268161929053908
0.001596209851982166583 1.48988954028047793 0.001596209851982166583 1.12266272606619033
0.002009509145224797066 1.76796629115052273 0.002009509145224797066 1.30377446494425997
0.002529822128138903281 2.09028749221843180 0.002529822128138903281 1.50804309856237762
0.003184857364431081805 2.46242778701998688 0.003184857364431081805 1.73769886962435427
0.004009497869020606231 2.89050127140608337 0.004009497869020606231 1.99522988901249687
0.005047658755842121536 3.38122736028727511 0.005047658755842121536 2.28344298262547074
0.006354625877790454069 3.94201126112421152 0.006354625877790454069 2.60552921808901417
0.008000000000009777068 4.58103983857794805 0.008000000000009777068 2.96513212082167144
0.010071403294347192059 5.30739325103997395 0.010071403294347192059 3.36641726061736168
0.012679145539706837553 6.13117250600263208 0.012679145539706837553 3.81414198994328757
0.015962098519750611558 7.06364271092348872 0.015962098519750611558 4.31372210133407918
0.020095091452091651263 8.11739061848107113 0.020095091452091651263 4.87128964225838956
0.025298221281360611101 9.30649350611359161 0.025298221281360611101 5.49374414246549758
0.031848573644296607199 10.64669891040253447 0.031848573644296607199 6.18883079490376087
0.040094978690177640601 12.15562753381140304 0.040094978690177640601 6.96530879530370761
0.050476587558421215363 13.85302770185443499 0.050476587558421215363 7.83321190366022879
0.063546258777961384112 15.76109428337792906 0.063546258777961384112 8.80398311459088312
0.079999999999998294697 17.90477956610646615 0.079999999999998294697 9.89001049729078474
0.100714032943542974863 20.31189077349417715 0.100714032943542974863 11.10313491102618322
0.126791455396897845276 23.01270372020898236 0.126791455396897845276 12.45219193975220406
0.159620985197506115583 26.03891586649467271 0.159620985197506115583 13.94044315256958377
0.200950914520760193227 29.42206180457269937 0.200950914520760193227 15.56415138297274581
0.252982212813478213320 33.19179142109936009 0.252982212813478213320 17.31343210010995293
0.318485736442795541734 37.37465288375574346 0.318485736442795541734 19.17402450898174493
0.400949786901833249431 41.99315491836976122 0.400949786901833249431 21.13302302641674046
0.504765875584155310207 47.06713959543375125 0.504765875584155310207 23.18079455250566667
0.635462587779443310865 52.61366761774072387 0.635462587779443310865 25.31359317234422335
0.799999999999997157829 58.64950317391092938 0.799999999999997157829 27.53734217869365253
1.007140329435344483500 65.19261363095081663 1.007140329435344483500 29.87235518172361992
1.267914553968893187630 72.26662395087346624 1.267914553968893187630 32.32690677902528620
1.596209851975103788391 79.89007053887659993 1.596209851975103788391 34.94933861922061880
2.009509145207672986544 88.10413438930858376 2.009509145207672986544 37.76104758589396937
2.529822128134711078928 96.93128836858068098 2.529822128134711078928 40.81033862026485792
3.184857364427998049905 106.42635560603416423 3.184857364427998049905 44.16414849965553913
4.009497869018190385759 116.63125772199637709 4.009497869018190385759 47.83920915298171650
5.009497869018204596614 127.22070363810753690 5.009497869018204596614 51.72096598097949283
6.009497869018204596614 136.42738566802853484 6.009497869018204596614 55.12865047365162496
7.009497869018204596614 144.60919021025247844 7.009497869018204596614 58.16366472927740716
8.009497869018204596614 151.99071994177973011 8.009497869018204596614 60.88350210326915857
9.009497869018204596614 158.72382451317915297 9.009497869018204596614 63.33877197997237829
10.009497869018190385759 164.91720026894245166 10.009497869018190385759 65.56286296189361451
11.009497869018190385759 170.65210106601347206 11.009497869018190385759 67.56942198468482275
12.009497869018190385759 175.99139569971421793 12.009497869018190385759 69.40234472774926644
13.009497869018190385759 180.98479382569948370 13.009497869018190385759 71.08101273632139794
14.009497869018190385759 185.67303635372627468 14.009497869018190385759 72.61955787789659666
15.009497869018190385759 190.08897739876843502 15.009497869018190385759 74.03486593823447492
16.009497869018204596614 194.25988565324354340 16.009497869018204596614 75.34157617895783687
17.009497869018204596614 198.20968342518591498 17.009497869018204596614 76.55318266162126406
18.009497869018204596614 201.95909800274694135 18.009497869018204596614 77.68411936517971128
19.009497869018204596614 205.52573663931349301 19.009497869018204596614 78.73739850209160807
20.009497869018204596614 208.92552055624415175 20.009497869018204596614 79.71872609777695118
21.009497869018204596614 212.17145231414610862 21.009497869018204596614 80.63269373978759802
22.009497869018190385759 215.27463995978459366 22.009497869018190385759 81.48745099580273177
23.009497869018190385759 218.24527571457889508 23.009497869018190385759 82.28570768104599154
24.009497869018190385759 221.09277249295803358 24.009497869018190385759 83.03651209928518995
25.009497869018190385759 223.82597876000383508 25.009497869018190385759 83.74373127426110841
26.009497869018190385759 226.45267891872944688 26.009497869018190385759 84.41128665347891058
27.009497869018204596614 228.97997546752645803 27.009497869018204596614 85.04423286989766950
28.009497869018190385759 231.41402427385034457 28.009497869018190385759 85.64381454083446954
29.009497869018190385759 233.76034184918421488 29.009497869018190385759 86.20706325312168872
30.009497869018190385759 236.02405136816759068 30.009497869018190385759 86.74627585305283617
31.009497869018190385759 238.20984607793113241 31.009497869018190385759 87.25699347204667333
32.009497869018190385759 240.32204842019928037 32.009497869018190385759 87.74129899855441295
33.009497869018218807469 242.36467797007807690 33.009497869018218807469 88.19782057755526239
34.009497869018190385759 244.34156866842724298 34.009497869018190385759 88.63746982365650240
35.009497869018218807469 246.25614426983293015 35.009497869018218807469 89.05462848005069532
36.009497869018190385759 248.11157076116921871 36.009497869018190385759 89.45656495591755686
37.009497869018218807469 249.91078118178535306 37.009497869018218807469 89.84208519592438336
38.009497869018190385759 251.65656734599835431 38.009497869018190385759 90.21283511761369311
39.009497869018190385759 253.35148429679577475 39.009497869018190385759 90.57048414485780086
40.009497869018190385759 254.99792434761093318 40.009497869018190385759 90.91312525760791630
41.009497869018190385759 256.59818339775813456 41.009497869018190385759 91.24598992150039578
42.009497869018190385759 258.15436459677835046 42.009497869018190385759 91.56096391536091517
43.009497869018190385759 259.66845262318702225 43.009497869018190385759 91.87091754608250938
44.009497869018218807469 261.14235898626998278 44.009497869018218807469 92.15832648149847728
46.009497869018218807469 263.97672514661212517 46.009497869018218807469 92.70713700174931660
48.009497869018218807469 266.66966143432296121 48.009497869018218807469 93.21107258719413835
50.009497869018218807469 269.23087594117544086 50.009497869018218807469 93.64602122389976557
52.009497869018190385759 271.67004920626146713 52.009497869018190385759 94.03208515685372504
54.009497869018190385759 273.99639124684875924 54.009497869018190385759 94.37727103121041239
56.009497869018190385759 276.21720031330181655 56.009497869018190385759 94.68296552406756916
58.009497869018190385759 278.33876931744407557 58.009497869018190385759 94.95083108756425361
60.009497869018190385759 280.36736166405000859 60.009497869018190385759 95.23110311938940242
62.009497869018190385759 282.30824342021685425 62.009497869018190385759 95.49869459822986073
64.009497869018190385759 284.16693399049393065 64.009497869018190385759 95.75353487967220190
66.009497869018218807469 285.95087492331327894 66.009497869018218807469 96.02270539536205263
68.009497869018218807469 287.66650833050840674 68.009497869018218807469 96.29266957867366727
70.009497869018218807469 289.31766220983126914 70.009497869018218807469 96.51542333947482177
72.009497869018218807469 290.90833917034399292 72.009497869018218807469 96.66748272399503605
74.009497869018190385759 292.44225080232422442 74.009497869018190385759 96.80528891348154730
76.009497869018190385759 293.92238702014714136 76.009497869018190385759 96.92540078945644666
78.009497869018190385759 295.35258596596440839 78.009497869018190385759 97.07301029858895447
80.009497869018190385759 296.73522296030415646 80.009497869018190385759 97.14652534390351946
82.009497869018190385759 298.07025989995605642 82.009497869018190385759 97.24594034200698900
84.009497869018190385759 299.35830163915221647 84.009497869018190385759 97.32385442951294863
86.009497869018190385759 300.60041429119235090 86.009497869018190385759 97.30338288576581363
88.009497869018218807469 301.79971702899382535 88.009497869018218807469 97.31329534066024678
91.009497869018190385759 303.52123407453098025 91.009497869018190385759 97.27593395477748572
94.009497869018218807469 305.15592125272013391 94.009497869018218807469 97.30841813949326990
97.009497869018190385759 306.71555890122562005 97.009497869018190385759 97.45736981019049949
99.504748934509109403734 307.96404631301169275 99.504748934509109403734 97.53063096399125698
nan nan nan nan

