Time Pressure difference Time.1 Pressure.1 difference.1
(hr) (psi) (hr) (psi)
0.000200000000006639311 0.67027953915618632 0.000200000000006639311 0.52931587670074642
0.000399999999999067768 1.21659867000773447 0.000399999999999067768 1.04703247339089267
0.000600000000005707079 1.70252778124005100 0.000600000000005707079 1.40231652218240566
0.000799999999998135536 2.14755694148528065 0.000799999999998135536 1.72161366387607440
0.001007140329434719206 2.57615764455359209 0.001007140329434719206 2.02329582951645337
0.001267914553963578328 3.07930946378239767 0.001267914553963578328 2.36967783209978888
0.001596209851982166583 3.66742040684425374 0.001596209851982166583 2.76347747954754519
0.002009509145224797066 4.35191702437051742 0.002009509145224797066 3.20929099063202417
0.002529822128138903281 5.14532305776844723 0.002529822128138903281 3.71210608876892945
0.003184857364431081805 6.06136070651073666 0.003184857364431081805 4.27741260215225605
0.004009497869020606231 7.11508005269189781 0.004009497869020606231 4.91133511141537671
0.005047658755842121536 8.32302119455329326 0.005047658755842121536 5.62078272646269728
0.006354625877790454069 9.70341233507498302 0.006354625877790454069 6.41361038298834174
0.008000000000009777068 11.27640575649956212 0.008000000000009777068 7.29878675894565276
0.010071403294347192059 13.06435261794455016 0.010071403294347192059 8.28656556459658233
0.012679145539706837553 15.09211693785263364 0.012679145539706837553 9.38865720601424592
0.015962098519750611558 17.38742821150397333 0.015962098519750611558 10.61839286482234890
0.020095091452091651263 19.98126921472263717 0.020095091452091651263 11.99086681171296043
0.025298221281360611101 22.90829170735653264 0.025298221281360611101 13.52306250453045600
0.031848573644296607199 26.20725885637546781 0.031848573644296607199 15.23404503360925766
0.040094978690177640601 29.92154469861268140 0.040094978690177640601 17.14537549613220335
0.050476587558421215363 34.09976049687245592 0.050476587558421215363 19.28175237824056509
0.063546258777961384112 38.79653977446875501 0.063546258777961384112 21.67134305130063865
0.079999999999998294697 44.07330354733899469 0.079999999999998294697 24.34464122410039266
0.100714032943542974863 49.99850036552412291 0.100714032943542974863 27.33079362714137517
0.126791455396897845276 56.64665531128364506 0.126791455396897845276 30.65154939015927127
0.159620985197506115583 64.09579290214072955 0.159620985197506115583 34.31493699094051664
0.200950914520760193227 72.42353674971741384 0.200950914520760193227 38.31175725039445012
0.252982212813478213320 81.70287119039842594 0.252982212813478213320 42.61767901565527694
0.318485736442795541734 91.99914556001414212 0.318485736442795541734 47.19759879133967928
0.400949786901833249431 103.36776595291019021 0.400949786901833249431 52.01974898810274794
0.504765875584155310207 115.85757438875999981 0.504765875584155310207 57.06041736001395748
0.635462587779443310865 129.51056644366948944 0.635462587779443310865 62.31038319346270526
0.799999999999997157829 144.36800781270383709 0.799999999999997157829 67.78422690139976226
1.007140329435344483500 160.47412586080199048 1.007140329435344483500 73.53195121655045341
1.267914553968893187630 177.88707434061160484 1.267914553968893187630 79.57392437913917149
1.596209851975103788391 196.65248132646547674 1.596209851975103788391 86.02914121654305291
2.009509145207672986544 216.87171541983653356 2.009509145207672986544 92.95027098066208282
2.529822128134711078928 238.60009444573705650 2.529822128134711078928 100.45621814219040857
3.184857364427998049905 261.97256764562251874 3.184857364427998049905 108.71175015299826327
4.009497869018190385759 287.09232670029876999 4.009497869018190385759 117.75805329964728685
5.009497869018204596614 313.15865510918780501 5.009497869018204596614 127.31314703010335165
6.009497869018204596614 335.82125702899332964 6.009497869018204596614 135.70129347360401084
7.009497869018204596614 355.96108359446765235 7.009497869018204596614 143.17209779514439560
8.009497869018204596614 374.13100293361168269 8.009497869018204596614 149.86708210035484967
9.009497869018204596614 390.70479880167175679 9.009497869018204596614 155.91082333531662130
10.009497869018190385759 405.95003143124296230 10.009497869018190385759 161.38550882927660268
11.009497869018190385759 420.06671031634084557 11.009497869018190385759 166.32473103922419000
12.009497869018190385759 433.20958941468114745 12.009497869018190385759 170.83654086830588881
13.009497869018190385759 445.50103095556801236 13.009497869018190385759 174.96864673556035541
14.009497869018190385759 457.04132025532618400 14.009497869018190385759 178.75583477636084240
15.009497869018190385759 467.91132898158383568 15.009497869018190385759 182.23967000180792297
16.009497869018204596614 478.17818006952256837 16.009497869018204596614 185.45618751743467101
17.009497869018204596614 487.90075920045774183 17.009497869018204596614 188.43860347476001493
18.009497869018204596614 497.13008739137711700 18.009497869018204596614 191.22244766813463457
19.009497869018204596614 505.90950557369473017 19.009497869018204596614 193.81513477437931670
20.009497869018204596614 514.27820444613951167 20.009497869018204596614 196.23071039452787545
21.009497869018204596614 522.26819031174431984 21.009497869018204596614 198.48047689793870063
22.009497869018190385759 529.90680605485431443 22.009497869018190385759 200.58449475889904079
23.009497869018190385759 537.21914022050191306 23.009497869018190385759 202.54943429180551107
24.009497869018190385759 544.22836305958901448 24.009497869018190385759 204.39756824439430716
25.009497869018190385759 550.95625540924015695 25.009497869018190385759 206.13841544433506670
26.009497869018190385759 557.42197887687257207 26.009497869018190385759 207.78162868548653819
27.009497869018204596614 563.64301653544976034 27.009497869018204596614 209.33965014128654047
28.009497869018190385759 569.63452128947778874 28.009497869018190385759 210.81554348513100194
29.009497869018190385759 575.41007224414568100 29.009497869018190385759 212.20200185383799862
30.009497869018190385759 580.98228029087408686 30.009497869018190385759 213.52929440751464085
31.009497869018190385759 586.36269803798438716 31.009497869018190385759 214.78644546965333006
32.009497869018190385759 591.56196534202899784 32.009497869018190385759 215.97858215028779227
33.009497869018218807469 596.58997654173072078 33.009497869018218807469 217.10232757552066118
34.009497869018190385759 601.45616902997483066 34.009497869018190385759 218.18454110438523230
35.009497869018218807469 606.16897051035812183 35.009497869018218807469 219.21139318166325438
36.009497869018190385759 610.73617418133960655 36.009497869018190385759 220.20077527610476409
37.009497869018218807469 615.16499983208700542 37.009497869018218807469 221.14974817458309531
38.009497869018190385759 619.46231962091917467 38.009497869018190385759 222.06236336643368645
39.009497869018190385759 623.63442288442035988 39.009497869018190385759 222.94273020272689223
40.009497869018190385759 627.68719839411915018 40.009497869018190385759 223.78615448026565105
41.009497869018190385759 631.62629759448157074 41.009497869018190385759 224.60551365292405990
42.009497869018190385759 635.45689746899279271 42.009497869018190385759 225.38083425319609887
43.009497869018190385759 639.18388338015267891 43.009497869018190385759 226.14379703651076170
44.009497869018218807469 642.81196058158764117 44.009497869018218807469 226.85126518522702099
46.009497869018218807469 649.78886189935292350 46.009497869018218807469 228.20218338892138377
48.009497869018218807469 656.41762814602566323 48.009497869018218807469 229.44264021463172298
50.009497869018218807469 662.72215616289338413 50.009497869018218807469 230.51328301267636789
52.009497869018190385759 668.72627496925895230 52.009497869018190385759 231.46359423225533192
54.009497869018190385759 674.45265537685850177 54.009497869018190385759 232.31328253836409203
56.009497869018190385759 679.91926230966600997 56.009497869018190385759 233.06576129001246045
58.009497869018190385759 685.14158601217013711 58.009497869018190385759 233.72512267708123090
60.009497869018190385759 690.13504409612312429 60.009497869018190385759 234.41502306311238613
62.009497869018190385759 694.91259918822618147 62.009497869018190385759 235.07370978025809904
64.009497869018190385759 699.48783751506198314 64.009497869018190385759 235.70100893457771463
66.009497869018218807469 703.87907673430970590 66.009497869018218807469 236.36358251166041100
68.009497869018218807469 708.10217435202059733 68.009497869018218807469 237.02810973211981604
70.009497869018218807469 712.16655313189232857 70.009497869018218807469 237.57642668178417011
72.009497869018218807469 716.08206565007753852 72.009497869018218807469 237.95072670521855684
74.009497869018190385759 719.85784812879808214 74.009497869018190385759 238.28994194087763958
76.009497869018190385759 723.50126035728521856 76.009497869018190385759 238.58560194327742465
78.009497869018190385759 727.02175007006621854 78.009497869018190385759 238.94894842729587481
80.009497869018190385759 730.42516420997958448 80.009497869018190385759 239.12990853883943032
82.009497869018190385759 733.71140898450732948 82.009497869018190385759 239.37462238032489381
84.009497869018190385759 736.88197326560555211 84.009497869018190385759 239.56641090341648237
86.009497869018190385759 739.93948133216576935 86.009497869018190385759 239.51601941111584892
88.009497869018218807469 742.89161114829244070 88.009497869018218807469 239.54041930008676786
91.009497869018190385759 747.12919156807629406 91.009497869018190385759 239.44845281175994955
94.009497869018218807469 751.15303692977261107 94.009497869018218807469 239.52841388182960713
97.009497869018190385759 754.99214498763228676 97.009497869018190385759 239.89506414816125357
99.504748934509109403734 758.06534477049024190 99.504748934509109403734 240.07539929597848527
nan nan nan nan

