Time Pressure difference Time.1 Pressure.1 difference.1
(hr) (psi) (hr) (psi)
0.000200000000006639311 0.42146364962093530 0.000200000000006639311 0.33282740731940874
0.000399999999999067768 0.76498249705031796 0.000399999999999067768 0.65836132796548552
0.000600000000005707079 1.07052883214336525 0.000600000000005707079 0.88175963137227020
0.000799999999998135536 1.35035777381271416 0.000799999999998135536 1.08252980380086483
0.001007140329434719206 1.61985670074203125 0.001007140329434719206 1.27222389280201242
0.001267914553963578328 1.93623246586317421 0.001267914553963578328 1.49002469745668531
0.001596209851982166583 2.30602949824297765 0.001596209851982166583 1.73764114244277468
0.002009509145224797066 2.73643267441479532 0.002009509145224797066 2.01796327441256063
0.002529822128138903281 3.23531677117258409 0.002529822128138903281 2.33412731339258439
0.003184857364431081805 3.81131014121508471 0.003184857364431081805 2.68958519680785813
0.004009497869020606231 4.47387609373808726 0.004009497869020606231 3.08818798672330530
0.005047658755842121536 5.23341484202972129 0.005047658755842121536 3.53428004770002913
0.006354625877790454069 6.10138805917593618 0.006354625877790454069 4.03280046809115511
0.008000000000009777068 7.09046725598078620 0.008000000000009777068 4.58938864388249357
0.010071403294347192059 8.21470657037422569 0.010071403294347192059 5.21049198379936662
0.012679145539706837553 9.48974019577097394 0.012679145539706837553 5.90347384923623064
0.015962098519750611558 10.93300410268810374 0.015962098519750611558 6.67671672560799223
0.020095091452091651263 12.56397988501499086 0.020095091452091651263 7.53971170736496710
0.025298221281360611101 14.40445614932266771 0.025298221281360611101 8.50313778693960565
0.031848573644296607199 16.47880670514518187 0.031848573644296607199 9.57898286204218508
0.040094978690177640601 18.81430462109737078 0.040094978690177640601 10.78080428923464318
0.050476587558421215363 21.44151607000313575 0.050476587558421215363 12.12413217722702186
0.063546258777961384112 24.39479394909777454 0.063546258777961384112 13.62667782771176306
0.079999999999998294697 27.71275904870557838 0.079999999999998294697 15.30761531515403462
0.100714032943542974863 31.43845098741289590 0.100714032943542974863 17.18527175039950095
0.126791455396897845276 35.61873023361016521 0.126791455396897845276 19.27332272260014534
0.159620985197506115583 40.30265765816425017 0.159620985197506115583 21.57681644127319842
0.200950914520760193227 45.53904204717080262 0.200950914520760193227 24.08996857411165848
0.252982212813478213320 51.37377506668991600 0.252982212813478213320 26.79747998711657075
0.318485736442795541734 57.84794758697858441 0.318485736442795541734 29.67727802788782654
0.400949786901833249431 64.99639828857230839 0.400949786901833249431 32.70938762130703026
0.504765875584155310207 72.84983844141727616 0.504765875584155310207 35.87889879455423170
0.635462587779443310865 81.43467435473156968 0.635462587779443310865 39.18001367467730489
0.799999999999997157829 90.77685339738194159 0.799999999999997157829 42.62190024860742454
1.007140329435344483500 100.90418520035277083 1.007140329435344483500 46.23599962858854440
1.267914553968893187630 111.85323613841487145 1.267914553968893187630 50.03511911718599237
1.596209851975103788391 123.65269659164117400 1.596209851975103788391 54.09408121949297765
2.009509145207672986544 136.36630590792751150 2.009509145207672986544 58.44600372268903499
2.529822128134711078928 150.02884726512252200 2.529822128134711078928 63.16565231668033675
3.184857364427998049905 164.72517511050509142 3.184857364427998049905 68.35663077802162491
4.009497869018190385759 180.52017512215755346 4.009497869018190385759 74.04483654447520280
5.009497869018204596614 196.91036647017114092 5.009497869018204596614 80.05296366286802368
6.009497869018204596614 211.16033585913973525 6.009497869018204596614 85.32732847203888582
7.009497869018204596614 223.82401468440011172 7.009497869018204596614 90.02487967421957649
8.009497869018204596614 235.24903972340732139 8.009497869018204596614 94.23460465401100805
9.009497869018204596614 245.67044167074814709 9.009497869018204596614 98.03483588508545665
10.009497869018190385759 255.25645915752397741 10.009497869018190385759 101.47725176386332180
11.009497869018190385759 264.13285572921432731 11.009497869018190385759 104.58297482011825252
12.009497869018190385759 272.39693879862528547 12.009497869018190385759 107.41994615204082208
13.009497869018190385759 280.12564825236472643 13.009497869018190385759 110.01816423523871435
14.009497869018190385759 287.38204228175817434 14.009497869018190385759 112.39950216998447274
15.009497869018190385759 294.21697201114739073 15.009497869018190385759 114.59009553143982885
16.009497869018204596614 300.67264352856346932 16.009497869018204596614 116.61260275717482671
17.009497869018204596614 306.78608343665143821 17.009497869018204596614 118.48790976064456970
18.009497869018204596614 312.58937313245678524 18.009497869018204596614 120.23835724587254958
19.009497869018204596614 318.10976486830804788 19.009497869018204596614 121.86860747176882569
20.009497869018204596614 323.37190128052708360 20.009497869018204596614 123.38749214201374116
21.009497869018204596614 328.39590754450586019 21.009497869018204596614 124.80211804946144127
22.009497869018190385759 333.19897653449174868 22.009497869018190385759 126.12509897718649654
23.009497869018190385759 337.79688362349742192 23.009497869018190385759 127.36062913802921059
24.009497869018190385759 342.20419798443856507 24.009497869018190385759 128.52271336579337913
25.009497869018190385759 346.43461514368885901 25.009497869018190385759 129.61733698393794612
26.009497869018190385759 350.50018368773044131 26.009497869018190385759 130.65056955223775503
27.009497869018204596614 354.41189676092670879 27.009497869018204596614 131.63023455853624455
28.009497869018190385759 358.17928232595954796 28.009497869018190385759 132.55825840352935074
29.009497869018190385759 361.81087875957649658 29.009497869018190385759 133.43004662021633067
30.009497869018190385759 365.31461563744358045 30.009497869018190385759 134.26463208957360962
31.009497869018190385759 368.69775709964164889 31.009497869018190385759 135.05511343925169854
32.009497869018190385759 371.96699335900308370 32.009497869018190385759 135.80471453389307612
33.009497869018218807469 375.12854585578520528 33.009497869018218807469 136.51131203612283116
34.009497869018190385759 378.18834870824173322 34.009497869018190385759 137.19179478533314409
35.009497869018218807469 381.15170115424029973 35.009497869018218807469 137.83746692483370566
36.009497869018190385759 384.02350346250898383 36.009497869018190385759 138.45957839330827710
37.009497869018218807469 386.80829534896383848 37.009497869018218807469 139.05628104916965526
38.009497869018190385759 389.51039794345666678 38.009497869018190385759 139.63012241980300132
39.009497869018190385759 392.13376590459762383 39.009497869018190385759 140.18368641535101915
40.009497869018190385759 394.68210202054461888 40.009497869018190385759 140.71402137774279595
41.009497869018190385759 397.15895985107550814 41.009497869018190385759 141.22922449388406108
42.009497869018190385759 399.56759462065451771 42.009497869018190385759 141.71673668950967340
43.009497869018190385759 401.91107818600505652 43.009497869018190385759 142.19647843962420097
44.009497869018218807469 404.19236915357402040 44.009497869018218807469 142.64132583616549255
46.009497869018218807469 408.57936013368401973 46.009497869018218807469 143.49076682788239623
48.009497869018218807469 412.74744800091002617 48.009497869018218807469 144.27075104404872263
50.009497869018218807469 416.71165879939508159 50.009497869018218807469 144.94395825797073485
52.009497869018190385759 420.48697592764011688 52.009497869018190385759 145.54150243391814001
54.009497869018190385759 424.08765451726708307 54.009497869018190385759 146.07577614154712364
56.009497869018190385759 427.52499069471423354 56.009497869018190385759 146.54892565962904882
58.009497869018190385759 430.80872453795541333 58.009497869018190385759 146.96352410755864071
60.009497869018190385759 433.94855045438043817 60.009497869018190385759 147.39732510786612352
62.009497869018190385759 436.95261918653613975 62.009497869018190385759 147.81149933152593690
64.009497869018190385759 439.82947358901628832 64.009497869018190385759 148.20593743613599713
66.009497869018218807469 442.59063158293713514 66.009497869018218807469 148.62255567021071556
68.009497869018218807469 445.24606417589177454 68.009497869018218807469 149.04040233156018758
70.009497869018218807469 447.80169628747779598 70.009497869018218807469 149.38517738324310358
72.009497869018218807469 450.26372309815479866 72.009497869018218807469 149.62053270100864211
74.009497869018190385759 452.63788935371394473 74.009497869018190385759 149.83382712949122606
76.009497869018190385759 454.92882280041419563 76.009497869018190385759 150.01973455524262135
78.009497869018190385759 457.14246405920829375 78.009497869018190385759 150.24820242019362126
80.009497869018190385759 459.28248961688109375 80.009497869018190385759 150.36198794487629016
82.009497869018190385759 461.34884049783408955 82.009497869018190385759 150.51586104217398088
84.009497869018190385759 463.34245288670649643 84.009497869018190385759 150.63645534078460742
86.009497869018190385759 465.26497689825572479 86.009497869018190385759 150.60476978123193703
88.009497869018218807469 467.12124034324455124 88.009497869018218807469 150.62011213566060519
91.009497869018190385759 469.78577954659340321 91.009497869018190385759 150.56228472254602480
94.009497869018218807469 472.31592473614489336 94.009497869018218807469 150.61256327418072942
97.009497869018190385759 474.72990934828391119 97.009497869018190385759 150.84310851740443127
99.504748934509109403734 476.66230012083860856 99.504748934509109403734 150.95650107247132610
nan nan nan nan

