Time Pressure difference Time.1 Pressure.1 difference.1
(hr) (psi) (hr) (psi)
0.000200000000006639311 0.57443464293214830 0.000200000000006639311 0.45362771630130255
0.000399999999999067768 1.04263427685321930 0.000399999999999067768 0.89731476176018743
0.000600000000005707079 1.45907920646046030 0.000600000000005707079 1.20179588312033814
0.000799999999998135536 1.84047256822365424 0.000799999999998135536 1.47543595246955239
0.001007140329434719206 2.20778661772822016 0.001007140329434719206 1.73397985389430898
0.001267914553963578328 2.63899153856351276 0.001267914553963578328 2.03083185421430734
0.001596209851982166583 3.14300707215345554 0.001596209851982166583 2.36832113540769784
0.002009509145224797066 3.72962585895389998 0.002009509145224797066 2.75038669178217976
0.002529822128138903281 4.40958084022769459 0.002529822128138903281 3.18130304009079623
0.003184857364431081805 5.19463204487899333 0.003184857364431081805 3.66577500468540896
0.004009497869020606231 6.09767750727856761 0.004009497869020606231 4.20905139756715574
0.005047658755842121536 7.13289221692303954 0.005047658755842121536 4.81705337826585378
0.006354625877790454069 8.31589788185876877 0.006354625877790454069 5.49651268617845634
0.008000000000009777068 9.66396516063646160 0.008000000000009777068 6.25511554625550659
0.010071403294347192059 11.19624916594679753 0.010071403294347192059 7.10164946587112400
0.012679145539706837553 12.93405854995893378 0.012679145539706837553 8.04615035174516535
0.015962098519750611558 14.90115770019990116 0.015962098519750611558 9.10004312752294275
0.020095091452091651263 17.12409909026892407 0.020095091452091651263 10.27626369753809499
0.025298221281360611101 19.63257954086899915 0.025298221281360611101 11.58936701382581624
0.031848573644296607199 22.45981937975359344 0.031848573644296607199 13.05569200323520640
0.040094978690177640601 25.64299048507999856 0.040094978690177640601 14.69371668939360376
0.050476587558421215363 29.22375307733861050 0.050476587558421215363 16.52460786203381815
0.063546258777961384112 33.24892849989982579 0.063546258777961384112 18.57250517180594329
0.079999999999998294697 37.77115502873275688 0.079999999999998294697 20.86354195815422230
0.100714032943542974863 42.84909358977210303 0.100714032943542974863 23.42269718992703176
0.126791455396897845276 48.54661274309820129 0.126791455396897845276 26.26861003607399425
0.159620985197506115583 54.93058009132326447 0.159620985197506115583 29.40816096287988657
0.200950914520760193227 62.06751965766502366 0.200950914520760193227 32.83346620417326989
0.252982212813478213320 70.01997957131682426 0.252982212813478213320 36.52367377762123368
0.318485736442795541734 78.84396470815605085 0.318485736442795541734 40.44869972174470263
0.400949786901833249431 88.58695851078002192 0.400949786901833249431 44.58131897181154102
0.504765875584155310207 99.29081896006421459 0.504765875584155310207 48.90120995342105203
0.635462587779443310865 110.99153658287961832 0.635462587779443310865 53.40047044515507224
0.799999999999997157829 123.72447639251606688 0.799999999999997157829 58.09159597137005449
1.007140329435344483500 137.52754157578200989 1.007140329435344483500 63.01743925282021763
1.267914553968893187630 152.45057033925519363 1.267914553968893187630 68.19545602568271647
1.596209851975103788391 168.53266628830610330 1.596209851975103788391 73.72762575849570510
2.009509145207672986544 185.86070308234096160 2.009509145207672986544 79.65908639914695755
2.529822128134711078928 204.48208851646973017 2.529822128134711078928 86.09173997981281445
3.184857364427998049905 224.51247511296250536 3.184857364427998049905 93.16679345498430109
4.009497869018190385759 246.04029892402493829 4.009497869018190385759 100.91954378426211747
5.009497869018204596614 268.37933984262781451 5.009497869018204596614 109.10833149833668188
6.009497869018204596614 287.80136137427933818 6.009497869018204596614 116.29703654698070636
7.009497869018204596614 305.06134531533450627 7.009497869018204596614 122.69957244754324677
8.009497869018204596614 320.63310383988499552 8.009497869018204596614 128.43722471668669982
9.009497869018204596614 334.83697245787209340 9.009497869018204596614 133.61675674096738931
10.009497869018190385759 347.90225231560123120 10.009497869018190385759 138.30860368418117901
11.009497869018190385759 360.00035306466713791 11.009497869018190385759 142.54155453645634566
12.009497869018190385759 371.26390001921066641 12.009497869018190385759 146.40820974035682411
13.009497869018190385759 381.79775853673203301 13.009497869018190385759 149.94945577242626200
14.009497869018190385759 391.68787389305890656 14.009497869018190385759 153.19510461421074865
15.009497869018190385759 401.00355372001268961 15.009497869018190385759 156.18077779511000358
16.009497869018204596614 409.80232288155104925 16.009497869018204596614 158.93735767355906319
17.009497869018204596614 418.13464685266495735 17.009497869018204596614 161.49331074304717504
18.009497869018204596614 426.04425103143591969 18.009497869018204596614 163.87908630649798170
19.009497869018204596614 433.56827892442595385 19.009497869018204596614 166.10103879811865113
20.009497869018204596614 440.74031725734488418 20.009497869018204596614 168.17120540440126319
21.009497869018204596614 447.58779567436414482 21.009497869018204596614 170.09927234150993058
22.009497869018190385759 454.13414723451057853 22.009497869018190385759 171.90243158788220512
23.009497869018190385759 460.40087301094149552 23.009497869018190385759 173.58639965348862688
24.009497869018190385759 466.40783008421215072 24.009497869018190385759 175.17026445187201489
25.009497869018190385759 472.17368479674462378 25.009497869018190385759 176.66218369045759573
26.009497869018190385759 477.71485879125913243 26.009497869018190385759 178.07042988670957584
27.009497869018204596614 483.04633519373294348 27.009497869018204596614 179.40566607752305117
28.009497869018190385759 488.18110015812249003 28.009497869018190385759 180.67051785420790111
29.009497869018190385759 493.13079108044684062 29.009497869018190385759 181.85872317966232004
30.009497869018190385759 497.90621559019041342 30.009497869018190385759 182.99622295340981282
31.009497869018190385759 502.51727436020433970 31.009497869018190385759 184.07361093753434034
32.009497869018190385759 506.97308582815929867 32.009497869018190385759 185.09528110417656421
33.009497869018218807469 511.28212951729761926 33.009497869018218807469 186.05833944682402148
34.009497869018190385759 515.45249334481741244 34.009497869018190385759 186.98580463964830756
35.009497869018218807469 519.49139991654737969 35.009497869018218807469 187.86582464905799839
36.009497869018190385759 523.40552806260632224 36.009497869018190385759 188.71373259931326061
37.009497869018218807469 527.20106519700641456 37.009497869018218807469 189.52700956249782394
38.009497869018190385759 530.88390081148838817 38.009497869018190385759 190.30912769566523934
39.009497869018190385759 534.45942491515188522 39.009497869018190385759 191.06360874381425674
40.009497869018190385759 537.93268422980850119 40.009497869018190385759 191.78642973924280568
41.009497869018190385759 541.30852208617977794 41.009497869018190385759 192.48862675747750473
42.009497869018190385759 544.59137519833188890 42.009497869018190385759 193.15308238555158482
43.009497869018190385759 547.78543035893767410 43.009497869018190385759 193.80694727087333717
44.009497869018218807469 550.89472000600073898 44.009497869018218807469 194.41325283393038603
46.009497869018218807469 556.87397729063866336 46.009497869018218807469 195.57099996872526049
48.009497869018218807469 562.55488018196319899 48.009497869018218807469 196.63408086575918787
50.009497869018218807469 567.95790845399483260 50.009497869018218807469 197.55162985461376479
52.009497869018190385759 573.10348375679870969 52.009497869018190385759 198.36605376912035581
54.009497869018190385759 578.01103514778117187 54.009497869018190385759 199.09424308448816987
56.009497869018190385759 582.69595870288617334 56.009497869018190385759 199.73912307524744847
58.009497869018190385759 587.17152967899050964 58.009497869018190385759 200.30420077912739885
60.009497869018190385759 591.45096108616610309 60.009497869018190385759 200.89545063647415191
62.009497869018190385759 595.54536199369761107 62.009497869018190385759 201.45995014311893101
64.009497869018190385759 599.46637590069235557 64.009497869018190385759 201.99755027063713442
66.009497869018218807469 603.22970117855140870 66.009497869018218807469 202.56538084569382363
68.009497869018218807469 606.84892783009343020 68.009497869018218807469 203.13488570792463861
70.009497869018218807469 610.33213123519192322 70.009497869018218807469 203.60479748770330843
72.009497869018218807469 613.68775512625006741 72.009497869018218807469 203.92557544339280184
74.009497869018190385759 616.92362931492641565 74.009497869018190385759 204.21628547016501898
76.009497869018190385759 620.04606119634763672 76.009497869018190385759 204.46966833207014247
78.009497869018190385759 623.06314755057758248 78.009497869018190385759 204.78105902149883377
80.009497869018190385759 625.97989925192382543 80.009497869018190385759 204.93614320800159589
82.009497869018190385759 628.79623591948779904 82.009497869018190385759 205.14586482404737922
84.009497869018190385759 631.51343352781543672 84.009497869018190385759 205.31022904128022333
86.009497869018190385759 634.13374110379743342 86.009497869018190385759 205.26704315062488604
88.009497869018218807469 636.66373872083784136 88.009497869018218807469 205.28795404032058514
91.009497869018190385759 640.29537724347449057 91.009497869018190385759 205.20913806310866789
94.009497869018218807469 643.74384320212516286 94.009497869018218807469 205.27766530592404592
97.009497869018190385759 647.03398789186292106 97.009497869018190385759 205.59188736182380808
99.504748934509109403734 649.66774338758875729 99.504748934509109403734 205.74643594967849936
nan nan nan nan

