Time Pressure difference Time.1 Pressure.1 difference.1
(hr) (psi) (hr) (psi)
0.000200000000006639311 0.66837533591994713 0.000200000000006639311 0.52781213841466479
0.000399999999999067768 1.21314242378612169 0.000399999999999067768 1.04405794931875939
0.000600000000005707079 1.69769105458880087 0.000600000000005707079 1.39833266842620541
0.000799999999998135536 2.14145592744696955 0.000799999999998135536 1.71672271596733550
0.001007140329434719206 2.56883901488156452 0.001007140329434719206 2.01754783000078142
0.001267914553963578328 3.07056142553301603 0.001267914553963578328 2.36294579280405070
0.001596209851982166583 3.65700159887026421 0.001596209851982166583 2.75562669125337623
0.002009509145224797066 4.33955362373310116 0.002009509145224797066 3.20017368668136504
0.002529822128138903281 5.13070566271796924 0.002529822128138903281 3.70156033283492691
0.003184857364431081805 6.04414093177633127 0.003184857364431081805 4.26526086180523301
0.004009497869020606231 7.09486675708765890 0.004009497869020606231 4.89738245484885670
0.005047658755842121536 8.29937624797785745 0.005047658755842121536 5.60481459371706414
0.006354625877790454069 9.67584582275942928 0.006354625877790454069 6.39538989894576204
0.008000000000009777068 11.24437051287314304 0.008000000000009777068 7.27805156928955643
0.010071403294347192059 13.02723797982539011 0.010071403294347192059 8.26302418515170523
0.012679145539706837553 15.04924160564282509 0.012679145539706837553 9.36198488440625276
0.015962098519750611558 17.33803210863038302 0.015962098519750611558 10.58822697600183105
0.020095091452091651263 19.92450424536262688 0.020095091452091651263 11.95680184917968525
0.025298221281360611101 22.84321133318790586 0.025298221281360611101 13.48464471332440340
0.031848573644296607199 26.13280641644258395 0.031848573644296607199 15.19076649658195954
0.040094978690177640601 29.83654031026435050 0.040094978690177640601 17.09666704301819351
0.050476587558421215363 34.00288617727907337 0.050476587558421215363 19.22697467262056392
0.063546258777961384112 38.68632233192764858 0.063546258777961384112 21.60977673581398761
0.079999999999998294697 43.94809529862497044 0.079999999999998294697 24.27548031153192554
0.100714032943542974863 49.85645917130388938 0.100714032943542974863 27.25314932706426774
0.126791455396897845276 56.48572731324022556 0.126791455396897845276 30.56447112484631745
0.159620985197506115583 63.91370258139601646 0.159620985197506115583 34.21745137448897367
0.200950914520760193227 72.21778806576935494 0.200950914520760193227 38.20291703093310076
0.252982212813478213320 81.47076076088023910 0.252982212813478213320 42.49660606390624906
0.318485736442795541734 91.73778435103682227 0.318485736442795541734 47.06351470386427849
0.400949786901833249431 103.07410752690759637 0.400949786901833249431 51.87196561029563213
0.504765875584155310207 115.52843355242829659 0.504765875584155310207 56.89831390160482982
0.635462587779443310865 129.14263869809087737 0.635462587779443310865 62.13336505939037835
0.799999999999997157829 143.95787142687225924 0.799999999999997157829 67.59165807497532796
1.007140329435344483500 160.01823345778834096 1.007140329435344483500 73.32305362786706837
1.267914553968893187630 177.38171333396212503 1.267914553968893187630 79.34786209397117318
1.596209851975103788391 196.09380950451529202 1.596209851975103788391 85.78474024717786506
2.009509145207672986544 216.25560259193926527 2.009509145207672986544 92.68620771083065790
2.529822128134711078928 237.92225326833440135 2.529822128134711078928 100.17083115883191624
3.184857364427998049905 261.22832739662931090 3.184857364427998049905 108.40290995369997518
4.009497869018190385759 286.27672349944566577 4.009497869018190385759 117.42351337550057622
5.009497869018204596614 312.26899983899124891 5.009497869018204596614 126.95146195331328443
6.009497869018204596614 334.86721936697915680 6.009497869018204596614 135.31577843532670613
7.009497869018204596614 354.94983051607425750 7.009497869018204596614 142.76535888095364157
8.009497869018204596614 373.06813076618658442 8.009497869018204596614 149.44132334438793919
9.009497869018204596614 389.59484198689426648 9.009497869018204596614 155.46789485993221547
10.009497869018190385759 404.79676429649509828 10.009497869018190385759 160.92702727010251351
11.009497869018190385759 418.87333898021489631 11.009497869018190385759 165.85221759877185832
12.009497869018190385759 431.97888035384403338 12.009497869018190385759 170.35120978629362298
13.009497869018190385759 444.23540302671693780 13.009497869018190385759 174.47157671642526111
14.009497869018190385759 455.74290741369173929 14.009497869018190385759 178.24800570029165669
15.009497869018190385759 466.58203543334070673 15.009497869018190385759 181.72194366657552678
16.009497869018204596614 476.81971933068871294 16.009497869018204596614 184.92932334835106190
17.009497869018204596614 486.51467749818357333 17.009497869018204596614 187.90326653307036509
18.009497869018204596614 495.71778600674252857 18.009497869018204596614 190.67920207816834477
19.009497869018204596614 504.47226266013319673 19.009497869018204596614 193.26452359604303410
20.009497869018204596614 512.81718681987206310 20.009497869018204596614 195.67323678545250232
21.009497869018204596614 520.78447386199491120 21.009497869018204596614 197.91661190675137050
22.009497869018190385759 528.40138899219857649 22.009497869018190385759 200.01465244424306889
23.009497869018190385759 535.69294948123911126 23.009497869018190385759 201.97400976256741956
24.009497869018190385759 542.68225975544248740 24.009497869018190385759 203.81689333460911939
25.009497869018190385759 549.39103877455488600 25.009497869018190385759 205.55279494591366074
26.009497869018190385759 555.83839370960868109 26.009497869018190385759 207.19133996763002870
27.009497869018204596614 562.04175796574668311 27.009497869018204596614 208.74493522611243179
28.009497869018190385759 568.01624139945090519 28.009497869018190385759 210.21663569113914605
29.009497869018190385759 573.77538453890667824 29.009497869018190385759 211.59915525766231781
30.009497869018190385759 579.33176244913863684 30.009497869018190385759 212.92267709385694729
31.009497869018190385759 584.69689491855831420 31.009497869018190385759 214.17625670411453598
32.009497869018190385759 589.88139157685282044 32.009497869018190385759 215.36500663281537982
33.009497869018218807469 594.89511865382803535 33.009497869018218807469 216.48555959945383620
34.009497869018190385759 599.74748673159422196 34.009497869018190385759 217.56469865806593589
35.009497869018218807469 604.44689957140815295 35.009497869018218807469 218.58863354194261319
36.009497869018190385759 609.00112823196070622 36.009497869018190385759 219.57520489179762535
37.009497869018218807469 613.41737199165493166 37.009497869018218807469 220.52148184454168245
38.009497869018190385759 617.70248348563245600 38.009497869018190385759 221.43150437959724286
39.009497869018190385759 621.86273418304415372 39.009497869018190385759 222.30937017374188258
40.009497869018190385759 625.90399612595399503 40.009497869018190385759 223.15039835958307890
41.009497869018190385759 629.83190470358806579 41.009497869018190385759 223.96742980731914940
42.009497869018190385759 633.65162219209219074 42.009497869018190385759 224.74054779224951517
43.009497869018190385759 637.36802007509538726 43.009497869018190385759 225.50134306765704650
44.009497869018218807469 640.98579023902630070 44.009497869018218807469 226.20680136367809610
46.009497869018218807469 647.94287081441166265 46.009497869018218807469 227.55388173156649145
48.009497869018218807469 654.55280533879260929 48.009497869018218807469 228.79081453220376829
50.009497869018218807469 660.83942276470338584 50.009497869018218807469 229.85841573139035177
52.009497869018190385759 666.82648441536912287 52.009497869018190385759 230.80602720318643151
54.009497869018190385759 672.53659669681064770 54.009497869018190385759 231.65330162206191744
56.009497869018190385759 677.98767349628622014 56.009497869018190385759 232.40364264998402177
58.009497869018190385759 683.19516105190814415 58.009497869018190385759 233.06113085129408091
60.009497869018190385759 688.17443317539550662 60.009497869018190385759 233.74907129304671116
62.009497869018190385759 692.93841566780508856 62.009497869018190385759 234.40588674110964007
64.009497869018190385759 697.50065615848518519 64.009497869018190385759 235.03140379555901518
66.009497869018218807469 701.87942026631446879 66.009497869018218807469 235.69209506134322396
68.009497869018218807469 706.09052044761153866 68.009497869018218807469 236.35473442038082226
70.009497869018218807469 710.14335269685852836 70.009497869018218807469 236.90149365143821569
72.009497869018218807469 714.04774159993519334 72.009497869018218807469 237.27473032253328711
74.009497869018190385759 717.81279742388676368 74.009497869018190385759 237.61298187854558250
76.009497869018190385759 721.44585904945199673 76.009497869018190385759 237.90780193775674434
78.009497869018190385759 724.95634737100351686 78.009497869018190385759 238.27011618744560906
80.009497869018190385759 728.35009272074660203 80.009497869018190385759 238.45056220776316991
82.009497869018190385759 731.62700157261951972 82.009497869018190385759 238.69458083947168348
84.009497869018190385759 734.78855856882830722 84.009497869018190385759 238.88582450880451802
86.009497869018190385759 737.83738053292677250 86.009497869018190385759 238.83557617415246455
88.009497869018218807469 740.78112361662124385 88.009497869018218807469 238.85990674525697841
91.009497869018190385759 745.00666545566696186 91.009497869018190385759 238.76820152536288333
94.009497869018218807469 749.01907943849494131 94.009497869018218807469 238.84793543330169996
97.009497869018190385759 752.84728093937201265 97.009497869018190385759 239.21354407955851684
99.504748934509109403734 755.91175004102865387 99.504748934509109403734 239.39336691161489057
nan nan nan nan

