Time Pressure difference Time.1 Pressure.1 difference.1
(hr) (psi) (hr) (psi)
0.000200000000006639311 0.37830170959951426 0.000200000000006639311 0.29874267283489098
0.000399999999999067768 0.68664091602709265 0.000399999999999067768 0.59093878233046593
0.000600000000005707079 0.96089636138169554 0.000600000000005707079 0.79145894623173652
0.000799999999998135536 1.21206812227767724 0.000799999999998135536 0.97166831786945096
0.001007140329434719206 1.45396776150941376 0.001007140329434719206 1.14193590378011933
0.001267914553963578328 1.73794359887718652 0.001267914553963578328 1.33743180675328999
0.001596209851982166583 2.06986985083255215 0.001596209851982166583 1.55968994110827364
0.002009509145224797066 2.45619559330002657 0.002009509145224797066 1.81130438486428647
0.002529822128138903281 2.90398915002840408 0.002529822128138903281 2.09509017888852478
0.003184857364431081805 3.42099524723522652 0.003184857364431081805 2.41414574894199285
0.004009497869020606231 4.01570806004201852 0.004009497869020606231 2.77192777121549705
0.005047658755842121536 4.69746271965318396 0.005047658755842121536 3.17233570546568888
0.006354625877790454069 5.47654711335671429 0.006354625877790454069 3.61980282979266299
0.008000000000009777068 6.36433506711528363 0.008000000000009777068 4.11939101167765909
0.010071403294347192059 7.37344143967325039 0.010071403294347192059 4.67688738304882889
0.012679145539706837553 8.51789933234864627 0.012679145539706837553 5.29890122612167769
0.015962098519750611558 9.81335910422004432 0.015962098519750611558 5.99295657900958378
0.020095091452091651263 11.27730724618815294 0.020095091452091651263 6.76757255661072321
0.025298221281360611101 12.92930100150046613 0.025298221281360611101 7.63233451960241638
0.031848573644296607199 14.79121806666645611 0.031848573644296607199 8.59800268942340651
0.040094978690177640601 16.88753848520185485 0.040094978690177640601 9.67674601865037154
0.050476587558421215363 19.24569815921968186 0.050476587558421215363 10.88250418317365309
0.063546258777961384112 21.89653191816607603 0.063546258777961384112 12.23117467668103941
0.079999999999998294697 24.87470541118753786 0.079999999999998294697 13.73996796360211547
0.100714032943542974863 28.21885058508748045 0.100714032943542974863 15.42533428198509426
0.126791455396897845276 31.97102894462599565 0.126791455396897845276 17.29954870883989315
0.159620985197506115583 36.17527705461731102 0.159620985197506115583 19.36714246837172837
0.200950914520760193227 40.87540521101475122 0.200950914520760193227 21.62292359965444177
0.252982212813478213320 46.11260533094456093 0.252982212813478213320 24.05315974747210461
0.318485736442795541734 51.92376018349283129 0.318485736442795541734 26.63803871177882954
0.400949786901833249431 58.34014063251370175 0.400949786901833249431 29.35963105767920212
0.504765875584155310207 65.38931281789864158 0.504765875584155310207 32.20455373728060522
0.635462587779443310865 73.09497878828315720 0.635462587779443310865 35.16760263570432699
0.799999999999997157829 81.48042865186691586 0.799999999999997157829 38.25700684965364928
1.007140329435344483500 90.57062406537689014 1.007140329435344483500 41.50098761843187845
1.267914553968893187630 100.39838665436032272 1.267914553968893187630 44.91104065337778906
1.596209851975103788391 110.98946862743694908 1.596209851975103788391 48.55432591388225205
2.009509145207672986544 122.40108180892288203 2.009509145207672986544 52.46056960651004175
2.529822128134711078928 134.66444724399553934 2.529822128134711078928 56.69688069388777052
3.184857364427998049905 147.85572946665817540 3.184857364427998049905 61.35625292726038538
4.009497869018190385759 162.03316923615344081 4.009497869018190385759 66.46193159714943022
5.009497869018204596614 176.74484701238250750 5.009497869018204596614 71.85476858895984265
6.009497869018204596614 189.53548218681820003 6.009497869018204596614 76.58898760442043852
7.009497869018204596614 200.90227824081696895 7.009497869018204596614 80.80546428589588004
8.009497869018204596614 211.15727059510658137 8.009497869018204596614 84.58407285209420934
9.009497869018204596614 220.51142053579201274 9.009497869018204596614 87.99512377637189786
10.009497869018190385759 229.11573743657274349 10.009497869018190385759 91.08500308925080446
11.009497869018190385759 237.08310544369237505 11.009497869018190385759 93.87267016986517376
12.009497869018190385759 244.50086675298291539 12.009497869018190385759 96.41910829309686903
13.009497869018190385759 251.43808186507436631 13.009497869018190385759 98.75124380150944603
14.009497869018190385759 257.95135120471064738 14.009497869018190385759 100.88870977908244697
15.009497869018190385759 264.08631825096966850 15.009497869018190385759 102.85496526617190227
16.009497869018204596614 269.88086678166240517 16.009497869018204596614 104.67034825794607400
17.009497869018204596614 275.36823151844009772 17.009497869018204596614 106.35360574901228858
18.009497869018204596614 280.57720841407268608 18.009497869018204596614 107.92479053996993343
19.009497869018204596614 285.53225882757772069 19.009497869018204596614 109.38808742947925623
20.009497869018204596614 290.25550175179841972 20.009497869018204596614 110.75142366963883944
21.009497869018204596614 294.76500135018898163 21.009497869018204596614 112.02117824921539579
22.009497869018190385759 299.07618978095945295 22.009497869018190385759 113.20867317831800847
23.009497869018190385759 303.20322686687416081 23.009497869018190385759 114.31767314196599727
24.009497869018190385759 307.15918975711650774 24.009497869018190385759 115.36074874399528767
25.009497869018190385759 310.95637142415449716 25.009497869018190385759 116.34327235305275394
26.009497869018190385759 314.60558656308336367 26.009497869018190385759 117.27069194749050496
27.009497869018204596614 318.11670251432582290 27.009497869018204596614 118.15002981458975739
28.009497869018190385759 321.49827148534922117 28.009497869018190385759 118.98301507304742586
29.009497869018190385759 324.75795744082466854 29.009497869018190385759 119.76552377356766499
30.009497869018190385759 327.90287789144031194 30.009497869018190385759 120.51463964666547213
31.009497869018190385759 330.93955305931689281 31.009497869018190385759 121.22416808703917468
32.009497869018190385759 333.87398801500881973 32.009497869018190385759 121.89700280451849324
33.009497869018218807469 336.71176706332528283 33.009497869018218807469 122.53123791194157377
34.009497869018190385759 339.45821661161454585 34.009497869018190385759 123.14203266876286591
35.009497869018218807469 342.11809320470968032 35.009497869018218807469 123.72158175783266643
36.009497869018190385759 344.69579527658942197 36.009497869018190385759 124.27998301568034378
37.009497869018218807469 347.19539763250367059 37.009497869018218807469 124.81557756823062277
38.009497869018190385759 349.62077887695807021 38.009497869018190385759 125.33065205150994359
39.009497869018190385759 351.97548867340390188 39.009497869018190385759 125.82752575835722553
40.009497869018190385759 354.26285060880206856 40.009497869018190385759 126.30354930893778942
41.009497869018190385759 356.48605432415808991 41.009497869018190385759 126.76599066017305972
42.009497869018190385759 358.64802167757545703 42.009497869018190385759 127.20357690805386142
43.009497869018190385759 360.75150993804066957 43.009497869018190385759 127.63418847893979091
44.009497869018218807469 362.79917472218392049 44.009497869018218807469 128.03347921438950152
46.009497869018218807469 366.73689554168026916 46.009497869018218807469 128.79592926117155116
48.009497869018218807469 370.47813103696148573 48.009497869018218807469 129.49603557568229917
50.009497869018218807469 374.03636844042091525 50.009497869018218807469 130.10029988215447361
52.009497869018190385759 377.42505670613479651 52.009497869018190385759 130.63664977502287456
54.009497869018190385759 380.65699110284816697 54.009497869018190385759 131.11620870536458483
56.009497869018190385759 383.74231092477361926 56.009497869018190385759 131.54090315231766795
58.009497869018190385759 386.68975877202024094 58.009497869018190385759 131.91304272304964229
60.009497869018190385759 389.50803625122097174 60.009497869018190385759 132.30241831971116540
62.009497869018190385759 392.20445939032464366 62.009497869018190385759 132.67417711082748610
64.009497869018190385759 394.78669617327363994 64.009497869018190385759 133.02822095171239880
66.009497869018218807469 397.26508497504602246 66.009497869018218807469 133.40217346302048895
68.009497869018218807469 399.64857567595106502 68.009497869018218807469 133.77722859881006912
70.009497869018218807469 401.94248642671198013 70.009497869018218807469 134.08669536206758721
72.009497869018218807469 404.15237796159681238 72.009497869018218807469 134.29794802680896737
74.009497869018190385759 406.28340670905646448 74.009497869018190385759 134.48939904996504424
76.009497869018190385759 408.33972648952840245 76.009497869018190385759 134.65626776344066684
78.009497869018190385759 410.32666954712072993 78.009497869018190385759 134.86133831692077933
80.009497869018190385759 412.24753586093544300 80.009497869018190385759 134.96347110714799555
82.009497869018190385759 414.10227249504384872 82.009497869018190385759 135.10158611616822100
84.009497869018190385759 415.89171975975466466 84.009497869018190385759 135.20983039624641719
86.009497869018190385759 417.61735878216933315 86.009497869018190385759 135.18138974339493075
88.009497869018218807469 419.28352295869535737 88.009497869018218807469 135.19516089285201588
91.009497869018190385759 421.67518766531577512 91.009497869018190385759 135.14325556421297847
94.009497869018218807469 423.94622160051562787 94.009497869018218807469 135.18838510754775939
97.009497869018190385759 426.11299092105002728 97.009497869018190385759 135.39532029574252192
99.504748934509109403734 427.84748625304189318 99.504748934509109403734 135.49710036023029147
nan nan nan nan

