Time Pressure difference Time.1 Pressure.1 difference.1
(hr) (psi) (hr) (psi)
0.000200000000006639311 0.09711436504819745 0.000200000000006639311 0.07669065259016496
0.000399999999999067768 0.17626855730225699 0.000399999999999067768 0.15170072767879411
0.000600000000005707079 0.24667305921375743 0.000600000000005707079 0.20317654156620080
0.000799999999998135536 0.31115171595383323 0.000799999999998135536 0.24943834334568121
0.001007140329434719206 0.37325011327338975 0.001007140329434719206 0.29314797529925885
0.001267914553963578328 0.44614995071847241 0.001267914553963578328 0.34333400408263981
0.001596209851982166583 0.53135920667345715 0.001596209851982166583 0.40039020300262729
0.002009509145224797066 0.63053343250822846 0.002009509145224797066 0.46498250148361714
0.002529822128138903281 0.74548714757440571 0.002529822128138903281 0.53783355263413468
0.003184857364431081805 0.87820851145468060 0.003184857364431081805 0.61973875769819620
0.004009497869020606231 1.03087807581615576 0.004009497869020606231 0.71158548489256890
0.005047658755842121536 1.20589227534721011 0.005047658755842121536 0.81437477002726588
0.006354625877790454069 1.40589212809325059 0.006354625877790454069 0.92924468617160638
0.008000000000009777068 1.63379742494737989 0.008000000000009777068 1.05749467246087581
0.010071403294347192059 1.89284654407719333 0.010071403294347192059 1.20061035168870944
0.012679145539706837553 2.18664194270023948 0.012679145539706837553 1.36028840200774592
0.015962098519750611558 2.51920124655313238 0.015962098519750611558 1.53846032984641989
0.020095091452091651263 2.89501343736038175 0.020095091452091651263 1.73731308919704808
0.025298221281360611101 3.31909908259995179 0.025298221281360611101 1.95930735150867408
0.031848573644296607199 3.79707443657712762 0.031848573644296607199 2.20720538839225000
0.040094978690177640601 4.33522380576490551 0.040094978690177640601 2.48413110881460897
0.050476587558421215363 4.94059029926277038 0.050476587558421215363 2.79366298662008194
0.063546258777961384112 5.62108956959632433 0.063546258777961384112 3.13988208981912642
0.079999999999998294697 6.38562068441559294 0.079999999999998294697 3.52720654099181807
0.100714032943542974863 7.24410090523218919 0.100714032943542974863 3.95985930393241459
0.126791455396897845276 8.20732790021439129 0.126791455396897845276 4.44099153096057631
0.159620985197506115583 9.28660635798061840 0.159620985197506115583 4.97176643902831294
0.200950914520760193227 10.49318288135110322 0.200950914520760193227 5.55085119252874115
0.252982212813478213320 11.83763190542704180 0.252982212813478213320 6.17472053920005326
0.318485736442795541734 13.32942165784295874 0.318485736442795541734 6.83828846124523704
0.400949786901833249431 14.97657972613187383 0.400949786901833249431 7.53695226816261421
0.504765875584155310207 16.78618265291693490 0.504765875584155310207 8.26727637886565958
0.635462587779443310865 18.76431502450892808 0.635462587779443310865 9.02792483768919851
0.799999999999997157829 20.91695567740879014 0.799999999999997157829 9.82101014764598723
1.007140329435344483500 23.25051255369574221 1.007140329435344483500 10.65377702285248063
1.267914553968893187630 25.77341133912270266 1.267914553968893187630 11.52917654356845922
1.596209851975103788391 28.49226291945948475 1.596209851975103788391 12.46444943762413615
2.009509145207672986544 31.42175422276040564 2.009509145207672986544 13.46722676140274544
2.529822128134711078928 34.56990004753576784 2.529822128134711078928 14.55473615128326870
3.184857364427998049905 37.95625269865553975 3.184857364427998049905 15.75085016421281736
4.009497869018190385759 41.59576324350919663 4.009497869018190385759 17.06153613148298831
5.009497869018204596614 45.37241878002436835 5.009497869018204596614 18.44593891629338245
6.009497869018204596614 48.65592076272346844 6.009497869018204596614 19.66126695214148867
7.009497869018204596614 51.57390699806207124 7.009497869018204596614 20.74368462372830635
8.009497869018204596614 54.20648053867668636 8.009497869018204596614 21.71369655431277579
9.009497869018204596614 56.60779755365130228 9.009497869018204596614 22.58935224460553570
10.009497869018190385759 58.81662387214031895 10.009497869018190385759 23.38255951787814269
11.009497869018190385759 60.86193814242438549 11.009497869018190385759 24.09818546306941656
12.009497869018190385759 62.76616210269528295 12.009497869018190385759 24.75188518262386239
13.009497869018190385759 64.54702437140332449 13.009497869018190385759 25.35057097589084663
14.009497869018190385759 66.21905492335692145 14.009497869018190385759 25.89928287952955444
15.009497869018190385759 67.79397096039993187 15.009497869018190385759 26.40404309685285256
16.009497869018204596614 69.28149768052740853 16.009497869018204596614 26.87007262326468293
17.009497869018204596614 70.69016681597540241 17.009497869018204596614 27.30218402617261830
18.009497869018204596614 72.02737061636429416 18.009497869018204596614 27.70552508828087213
19.009497869018204596614 73.29938859164327880 19.009497869018204596614 28.08117009515155260
20.009497869018204596614 74.51189893963952215 20.009497869018204596614 28.43115406284352531
21.009497869018204596614 75.66953893721294833 21.009497869018204596614 28.75711455055361654
22.009497869018190385759 76.77627019544765119 22.009497869018190385759 29.06195804745412303
23.009497869018190385759 77.83572770240226646 23.009497869018190385759 29.34665099114227615
24.009497869018190385759 78.85126851147454374 24.009497869018190385759 29.61442039904576973
25.009497869018190385759 79.82604836895241363 25.009497869018190385759 29.86664541949172857
26.009497869018190385759 80.76284353045596731 26.009497869018190385759 30.10472461068128780
27.009497869018204596614 81.66418705485207852 27.009497869018204596614 30.33046067387958900
28.009497869018190385759 82.53227439137320687 28.009497869018190385759 30.54429749358432389
29.009497869018190385759 83.36907296719157046 29.009497869018190385759 30.74517640495948001
30.009497869018190385759 84.17640992850732573 30.009497869018190385759 30.93748299654332001
31.009497869018190385759 84.95595909073068697 31.009497869018190385759 31.11962704247818223
32.009497869018190385759 85.70926202398716498 32.009497869018190385759 31.29235139109283281
33.009497869018218807469 86.43775228303485392 33.009497869018218807469 31.45516677940781847
34.009497869018190385759 87.14279721741111473 34.009497869018190385759 31.61196476228308683
35.009497869018218807469 87.82561788644392209 35.009497869018218807469 31.76074162575234894
36.009497869018190385759 88.48734341831908523 36.009497869018190385759 31.90408959966290325
37.009497869018218807469 89.12901986203533511 37.009497869018218807469 32.04158283211289415
38.009497869018190385759 89.75164289962179964 38.009497869018190385759 32.17380832865943319
39.009497869018190385759 90.35612377018590280 39.009497869018190385759 32.30136147823599657
40.009497869018190385759 90.94331567642066716 40.009497869018190385759 32.42356215481121495
41.009497869018190385759 91.51403743556407733 41.009497869018190385759 32.54227612584979568
42.009497869018190385759 92.06903912192792916 42.009497869018190385759 32.65460950827556985
43.009497869018190385759 92.60902855791984223 43.009497869018190385759 32.76515241153991553
44.009497869018218807469 93.13468747062775321 44.009497869018218807469 32.86765489899596560
46.009497869018218807469 94.14554533200852404 46.009497869018218807469 33.06338452509940851
48.009497869018218807469 95.10596316888440072 48.009497869018218807469 33.24310980382448122
50.009497869018218807469 96.01940330769194532 50.009497869018218807469 33.39823134558663043
52.009497869018190385759 96.88931824838695661 52.009497869018190385759 33.53591848251426200
54.009497869018190385759 97.71899268244257541 54.009497869018190385759 33.65902673141070522
56.009497869018190385759 98.51102948236638213 56.009497869018190385759 33.76805064145067092
58.009497869018190385759 99.26767297335418050 58.009497869018190385759 33.86358311514529618
60.009497869018190385759 99.99115695710874263 60.009497869018190385759 33.96354027334866998
62.009497869018190385759 100.68335954147593725 62.009497869018190385759 34.05897499657148586
64.009497869018190385759 101.34624918542091621 64.009497869018190385759 34.14986208995301808
66.009497869018218807469 101.98247986775508878 66.009497869018218807469 34.24585996617807382
68.009497869018218807469 102.59434912486662483 68.009497869018218807469 34.34214089868780917
70.009497869018218807469 103.18322218672302881 70.009497869018218807469 34.42158454764486208
72.009497869018218807469 103.75052655725554018 72.009497869018218807469 34.47581551694928237
74.009497869018190385759 104.29758595047925951 74.009497869018190385759 34.52496317893398015
76.009497869018190385759 104.82546669949302043 76.009497869018190385759 34.56780028155439766
78.009497869018190385759 105.33553765219708964 78.009497869018190385759 34.62044423236388724
80.009497869018190385759 105.82864595087772841 80.009497869018190385759 34.64666288488866286
82.009497869018190385759 106.30477800627804186 82.009497869018190385759 34.68211858351298105
84.009497869018190385759 106.76414953564170673 84.009497869018190385759 34.70990612521090668
86.009497869018190385759 107.20714076119448066 86.009497869018190385759 34.70260508513326414
88.009497869018218807469 107.63486411523557251 88.009497869018218807469 34.70614029631938990
91.009497869018190385759 108.24883173287467741 91.009497869018190385759 34.69281560624930449
94.009497869018218807469 108.83183205516593262 94.009497869018218807469 34.70440087492417547
97.009497869018190385759 109.38806646127626720 97.009497869018190385759 34.75752349873926761
99.504748934509109403734 109.83333120254262383 99.504748934509109403734 34.78365160254233501
nan nan nan nan

