Time Pressure difference Time.1 Pressure.1 difference.1
(hr) (psi) (hr) (psi)
0.000200000000006639311 0.53000323408656769 0.000200000000006639311 0.41854048962606366
0.000399999999999067768 0.96198853168225218 0.000399999999999067768 0.82790920007707902
0.000600000000005707079 1.34622225126462380 0.000600000000005707079 1.10883929547567117
0.000799999999998135536 1.69811557399641000 0.000799999999998135536 1.36131383459897926
0.001007140329434719206 2.03701859204758451 0.001007140329434719206 1.59985986519530154
0.001267914553963578328 2.43487064607793746 0.001267914553963578328 1.87375093731375331
0.001596209851982166583 2.89990155276037065 0.001596209851982166583 2.18513607521041697
0.002009509145224797066 3.44114651074752098 0.002009509145224797066 2.53764959960013314
0.002529822128138903281 4.06850828904986184 0.002529822128138903281 2.93523540163073493
0.003184857364431081805 4.79283730107619821 0.003184857364431081805 3.38223439658819514
0.004009497869020606231 5.62603394317967265 0.004009497869020606231 3.88348941101499978
0.005047658755842121536 6.58117679682954471 0.005047658755842121536 4.44446361420109159
0.006354625877790454069 7.67267926116250987 0.006354625877790454069 5.07136805851824413
0.008000000000009777068 8.91647614268668143 0.008000000000009777068 5.77129445427994270
0.010071403294347192059 10.33024094316638219 0.010071403294347192059 6.55235061215733605
0.012679145539706837553 11.93363413173006471 0.012679145539706837553 7.42379618089194793
0.015962098519750611558 13.74858196648278152 0.015962098519750611558 8.39617238837752033
0.020095091452091651263 15.79958313853541618 0.020095091452091651263 9.48141457176166824
0.025298221281360611101 18.11403747693437793 0.025298221281360611101 10.69295188568459309
0.031848573644296607199 20.72259578131961888 0.031848573644296607199 12.04585947259822909
0.040094978690177640601 23.65955475695226440 0.040094978690177640601 13.55718611673332497
0.050476587558421215363 26.96335228682623253 0.050476587558421215363 15.24646139756711527
0.063546258777961384112 30.67718817394072417 0.063546258777961384112 17.13595781045078681
0.079999999999998294697 34.84962922540535857 0.079999999999998294697 19.24978733155665367
0.100714032943542974863 39.53479905796652361 0.100714032943542974863 21.61099685479455346
0.126791455396897845276 44.79162612208508421 0.126791455396897845276 24.23678384543843833
0.159620985197506115583 50.68180594061317379 0.159620985197506115583 27.13349657901072476
0.200950914520760193227 57.26671703221025922 0.200950914520760193227 30.29386108340848693
0.252982212813478213320 64.60406954922602552 0.252982212813478213320 33.69863823681075132
0.318485736442795541734 72.74553649868542493 0.318485736442795541734 37.32007101398544791
0.400949786901833249431 81.73492857071970263 0.400949786901833249431 41.13304015631229760
0.504765875584155310207 91.61086611232443033 0.504765875584155310207 45.11879592387467142
0.635462587779443310865 102.40655585271213113 0.635462587779443310865 49.27004731680053595
0.799999999999997157829 114.15462738978000345 0.799999999999997157829 53.59832335479999443
1.007140329435344483500 126.89005217213036758 1.007140329435344483500 58.14316218354131394
1.267914553968893187630 140.65881351743436767 1.267914553968893187630 62.92066937176250718
1.596209851975103788391 155.49699044280174576 1.596209851975103788391 68.02493647330818760
2.009509145207672986544 171.48473709807149135 2.009509145207672986544 73.49761010308033349
2.529822128134711078928 188.66579437707429179 2.529822128134711078928 79.43271036811458430
3.184857364427998049905 207.14686930312009849 3.184857364427998049905 85.96052213802418862
4.009497869018190385759 227.00955757078546071 4.009497869018190385759 93.11361222083853306
5.009497869018204596614 247.62071687137483877 5.009497869018204596614 100.66901303990181304
6.009497869018204596614 265.54048259394829756 6.009497869018204596614 107.30168565384407486
7.009497869018204596614 281.46544015282245255 7.009497869018204596614 113.20899778309239991
8.009497869018204596614 295.83275326663419946 8.009497869018204596614 118.50285374412527517
9.009497869018204596614 308.93798011306427043 9.009497869018204596614 123.28175898199754101
10.009497869018190385759 320.99268583815137390 10.009497869018190385759 127.61070063678594977
11.009497869018190385759 332.15502188839457176 11.009497869018190385759 131.51624092590171244
12.009497869018190385759 342.54735526634351572 12.009497869018190385759 135.08381782673808402
13.009497869018190385759 352.26644019687432774 13.009497869018190385759 138.35115532594025467
14.009497869018190385759 361.39157425492174980 14.009497869018190385759 141.34575950592926574
15.009497869018190385759 369.98670426100619579 15.009497869018190385759 144.10049663968715095
16.009497869018204596614 378.10490564209408149 16.009497869018204596614 146.64386039494124248
17.009497869018204596614 385.79274046627102734 17.009497869018204596614 149.00211543695513683
18.009497869018204596614 393.09055205662872368 18.009497869018204596614 151.20335587395118182
19.009497869018204596614 400.03261094132119524 19.009497869018204596614 153.25344463693821240
20.009497869018204596614 406.64990597777125458 20.009497869018204596614 155.16348785930944132
21.009497869018204596614 412.96774518021442191 21.009497869018204596614 156.94242254713901730
22.009497869018190385759 419.00774910587438171 22.009497869018190385759 158.60611091257641192
23.009497869018190385759 424.78975576147638549 23.009497869018190385759 160.15982730459998606
24.009497869018190385759 430.33208632079237077 24.009497869018190385759 161.62118322355041755
25.009497869018190385759 435.65196332075333885 25.009497869018190385759 162.99770539395811397
26.009497869018190385759 440.76453822176949870 26.009497869018190385759 164.29702647005800031
27.009497869018204596614 445.68363523399671067 27.009497869018204596614 165.52898472346049630
28.009497869018190385759 450.42123605749424087 28.009497869018190385759 166.69600266106473896
29.009497869018190385759 454.98807795820232514 29.009497869018190385759 167.79230260222985294
30.009497869018190385759 459.39413261636349262 30.009497869018190385759 168.84181896806319401
31.009497869018190385759 463.64853490692888727 31.009497869018190385759 169.83587307496262042
32.009497869018190385759 467.75969797404758310 32.009497869018190385759 170.77851902982035881
33.009497869018218807469 471.73544546623594442 33.009497869018218807469 171.66708667193157112
34.009497869018190385759 475.58323971593654278 34.009497869018190385759 172.52281422553187440
35.009497869018218807469 479.30974467438346664 35.009497869018218807469 173.33476638890988397
36.009497869018190385759 482.92112257710090262 36.009497869018190385759 174.11709029881387778
37.009497869018218807469 486.42308225359164453 37.009497869018218807469 174.86746186153115445
38.009497869018190385759 489.82105765479866477 38.009497869018190385759 175.58908466948119553
39.009497869018190385759 493.12002188304074934 39.009497869018190385759 176.28520806749710914
40.009497869018190385759 496.32463130595590428 40.009497869018190385759 176.95212025664946509
41.009497869018190385759 499.43935463200011782 41.009497869018190385759 177.60000369336324866
42.009497869018190385759 502.46828540398576024 42.009497869018190385759 178.21306496346471704
43.009497869018190385759 505.41528657426846394 43.009497869018190385759 178.81635466428647874
44.009497869018218807469 508.28407867956980226 44.009497869018218807469 179.37576366445509279
46.009497869018218807469 513.80085197534060626 46.009497869018218807469 180.44396129711114440
48.009497869018218807469 519.04234801319262260 48.009497869018218807469 181.42481494244077567
50.009497869018218807469 524.02746249622725827 50.009497869018218807469 182.27139329127345491
52.009497869018190385759 528.77503749936670374 52.009497869018190385759 183.02282309084583289
54.009497869018190385759 533.30299927999703868 54.009497869018190385759 183.69468837077084800
56.009497869018190385759 537.62555305735907041 56.009497869018190385759 184.28968814125039444
58.009497869018190385759 541.75494727288071317 58.009497869018190385759 184.81105817742692921
60.009497869018190385759 545.70337293585487259 60.009497869018190385759 185.35657600160874381
62.009497869018190385759 549.48107985053866287 62.009497869018190385759 185.87741256298818371
64.009497869018190385759 553.09881091389854646 64.009497869018190385759 186.37343036020112663
66.009497869018218807469 556.57105025866349024 66.009497869018218807469 186.89734033829211057
68.009497869018218807469 559.91033672721323455 68.009497869018218807469 187.42279510068186710
70.009497869018218807469 563.12412108440344127 70.009497869018218807469 187.85636011296381298
72.009497869018218807469 566.22019395626398364 72.009497869018218807469 188.15232651406958553
74.009497869018190385759 569.20577953366137081 74.009497869018190385759 188.42055068241745630
76.009497869018190385759 572.08669734690636233 76.009497869018190385759 188.65433486992105827
78.009497869018190385759 574.87041790578143718 78.009497869018190385759 188.94164009165913853
80.009497869018190385759 577.56156450315620532 80.009497869018190385759 189.08472881622245154
82.009497869018190385759 580.16006297543890469 82.009497869018190385759 189.27822887080614578
84.009497869018190385759 582.66709060301195677 84.009497869018190385759 189.42987983366739968
86.009497869018190385759 585.08472245488496810 86.009497869018190385759 189.39003428814558561
88.009497869018218807469 587.41902964850783064 88.009497869018218807469 189.40932776095877443
91.009497869018190385759 590.76976795392386066 91.009497869018190385759 189.33660804717760584
94.009497869018218807469 593.95150173897752666 94.009497869018218807469 189.39983484027246163
97.009497869018190385759 596.98716009912209302 97.009497869018190385759 189.68975242776005530
99.504748934509109403734 599.41719970015094532 99.504748934509109403734 189.83234698119511563
nan nan nan nan

