Time Pressure difference Time.1 Pressure.1 difference.1
(hr) (psi) (hr) (psi)
0.000200000000006639311 0.14662364919041573 0.000200000000006639311 0.11578784802828827
0.000399999999999067768 0.26613095906419193 0.000399999999999067768 0.22903835355425778
0.000600000000005707079 0.37242795214626112 0.000600000000005707079 0.30675673922740121
0.000799999999998135536 0.46977808094990509 0.000799999999998135536 0.37660298897289124
0.001007140329434719206 0.56353448474609824 0.001007140329434719206 0.44259596270672419
0.001267914553963578328 0.67359894520239949 0.001267914553963578328 0.51836702577182869
0.001596209851982166583 0.80224821399718038 0.001596209851982166583 0.60451069865102547
0.002009509145224797066 0.95198184908105077 0.002009509145224797066 0.70203240420075530
0.002529822128138903281 1.12553941888684794 0.002529822128138903281 0.81202320691820329
0.003184857364431081805 1.32592265454922376 0.003184857364431081805 0.93568400672080609
0.004009497869020606231 1.55642376152635276 0.004009497869020606231 1.07435455562211390
0.005047658755842121536 1.82066088630853273 0.005047658755842121536 1.22954622141371517
0.006354625877790454069 2.12262144829765287 0.006354625877790454069 1.40297727127869987
0.008000000000009777068 2.46671375923427894 0.008000000000009777068 1.59660960351936154
0.010071403294347192059 2.85782713517537035 0.010071403294347192059 1.81268621725550227
0.012679145539706837553 3.30140058015526350 0.012679145539706837553 2.05376876381561679
0.015962098519750611558 3.80349992126649461 0.015962098519750611558 2.32277343917988910
0.020095091452091651263 4.37090264072057710 0.020095091452091651263 2.62300211506221004
0.025298221281360611101 5.01118881098424129 0.025298221281360611101 2.95816992286603719
0.031848573644296607199 5.73283787483213292 0.031848573644296607199 3.33244735110202495
0.040094978690177640601 6.54533790282152417 0.040094978690177640601 3.75055088977891993
0.050476587558421215363 7.45932260869084995 0.050476587558421215363 4.21788333274012306
0.063546258777961384112 8.48674307566503749 0.063546258777961384112 4.74060629247201426
0.079999999999998294697 9.64103515098040553 0.079999999999998294697 5.32539026777196156
0.100714032943542974863 10.93717195495840322 0.100714032943542974863 5.97861110593717537
0.126791455396897845276 12.39145584934329669 0.126791455396897845276 6.70502642909734092
0.159620985197506115583 14.02095469734328503 0.159620985197506115583 7.50639246676823735
0.200950914520760193227 15.84264866400068250 0.200950914520760193227 8.38069689852378552
0.252982212813478213320 17.87250307289965434 0.252982212813478213320 9.32261728467459072
0.318485736442795541734 20.12481309125309537 0.318485736442795541734 10.32447473560555373
0.400949786901833249431 22.61169880219910411 0.400949786901833249431 11.37932009114747522
0.504765875584155310207 25.34384439754125040 0.504765875584155310207 12.48196629750305320
0.635462587779443310865 28.33043640955269993 0.635462587779443310865 13.63039632356996655
0.799999999999997157829 31.58050170902896170 0.799999999999997157829 14.82779963468119711
1.007140329435344483500 35.10371503205043808 1.007140329435344483500 16.08511432862040991
1.267914553968893187630 38.91279751200877968 1.267914553968893187630 17.40679595793669421
1.596209851975103788391 43.01773029016431593 1.596209851975103788391 18.81887464111879282
2.009509145207672986544 47.44068774808923905 2.009509145207672986544 20.33287177701982884
2.529822128134711078928 52.19377066000497933 2.529822128134711078928 21.97479771860415099
3.184857364427998049905 57.30649917247993130 3.184857364427998049905 23.78069534596836831
4.009497869018190385759 62.80144646569034705 4.009497869018190385759 25.75957415929784844
5.009497869018204596614 68.50345580513483412 5.009497869018204596614 27.84975091283510906
6.009497869018204596614 73.46089997509228908 6.009497869018204596614 29.68465794735087471
7.009497869018204596614 77.86648703628979717 7.009497869018204596614 31.31889639268783654
8.009497869018204596614 81.84115689172755026 8.009497869018204596614 32.78342420945261892
9.009497869018204596614 85.46667473786570213 9.009497869018204596614 34.10549260460051357
10.009497869018190385759 88.80156937558439267 10.009497869018190385759 35.30308005640426217
11.009497869018190385759 91.88959288169957063 11.009497869018190385759 36.38353491483029245
12.009497869018190385759 94.76459768446150633 12.009497869018190385759 37.37049331494191051
13.009497869018190385759 97.45335052153049560 13.009497869018190385759 38.27439147340382419
14.009497869018190385759 99.97778880585259742 14.009497869018190385759 39.10283885732893339
15.009497869018190385759 102.35560321472145517 15.009497869018190385759 39.86492781289548759
16.009497869018204596614 104.60147689020806183 16.009497869018204596614 40.56854101943883251
17.009497869018204596614 106.72829107510011681 17.009497869018204596614 41.22094451010375593
18.009497869018204596614 108.74720661686374967 18.009497869018204596614 41.82991042740445664
19.009497869018204596614 110.66770434424573466 19.009497869018204596614 42.39706073189547908
20.009497869018204596614 112.49835722259300042 20.009497869018204596614 42.92546789880297098
21.009497869018204596614 114.24616663069406286 21.009497869018204596614 43.41760432142408632
22.009497869018190385759 115.91711382449938128 22.009497869018190385759 43.87785822850916162
23.009497869018190385759 117.51668692323478638 23.009497869018190385759 44.30768875133245643
24.009497869018190385759 119.04995441928508626 24.009497869018190385759 44.71196805346125558
25.009497869018190385759 120.52168087077127723 25.009497869018190385759 45.09277837844829406
26.009497869018190385759 121.93605787931586804 26.009497869018190385759 45.45223127495017934
27.009497869018204596614 123.29690986712962797 27.009497869018204596614 45.79304846840643251
28.009497869018190385759 124.60755153207325918 28.009497869018190385759 46.11590013737239957
29.009497869018190385759 125.87095330340687838 29.009497869018190385759 46.41918790552706042
30.009497869018190385759 127.08987381362869939 30.009497869018190385759 46.70953315164383213
31.009497869018190385759 128.26684019580906693 31.009497869018190385759 46.98453494648666862
32.009497869018190385759 129.40417991856884328 32.009497869018190385759 47.24531484537545367
33.009497869018218807469 130.50405736850359517 33.009497869018218807469 47.49113415714514019
34.009497869018190385759 131.56853697530698355 34.009497869018190385759 47.72786836658426779
35.009497869018218807469 132.59946229914081073 35.009497869018218807469 47.95249225848883157
36.009497869018190385759 133.59853810216804959 36.009497869018190385759 48.16891959164791359
37.009497869018218807469 134.56734371326902533 37.009497869018218807469 48.37650741319005476
38.009497869018190385759 135.50738241707605880 38.009497869018190385759 48.57614198640737158
39.009497869018190385759 136.42003000596696438 39.009497869018190385759 48.76872223184651034
40.009497869018190385759 137.30657464871356410 40.009497869018190385759 48.95322129255811205
41.009497869018190385759 138.16825259879283294 41.009497869018190385759 49.13245611157713455
42.009497869018190385759 139.00619632134217341 42.009497869018190385759 49.30205749288664663
43.009497869018190385759 139.82147448940838785 43.009497869018190385759 49.46895560173673090
44.009497869018218807469 140.61511637722227874 44.009497869018218807469 49.62371425926841795
46.009497869018218807469 142.14131354048345202 46.009497869018218807469 49.91922761632655892
48.009497869018218807469 143.59135615694310673 48.009497869018218807469 50.19057754695068496
50.009497869018218807469 144.97047166063293844 50.009497869018218807469 50.42478065902295015
52.009497869018190385759 146.28387264952542068 52.009497869018190385759 50.63266123830585741
54.009497869018190385759 147.53651836368780437 54.009497869018190385759 50.81853055526714513
56.009497869018190385759 148.73233863023943968 56.009497869018190385759 50.98313528219022572
58.009497869018190385759 149.87472194016220328 58.009497869018190385759 51.12737058561151571
60.009497869018190385759 150.96704089602692989 60.009497869018190385759 51.27828629505583535
62.009497869018190385759 152.01213107242446654 62.009497869018190385759 51.42237401443146183
64.009497869018190385759 153.01296445641983723 64.009497869018190385759 51.55959570443887685
66.009497869018218807469 153.97354803563024461 66.009497869018218807469 51.70453367442571846
68.009497869018218807469 154.89735063950450922 68.009497869018218807469 51.84989900390121420
70.009497869018218807469 155.78643349760145043 70.009497869018218807469 51.96984333664028810
72.009497869018218807469 156.64295186095446866 72.009497869018218807469 52.05172146676655842
74.009497869018190385759 157.46890427817459113 74.009497869018190385759 52.12592479956698099
76.009497869018190385759 158.26590070315614867 76.009497869018190385759 52.19060042509193664
78.009497869018190385759 159.03600782782697820 78.009497869018190385759 52.27008246847097439
80.009497869018190385759 159.78050467093302700 80.009497869018190385759 52.30966749287112094
82.009497869018190385759 160.49937071536095345 82.009497869018190385759 52.36319864569607319
84.009497869018190385759 161.19293165185121097 84.009497869018190385759 52.40515238512235641
86.009497869018190385759 161.86176154141125494 86.009497869018190385759 52.39412924618159195
88.009497869018218807469 162.50753993868900693 88.009497869018218807469 52.39946672189397958
91.009497869018190385759 163.43451065551667511 91.009497869018190385759 52.37934905257248630
94.009497869018218807469 164.31472682838779065 94.009497869018218807469 52.39684053665022390
97.009497869018190385759 165.15453171604454496 97.009497869018190385759 52.47704528241027333
99.504748934509109403734 165.82679416854475107 99.504748934509109403734 52.51649359599528566
nan nan nan nan

