Time Pressure difference Time.1 Pressure.1 difference.1
(hr) (psi) (hr) (psi)
0.000200000000006639311 0.29642097044123006 0.000200000000006639311 0.23408192653337934
0.000399999999999067768 0.53802232849773868 0.000399999999999067768 0.46303424722873759
0.000600000000005707079 0.75291711537793915 0.000600000000005707079 0.62015323471513584
0.000799999999998135536 0.94972451863032759 0.000799999999998135536 0.76135755779368053
0.001007140329434719206 1.13926668561224176 0.001007140329434719206 0.89477192460623456
0.001267914553963578328 1.36177795415376868 0.001267914553963578328 1.04795411703655428
0.001596209851982166583 1.62186110795100968 0.001596209851982166583 1.22210604445899973
0.002009509145224797066 1.92456936589112848 0.002009509145224797066 1.41926031498594263
0.002529822128138903281 2.27544116285782660 0.002529822128138903281 1.64162267372641102
0.003184857364431081805 2.68054493365578983 0.003184857364431081805 1.89162091401998467
0.004009497869020606231 3.14653634905976887 0.004009497869020606231 2.17196353885509597
0.005047658755842121536 3.68073001690945789 0.005047658755842121536 2.48570599740348452
0.006354625877790454069 4.29118708378789471 0.006354625877790454069 2.83632201596170042
0.008000000000009777068 4.98681959117925722 0.008000000000009777068 3.22777785646554882
0.010071403294347192059 5.77751200054934255 0.010071403294347192059 3.66460806691913277
0.012679145539706837553 6.67426004732687428 0.012679145539706837553 4.15199139697789121
0.015962098519750611558 7.68932668065563973 0.015962098519750611558 4.69582335972730736
0.020095091452091651263 8.83641356370783271 0.020095091452091651263 5.30277916767987900
0.025298221281360611101 10.13084491224952721 0.025298221281360611101 5.98036949774216176
0.031848573644296607199 11.58976314955240738 0.031848573644296607199 6.73702559724954853
0.040094978690177640601 13.23234978622360281 0.040094978690177640601 7.58228253474785863
0.050476587558421215363 15.08010241670401186 0.050476587558421215363 8.52706284151358318
0.063546258777961384112 17.15718188889858453 0.063546258777961384112 9.58382311075511062
0.079999999999998294697 19.49075071648419666 0.079999999999998294697 10.76604872315803441
0.100714032943542974863 22.11107923361720395 0.100714032943542974863 12.08662937866952980
0.126791455396897845276 25.05112502875896041 0.126791455396897845276 13.55518330038293406
0.159620985197506115583 28.34539326259443470 0.159620985197506115583 15.17526096095570054
0.200950914520760193227 32.02821180124813338 0.200950914520760193227 16.94279416281648309
0.252982212813478213320 36.13185686166293920 0.252982212813478213320 18.84702282226421488
0.318485736442795541734 40.68522819746837627 0.318485736442795541734 20.87242295033676953
0.400949786901833249431 45.71282831440251471 0.400949786901833249431 23.00494581197346733
0.504765875584155310207 51.23625685563533949 0.504765875584155310207 25.23410502568799174
0.635462587779443310865 57.27408572840307954 0.635462587779443310865 27.55582287059382907
0.799999999999997157829 63.84456406111049631 0.799999999999997157829 29.97654731340311329
1.007140329435344483500 70.96725073579027310 1.007140329435344483500 32.51839130504645681
1.267914553968893187630 78.66786336843334482 1.267914553968893187630 35.19036239115339981
1.596209851975103788391 86.96658028357894921 1.596209851975103788391 38.04508423117955118
2.009509145207672986544 95.90823020934058718 2.009509145207672986544 41.10584900375870632
2.529822128134711078928 105.51727661568106953 2.529822128134711078928 44.42524040947246533
3.184857364427998049905 115.85339875994860392 3.184857364427998049905 48.07612435743389057
4.009497869018190385759 126.96223159946923431 4.009497869018190385759 52.07671485884023355
5.009497869018204596614 138.48967039393056666 5.009497869018204596614 56.30231028698699447
6.009497869018204596614 148.51186272020822798 6.009497869018204596614 60.01184095849722411
7.009497869018204596614 157.41839586990187172 7.009497869018204596614 63.31569097569359172
8.009497869018204596614 165.45376739583014114 8.009497869018204596614 66.27644634551677427
9.009497869018204596614 172.78327750036052635 9.009497869018204596614 68.94919933484173669
10.009497869018190385759 179.52525064241521591 10.009497869018190385759 71.37029604476532541
11.009497869018190385759 185.76813799027573282 11.009497869018190385759 73.55459223041449945
12.009497869018190385759 191.58037713698493576 12.009497869018190385759 75.54987176657087389
13.009497869018190385759 197.01608092447943932 13.009497869018190385759 77.37723297869952432
14.009497869018190385759 202.11959901442929777 14.009497869018190385759 79.05205950810655224
15.009497869018190385759 206.92669567651483931 15.009497869018190385759 80.59273285117831165
16.009497869018204596614 211.46705501180591114 16.009497869018204596614 82.01518898735035634
17.009497869018204596614 215.76671832065693479 17.009497869018204596614 83.33411725635693301
18.009497869018204596614 219.84824887478515620 18.009497869018204596614 84.56523017141940102
19.009497869018204596614 223.73081354442751945 19.009497869018204596614 85.71180676101812423
20.009497869018204596614 227.43174382229841513 20.009497869018204596614 86.78005847939820683
21.009497869018204596614 230.96519401097023660 21.009497869018204596614 87.77498362816038480
22.009497869018190385759 234.34325608675848684 22.009497869018190385759 88.70545364811160027
23.009497869018190385759 237.57702507857422347 23.009497869018190385759 89.57441838472838924
24.009497869018190385759 240.67674767881445064 24.009497869018190385759 90.39172762323120480
25.009497869018190385759 243.65205613268480533 25.009497869018190385759 91.16159092093226946
26.009497869018190385759 246.51142437073812630 26.009497869018190385759 91.88827707966119362
27.009497869018204596614 249.26258401709756640 27.009497869018204596614 92.57728846210305562
28.009497869018190385759 251.91223621419140954 28.009497869018190385759 93.22997993139789230
29.009497869018190385759 254.46638611554550380 29.009497869018190385759 93.84312013801358887
30.009497869018190385759 256.93061069681647268 30.009497869018190385759 94.43009515938385334
31.009497869018190385759 259.31001892399496001 31.009497869018190385759 94.98605116887131317
32.009497869018190385759 261.60931611243142925 32.009497869018190385759 95.51325555320492811
33.009497869018218807469 263.83287788351157133 33.009497869018218807469 96.01021494106831256
34.009497869018190385759 265.98487778124831493 34.009497869018190385759 96.48880747703398697
35.009497869018218807469 268.06904282986477028 35.009497869018218807469 96.94291724984539371
36.009497869018190385759 270.08881945330074359 36.009497869018190385759 97.38045649047435859
37.009497869018218807469 272.04740049392484025 37.009497869018218807469 97.80012537644915938
38.009497869018190385759 273.94782505962990626 38.009497869018190385759 98.20371561754217282
39.009497869018190385759 275.79287451422760569 39.009497869018190385759 98.59304451200138431
40.009497869018190385759 277.58515307770232994 40.009497869018190385759 98.96603611958717295
41.009497869018190385759 279.32716001574129905 41.009497869018190385759 99.32838529916243431
42.009497869018190385759 281.02118477085190307 42.009497869018190385759 99.67125908735093276
43.009497869018190385759 282.66938782057889057 43.009497869018190385759 100.00866781822968221
44.009497869018218807469 284.27384999204679161 44.009497869018218807469 100.32153488778506301
46.009497869018218807469 287.35927888920247142 46.009497869018218807469 100.91895799491126695
48.009497869018218807469 290.29075032594124650 48.009497869018218807469 101.46753123128125651
50.009497869018218807469 293.07883231824922632 50.009497869018218807469 101.94100678685592243
52.009497869018190385759 295.73406288886735638 52.009497869018190385759 102.36126752505988691
54.009497869018190385759 298.26646786078879359 54.009497869018190385759 102.73702930437124792
56.009497869018190385759 300.68399194944510100 56.009497869018190385759 103.06980163109452064
58.009497869018190385759 302.99348548076079624 58.009497869018190385759 103.36139421420165263
60.009497869018190385759 305.20176665993324150 60.009497869018190385759 103.66649220688776722
62.009497869018190385759 307.31456801221742126 62.009497869018190385759 103.95778642744369336
64.009497869018190385759 309.33789784046780369 64.009497869018190385759 104.23519997390889102
66.009497869018218807469 311.27985685125247528 66.009497869018218807469 104.52821309938013883
68.009497869018218807469 313.14745778635762008 68.009497869018218807469 104.82209019403404682
70.009497869018218807469 314.94486772025919663 70.009497869018218807469 105.06457505719053813
72.009497869018218807469 316.67644380547932315 72.009497869018218807469 105.23010357134192816
74.009497869018190385759 318.34622639786806531 74.009497869018190385759 105.38011636968737150
76.009497869018190385759 319.95747025270094355 76.009497869018190385759 105.51086752605166907
78.009497869018190385759 321.51435348742506903 78.009497869018190385759 105.67155200335906784
80.009497869018190385759 323.01946182392094897 80.009497869018190385759 105.75157887086932362
82.009497869018190385759 324.47275378386831335 82.009497869018190385759 105.85979985948080184
84.009497869018190385759 325.87488779833125818 84.009497869018190385759 105.94461542793133901
86.009497869018190385759 327.22702441488775094 86.009497869018190385759 105.92233055396886243
88.009497869018218807469 328.53255909683014124 88.009497869018218807469 105.93312103517095579
91.009497869018190385759 330.40656483171551372 91.009497869018190385759 105.89245024914005455
94.009497869018218807469 332.18604947557184914 94.009497869018218807469 105.92781182084698344
97.009497869018190385759 333.88383684585636502 97.009497869018190385759 106.08995734582509840
99.504748934509109403734 335.24291288619218676 99.504748934509109403734 106.16970783259654354
nan nan nan nan

