Time Pressure difference Time.1 Pressure.1 difference.1
(hr) (psi) (hr) (psi)
0.000200000000006639311 0.16630041596488712 0.000200000000006639311 0.13132647698446551
0.000399999999999067768 0.30184550335419169 0.000399999999999067768 0.25977510229963435
0.000600000000005707079 0.42240746087584602 0.000600000000005707079 0.34792322804146802
0.000799999999998135536 0.53282189267911306 0.000799999999998135536 0.42714278402985933
0.001007140329434719206 0.63916032469037987 0.001007140329434719206 0.50199195770199878
0.001267914553963578328 0.76399534044601147 0.001267914553963578328 0.58793143182778851
0.001596209851982166583 0.90990922972840382 0.001596209851982166583 0.68563551102410691
0.002009509145224797066 1.07973698900101844 0.002009509145224797066 0.79624454502423336
0.002529822128138903281 1.27658583440845952 0.002529822128138903281 0.92099601823623067
0.003184857364431081805 1.50386032680474724 0.003184857364431081805 1.06125199030671502
0.004009497869020606231 1.76529448277014889 0.004009497869020606231 1.21853200680949691
0.005047658755842121536 2.06499200092136581 0.005047658755842121536 1.39455025978525260
0.006354625877790454069 2.40747540889171008 0.006354625877790454069 1.59125560638536512
0.008000000000009777068 2.79774461004061115 0.008000000000009777068 1.81087322996568267
0.010071403294347192059 3.24134506240669706 0.010071403294347192059 2.05594713818589447
0.012679145539706837553 3.74444567965661923 0.012679145539706837553 2.32938275376489834
0.015962098519750611558 4.31392631762693224 0.015962098519750611558 2.63448762365857547
0.020095091452091651263 4.95747399077398665 0.020095091452091651263 2.97500672790605636
0.025298221281360611101 5.68368601072671531 0.025298221281360611101 3.35515376532857879
0.031848573644296607199 6.50217975413861016 0.031848573644296607199 3.77965890038411523
0.040094978690177640601 7.42371658242095034 0.040094978690177640601 4.25387157195704368
0.050476587558421215363 8.46035724448918991 0.050476587558421215363 4.78391962414680627
0.063546258777961384112 9.62565664858978565 0.063546258777961384112 5.37679155250072593
0.079999999999998294697 10.93485372102539444 0.079999999999998294697 6.04005303097945312
0.100714032943542974863 12.40493096190087208 0.100714032943542974863 6.78093554006727306
0.126791455396897845276 14.05437849579196374 0.126791455396897845276 7.60483517066451586
0.159620985197506115583 15.90255467837203973 0.159620985197506115583 8.51374383676743740
0.200950914520760193227 17.96871839813064398 0.200950914520760193227 9.50537916629104629
0.252982212813478213320 20.27097751125415570 0.252982212813478213320 10.57370445274780479
0.318485736442795541734 22.82554558401865918 0.318485736442795541734 11.71001030618465499
0.400949786901833249431 25.64616920422582069 0.400949786901833249431 12.90641499515428059
0.504765875584155310207 28.74496637296886448 0.504765875584155310207 14.15703536773073523
0.635462587779443310865 32.13235644719829764 0.635462587779443310865 15.45958370898411793
0.799999999999997157829 35.81857769595492158 0.799999999999997157829 16.81767750773365222
1.007140329435344483500 39.81460319652473601 1.007140329435344483500 18.24372274501535784
1.267914553968893187630 44.13486124738658845 1.267914553968893187630 19.74277290467278689
1.596209851975103788391 48.79067245031624367 1.596209851975103788391 21.34435132455897843
2.009509145207672986544 53.80718696969428549 2.009509145207672986544 23.06152556527790409
2.529822128134711078928 59.19812949316582262 2.529822128134711078928 24.92379654664193822
3.184857364427998049905 64.99698174541013884 3.184857364427998049905 26.97204407205070353
4.009497869018190385759 71.22934620783927073 4.009497869018190385759 29.21648670881400989
5.009497869018204596614 77.69656026383258052 5.009497869018204596614 31.58716337299912880
6.009497869018204596614 83.31928914923888385 6.009497869018204596614 33.66831334288281141
7.009497869018204596614 88.31610217968800214 7.009497869018204596614 35.52186517265892718
8.009497869018204596614 92.82416928845289306 8.009497869018204596614 37.18293135444410069
9.009497869018204596614 96.93622849056627899 9.009497869018204596614 38.68242018357287293
10.009497869018190385759 100.71866310131217404 10.009497869018190385759 40.04072283453643166
11.009497869018190385759 104.22109668833456908 11.009497869018190385759 41.26617379950448594
12.009497869018190385759 107.48192464644552047 12.009497869018190385759 42.38558116240164253
13.009497869018190385759 110.53150578632462953 13.009497869018190385759 43.41078167113334274
14.009497869018190385759 113.39472150274191620 14.009497869018190385759 44.35040597671073925
15.009497869018190385759 116.09163654656720155 15.009497869018190385759 45.21476661029704758
16.009497869018204596614 118.63890452482472426 16.009497869018204596614 46.01280409996958554
17.009497869018204596614 121.05113533193173225 17.009497869018204596614 46.75275957423023243
18.009497869018204596614 123.34098759142122503 18.009497869018204596614 47.44344819038946781
19.009497869018204596614 125.51921445104927955 19.009497869018204596614 48.08670957470395990
20.009497869018204596614 127.59553936068989799 20.009497869018204596614 48.68602852591506291
21.009497869018204596614 129.57790327810320719 21.009497869018204596614 49.24420923035978603
22.009497869018190385759 131.47309013860970595 22.009497869018190385759 49.76622881328744796
23.009497869018190385759 133.28732456228360093 23.009497869018190385759 50.25374222012598580
24.009497869018190385759 135.02635522879953101 24.009497869018190385759 50.71227545457510644
25.009497869018190385759 136.69558609585314457 25.009497869018190385759 51.14419019546949841
26.009497869018190385759 138.29977127437555851 26.009497869018190385759 51.55188135946730199
27.009497869018204596614 139.84324842072712158 27.009497869018204596614 51.93843592520556740
28.009497869018190385759 141.32977706235149640 28.009497869018190385759 52.30461400862151322
29.009497869018190385759 142.76272625754373280 29.009497869018190385759 52.64860273267571245
30.009497869018190385759 144.14522484489489784 30.009497869018190385759 52.97791205944019310
31.009497869018190385759 145.48013909654534359 31.009497869018190385759 53.28981885705414356
32.009497869018190385759 146.77010882538976944 32.009497869018190385759 53.58559519259033976
33.009497869018218807469 148.01758887683092780 33.009497869018218807469 53.86440324316894390
34.009497869018190385759 149.22492072523996853 34.009497869018190385759 54.13290697855012468
35.009497869018218807469 150.39419533495626524 35.009497869018218807469 54.38767520226872421
36.009497869018190385759 151.52734624574901545 36.009497869018190385759 54.63314689615477704
37.009497869018218807469 152.62616473106706394 37.009497869018218807469 54.86859282361815104
38.009497869018190385759 153.69235581503863841 38.009497869018190385759 55.09501818371745685
39.009497869018190385759 154.72747992018761920 39.009497869018190385759 55.31344253135837619
40.009497869018190385759 155.73299808641971254 40.009497869018190385759 55.52270120627802896
41.009497869018190385759 156.71031247135809394 41.009497869018190385759 55.72598918282774605
42.009497869018190385759 157.66070751598115862 42.009497869018190385759 55.91835092266796892
43.009497869018190385759 158.58539530833331810 43.009497869018190385759 56.10764661322521363
44.009497869018218807469 159.48554325035601664 44.009497869018218807469 56.28317374860746725
46.009497869018218807469 161.21655475154400960 46.009497869018218807469 56.61834474232708914
48.009497869018218807469 162.86119183168437985 48.009497869018218807469 56.92610959870597753
50.009497869018218807469 164.42538344192999489 50.009497869018218807469 57.19174256564507886
52.009497869018190385759 165.91504170638810933 52.009497869018190385759 57.42752053868456130
54.009497869018190385759 167.33579139084937992 54.009497869018190385759 57.63833335705624705
56.009497869018190385759 168.69208970183001384 56.009497869018190385759 57.82502789581749170
58.009497869018190385759 169.98777986286793862 58.009497869018190385759 57.98861945207886492
60.009497869018190385759 171.22668707687904543 60.009497869018190385759 58.15978791906766077
62.009497869018190385759 172.41202745010915010 62.009497869018190385759 58.32321208563222115
64.009497869018190385759 173.54717180771424978 64.009497869018190385759 58.47884880763196946
66.009497869018218807469 174.63666487158062068 66.009497869018218807469 58.64323732770363051
68.009497869018218807469 175.68444098506572004 68.009497869018218807469 58.80811055853730096
70.009497869018218807469 176.69283799295055815 70.009497869018218807469 58.94415131688206344
72.009497869018218807469 177.66430037909120188 72.009497869018218807469 59.03701742118112605
74.009497869018190385759 178.60109489559195595 74.009497869018190385759 59.12117877699805035
76.009497869018190385759 179.50504755076582342 76.009497869018190385759 59.19453381547224069
78.009497869018190385759 180.37850238480808684 78.009497869018190385759 59.28468228025712250
80.009497869018190385759 181.22291005967295519 80.009497869018190385759 59.32957958065902204
82.009497869018190385759 182.03824730486829253 82.009497869018190385759 59.39029456784575700
84.009497869018190385759 182.82488351854985353 84.009497869018190385759 59.43787846277946585
86.009497869018190385759 183.58346980021536865 86.009497869018190385759 59.42537602813670361
88.009497869018218807469 184.31591109929226491 88.009497869018218807469 59.43142978846849900
91.009497869018190385759 185.36728048374618538 91.009497869018190385759 59.40861234534195745
94.009497869018218807469 186.36562090492463994 94.009497869018218807469 59.42845117143878753
97.009497869018190385759 187.31812688140118439 97.009497869018190385759 59.51941932463849128
99.504748934509109403734 188.08060637298149231 99.504748934509109403734 59.56416156775223669
nan nan nan nan

