Time Pressure difference Time.1 Pressure.1 difference.1
(hr) (psi) (hr) (psi)
0.000200000000006639311 0.48303288759266833 0.000200000000006639311 0.38144827856938257
0.000399999999999067768 0.87673445821580109 0.000399999999999067768 0.75453760629779298
0.000600000000005707079 1.22691632720045352 0.000600000000005707079 1.01057090282273720
0.000799999999998135536 1.54762389438475223 0.000799999999998135536 1.24067045285008781
0.001007140329434719206 1.85649239347091233 0.001007140329434719206 1.45807587714206521
0.001267914553963578328 2.21908570259318649 0.001267914553963578328 1.70769396801888185
0.001596209851982166583 2.64290428940196698 0.001596209851982166583 1.99148329728757756
0.002009509145224797066 3.13618262835792017 0.002009509145224797066 2.31275610215054028
0.002529822128138903281 3.70794587780472362 0.002529822128138903281 2.67510675525866981
0.003184857364431081805 4.36808285762752924 0.003184857364431081805 3.08249146802828333
0.004009497869020606231 5.12743931827512700 0.004009497869020606231 3.53932388237414974
0.005047658755842121536 5.99793478130213575 0.005047658755842121536 4.05058300647548553
0.006354625877790454069 6.99270529071217961 0.006354625877790454069 4.62192945213459172
0.008000000000009777068 8.12627346656834071 0.008000000000009777068 5.25982644276291822
0.010071403294347192059 9.41474653622708679 0.010071403294347192059 5.97166325251704411
0.012679145539706837553 10.87604260388811994 0.012679145539706837553 6.76587891456140333
0.015962098519750611558 12.53014476226753970 0.015962098519750611558 7.65208046413807530
0.020095091452091651263 14.39938056098856478 0.020095091452091651263 8.64114549594087222
0.025298221281360611101 16.50872158077492458 0.025298221281360611101 9.74531303593530041
0.031848573644296607199 18.88610226297512185 0.031848573644296607199 10.97832222592485252
0.040094978690177640601 21.56277984436009021 0.040094978690177640601 12.35571093992103009
0.050476587558421215363 24.57378573685600287 0.050476587558421215363 13.89527799227374061
0.063546258777961384112 27.95849125792681633 0.063546258777961384112 15.61732202844676465
0.079999999999998294697 31.76115909045925534 0.079999999999998294697 17.54381815486780027
0.100714032943542974863 36.03111626720062333 0.100714032943542974863 19.69577078622593191
0.126791455396897845276 40.82206883701406497 0.126791455396897845276 22.08885330105227496
0.159620985197506115583 46.19024469557679424 0.159620985197506115583 24.72885137320618298
0.200950914520760193227 52.19158282815809713 0.200950914520760193227 27.60913567002857150
0.252982212813478213320 58.87867895444431099 0.252982212813478213320 30.71217209366824008
0.318485736442795541734 66.29862667724503922 0.318485736442795541734 34.01266352292565642
0.400949786901833249431 74.49135406265591541 0.400949786901833249431 37.48771683707025204
0.504765875584155310207 83.49205881614238933 0.504765875584155310207 41.12024394978278252
0.635462587779443310865 93.33100479510650871 0.635462587779443310865 44.90360000968287579
0.799999999999997157829 104.03792987260190728 0.799999999999997157829 48.84829230299736480
1.007140329435344483500 115.64470623112718783 1.007140329435344483500 52.99035499601789212
1.267914553968893187630 128.19324202008090197 1.267914553968893187630 57.34446633761828593
1.596209851975103788391 141.71641883469717982 1.596209851975103788391 61.99637922896710762
2.009509145207672986544 156.28728734327233951 2.009509145207672986544 66.98404944723850463
2.529822128134711078928 171.94571200114194198 2.529822128134711078928 72.39316477860501209
3.184857364427998049905 188.78894316128670994 3.184857364427998049905 78.34246388866635868
4.009497869018190385759 206.89134528307513960 4.009497869018190385759 84.86162742521931079
5.009497869018204596614 225.67588687319309315 5.009497869018204596614 91.74744781241349756
6.009497869018204596614 242.00755359759841667 6.009497869018204596614 97.79231470967106077
7.009497869018204596614 256.52119755245252009 7.009497869018204596614 103.17610456638719540
8.009497869018204596614 269.61523980348334817 8.009497869018204596614 108.00080443027465549
9.009497869018204596614 281.55904534855324073 9.009497869018204596614 112.35618992251511372
10.009497869018190385759 292.54542984770444036 10.009497869018190385759 116.30148884382528252
11.009497869018190385759 302.71852893062066414 11.009497869018190385759 119.86090939474395611
12.009497869018190385759 312.18986509902686066 12.009497869018190385759 123.11231780376967038
13.009497869018190385759 321.04761795188187534 13.009497869018190385759 126.09009485394075512
14.009497869018190385759 329.36405749460539027 14.009497869018190385759 128.81930896288884014
15.009497869018190385759 337.19746340434210197 15.009497869018190385759 131.32991370395438935
16.009497869018204596614 344.59620741752524964 16.009497869018204596614 133.64787755754525733
17.009497869018204596614 351.60272514351163409 17.009497869018204596614 135.79713754194355602
18.009497869018204596614 358.25378456897539081 18.009497869018204596614 137.80329798811595765
19.009497869018204596614 364.58061907346751696 19.009497869018204596614 139.67170223797603512
20.009497869018204596614 370.61147119650769355 20.009497869018204596614 141.41247216878380755
21.009497869018204596614 376.36940608639906714 21.009497869018204596614 143.03375276451828313
22.009497869018190385759 381.87412822703043958 22.009497869018190385759 144.55000048439598004
23.009497869018190385759 387.14371752632763446 23.009497869018190385759 145.96602225006060394
24.009497869018190385759 392.19487148517731612 24.009497869018190385759 147.29786878218189372
25.009497869018190385759 397.04328633184826458 25.009497869018190385759 148.55239976623008147
26.009497869018190385759 401.70277076259469595 26.009497869018190385759 149.73657142959777389
27.009497869018204596614 406.18592384798984085 27.009497869018204596614 150.85935014916577757
28.009497869018190385759 410.50366543683009013 28.009497869018190385759 151.92294374259913070
29.009497869018190385759 414.66578122897243475 29.009497869018190385759 152.92208656322983984
30.009497869018190385759 418.68135918688938091 30.009497869018190385759 153.87859189783964098
31.009497869018190385759 422.55872462775198528 31.009497869018190385759 154.78455019167253681
32.009497869018190385759 426.30554509970079380 32.009497869018190385759 155.64365626550096522
33.009497869018218807469 429.92895089797070796 33.009497869018218807469 156.45347659561667797
34.009497869018190385759 433.43574302254813801 34.009497869018190385759 157.23336721632304602
35.009497869018218807469 436.83199484695308001 35.009497869018218807469 157.97336194246756236
36.009497869018190385759 440.12332249242365378 36.009497869018190385759 158.68635415257168120
37.009497869018218807469 443.31492885626727229 37.009497869018218807469 159.37022572050921099
38.009497869018190385759 446.41176631772668770 38.009497869018190385759 160.02789632751517956
39.009497869018190385759 449.41836724909455825 39.009497869018190385759 160.66232735253331043
40.009497869018190385759 452.33897535788321420 40.009497869018190385759 161.27013594647931427
41.009497869018190385759 455.17766332329586021 41.009497869018190385759 161.86060216844242632
42.009497869018190385759 457.93816190710560932 42.009497869018190385759 162.41933226011573765
43.009497869018190385759 460.62399171618955052 43.009497869018190385759 162.96915676589460986
44.009497869018218807469 463.23854356305702140 44.009497869018218807469 163.47898939958122355
46.009497869018218807469 468.26640521345416346 46.009497869018218807469 164.45252041569051471
48.009497869018218807469 473.04338543477791745 48.009497869018218807469 165.34644810921849967
50.009497869018218807469 477.58670534087298165 50.009497869018218807469 166.11800035288516142
52.009497869018190385759 481.91353717008155400 52.009497869018190385759 166.80283637381279505
54.009497869018190385759 486.04021850548235761 54.009497869018190385759 167.41515910198396000
56.009497869018190385759 489.97969566065899016 56.009497869018190385759 167.95742835388207936
58.009497869018190385759 493.74313158642172539 58.009497869018190385759 168.43259314134357396
60.009497869018190385759 497.34163689124022767 60.009497869018190385759 168.92976567332246418
62.009497869018190385759 500.78455301348498097 62.009497869018190385759 169.40444426399281497
64.009497869018190385759 504.08167078500213165 64.009497869018190385759 169.85650359774018625
66.009497869018218807469 507.24619071478190335 66.009497869018218807469 170.33398323046739620
68.009497869018218807469 510.28954041845435086 68.009497869018218807469 170.81287074445376106
70.009497869018218807469 513.21851035357019555 70.009497869018218807469 171.20801203109635935
72.009497869018218807469 516.04020071942136383 72.009497869018218807469 171.47774907449934290
74.009497869018190385759 518.76119547918119679 74.009497869018190385759 171.72220247822716033
76.009497869018190385759 521.38679842035423917 76.009497869018190385759 171.93526806707777155
78.009497869018190385759 523.92381799556858368 78.009497869018190385759 172.19711150868576510
80.009497869018190385759 526.37646776874476018 80.009497869018190385759 172.32751931634166453
82.009497869018190385759 528.74468014887304435 82.009497869018190385759 172.50387086309399365
84.009497869018190385759 531.02952808250540784 84.009497869018190385759 172.64208209990525233
86.009497869018190385759 533.23290274032024172 86.009497869018190385759 172.60576777638178214
88.009497869018218807469 535.36033720061607255 88.009497869018218807469 172.62335140849057780
91.009497869018190385759 538.41412384782768186 91.009497869018190385759 172.55707631605051233
94.009497869018218807469 541.31388362079258059 94.009497869018218807469 172.61469977658364883
97.009497869018190385759 544.08051357536760406 97.009497869018190385759 172.87892406889270092
99.504748934509109403734 546.29519637343094018 99.504748934509109403734 173.00888150022692002
nan nan nan nan

