Time Pressure difference Time.1 Pressure.1 difference.1
(hr) (psi) (hr) (psi)
0.000200000000006639311 0.48874549730138589 0.000200000000006639311 0.38595949342762759
0.000399999999999067768 0.88710319688063977 0.000399999999999067768 0.76346117851419260
0.000600000000005707079 1.24142650715420388 0.000600000000005707079 1.02252246409133729
0.000799999999998135536 1.56592693649968351 0.000799999999998135536 1.25534329657630406
0.001007140329434719206 1.87844828248699414 0.001007140329434719206 1.47531987568908041
0.001267914553963578328 2.24532981734133186 0.001267914553963578328 1.72789008590609594
0.001596209851982166583 2.67416071332393468 0.001596209851982166583 2.01503566217008512
0.002009509145224797066 3.17327283027016938 0.002009509145224797066 2.34010801400251767
0.002529822128138903281 3.75179806295615936 0.002529822128138903281 2.70674402306067785
0.003184857364431081805 4.41974218183074630 0.003184857364431081805 3.11894668906935335
0.004009497869020606231 5.18807920508784193 0.004009497869020606231 3.58118185207371242
0.005047658755842121536 6.06886962102844230 0.005047658755842121536 4.09848740471238315
0.006354625877790454069 7.07540482765884171 0.006354625877790454069 4.67659090426233348
0.008000000000009777068 8.22237919744759793 0.008000000000009777068 5.32203201173120544
0.010071403294347192059 9.52609045058456871 0.010071403294347192059 6.04228739085167454
0.012679145539706837553 11.00466860051754558 0.012679145539706837553 6.84589587938538902
0.015962098519750611558 12.67833307088831241 0.015962098519750611558 7.74257813059962885
0.020095091452091651263 14.56967546906858857 0.020095091452091651263 8.74334038354069953
0.025298221281360611101 16.70396270328080490 0.025298221281360611101 9.86056640955345820
0.031848573644296607199 19.10945958277377699 0.031848573644296607199 11.10815783700675041
0.040094978690177640601 21.81779300940508293 0.040094978690177640601 12.50183629926306494
0.050476587558421215363 24.86440869563616829 0.050476587558421215363 14.05961110913374590
0.063546258777961384112 28.28914358555012853 0.063546258777961384112 15.80202097490671242
0.079999999999998294697 32.13678383660135296 0.079999999999998294697 17.75130089257320520
0.100714032943542974863 36.45723984986134525 0.100714032943542974863 19.92870368645725065
0.126791455396897845276 41.30485283114433059 0.126791455396897845276 22.35008809699113641
0.159620985197506115583 46.73651565781094774 0.159620985197506115583 25.02130822256078702
0.200950914520760193227 52.80882888000228093 0.200950914520760193227 27.93565632841261959
0.252982212813478213320 59.57501024299884307 0.252982212813478213320 31.07539094891529885
0.318485736442795541734 67.08271030417698455 0.318485736442795541734 34.41491578535184459
0.400949786901833249431 75.37232934066366852 0.400949786901833249431 37.93106697049158527
0.504765875584155310207 84.47948132513751318 0.504765875584155310207 41.60655432501017259
0.635462587779443310865 94.43478803184231651 0.635462587779443310865 45.43465441189989207
0.799999999999997157829 105.26833903009654136 0.799999999999997157829 49.42599878227066057
1.007140329435344483500 117.01238344016812221 1.007140329435344483500 53.61704776206803302
1.267914553968893187630 129.70932504002925612 1.267914553968893187630 58.02265319312230929
1.596209851975103788391 143.39243430054773398 1.596209851975103788391 62.72958213706264985
2.009509145207672986544 158.13562582696414438 2.009509145207672986544 67.77623925673276517
2.529822128134711078928 173.97923553334993585 2.529822128134711078928 73.24932572868050329
3.184857364427998049905 191.02166390826644715 3.184857364427998049905 79.26898448656122298
4.009497869018190385759 209.33815488563448071 4.009497869018190385759 85.86524719765948532
5.009497869018204596614 228.34485268378276146 5.009497869018204596614 92.83250304278369924
6.009497869018204596614 244.86966658364096361 6.009497869018204596614 98.94885982450291806
7.009497869018204596614 259.55495678763264777 7.009497869018204596614 104.39632130895945750
8.009497869018204596614 272.80385630575847244 8.009497869018204596614 109.27808069817541536
9.009497869018204596614 284.88891579288565481 9.009497869018204596614 113.68497534866837384
10.009497869018190385759 296.00523125194797558 10.009497869018190385759 117.67693352134753582
11.009497869018190385759 306.29864293899856875 11.009497869018190385759 121.27844971610097957
12.009497869018190385759 315.88199228153837339 12.009497869018190385759 124.56831104980635416
13.009497869018190385759 324.84450173843498533 13.009497869018190385759 127.58130491134609485
14.009497869018190385759 333.25929601950866754 14.009497869018190385759 130.34279619109645409
15.009497869018190385759 341.18534404907154567 15.009497869018190385759 132.88309270965160636
16.009497869018204596614 348.67158963402687277 16.009497869018204596614 135.22847006479608467
17.009497869018204596614 355.76097025033374166 17.009497869018204596614 137.40314836701253398
18.009497869018204596614 362.49068872287915610 18.009497869018204596614 139.43303475801485547
19.009497869018204596614 368.89234781415245834 19.009497869018204596614 141.32353577298493974
20.009497869018204596614 374.99452407531003928 20.009497869018204596614 143.08489299600989852
21.009497869018204596614 380.82055543564689515 21.009497869018204596614 144.72534773808027353
22.009497869018190385759 386.39037941499793760 22.009497869018190385759 146.25952742836386733
23.009497869018190385759 391.72228974411598301 23.009497869018190385759 147.69229583777485004
24.009497869018190385759 396.83318139761695420 24.009497869018190385759 149.03989351153751386
25.009497869018190385759 401.73893623590424795 25.009497869018190385759 150.30926126149432775
26.009497869018190385759 406.45352626438619836 26.009497869018190385759 151.50743758316727394
27.009497869018204596614 410.98969955709878832 27.009497869018204596614 152.64349489468813204
28.009497869018190385759 415.35850510691091131 28.009497869018190385759 153.71966712457469839
29.009497869018190385759 419.56984434468961354 29.009497869018190385759 154.73062635175688229
30.009497869018190385759 423.63291271209567412 30.009497869018190385759 155.69844383881277849
31.009497869018190385759 427.55613398603026098 31.009497869018190385759 156.61511648828889065
32.009497869018190385759 431.34726639522949654 32.009497869018190385759 157.48438281791817417
33.009497869018218807469 435.01352456167865057 33.009497869018218807469 158.30378052381715293
34.009497869018190385759 438.56178991768996411 34.009497869018190385759 159.09289455528087842
35.009497869018218807469 441.99820766380275927 35.009497869018218807469 159.84164086162945750
36.009497869018190385759 445.32846034056012741 36.009497869018190385759 160.56306530549304057
37.009497869018218807469 448.55781237756349356 37.009497869018218807469 161.25502471063350640
38.009497869018190385759 451.69127472358684372 38.009497869018190385759 161.92047328802459560
39.009497869018190385759 454.73343335322317671 39.009497869018190385759 162.56240743948836780
40.009497869018190385759 457.68858216237850911 40.009497869018190385759 163.17740430852703071
41.009497869018190385759 460.56084199597609086 41.009497869018190385759 163.77485370525712938
42.009497869018190385759 463.35398773780724468 42.009497869018190385759 164.34019164295548876
43.009497869018190385759 466.07158163136131179 43.009497869018190385759 164.89651867245578387
44.009497869018218807469 468.71705459074098599 44.009497869018218807469 165.41238086422805509
46.009497869018218807469 473.80437846827817339 46.009497869018218807469 166.39742538775519165
48.009497869018218807469 478.63785385647702242 48.009497869018218807469 167.30192515650227847
50.009497869018218807469 483.23490553544309023 50.009497869018218807469 168.08260219674318137
52.009497869018190385759 487.61290883175126964 52.009497869018190385759 168.77553746101952470
54.009497869018190385759 491.78839454562597666 54.009497869018190385759 169.39510185089048377
56.009497869018190385759 495.77446210079813227 56.009497869018190385759 169.94378427396742381
58.009497869018190385759 499.58240646720730638 58.009497869018190385759 170.42456861870508078
60.009497869018190385759 503.22346965342302383 60.009497869018190385759 170.92762098351946065
62.009497869018190385759 506.70710357474820285 62.009497869018190385759 171.40791338143822031
64.009497869018190385759 510.04321485473269604 64.009497869018190385759 171.86531901479625617
66.009497869018218807469 513.24516011876744415 66.009497869018218807469 172.34844558141907100
68.009497869018218807469 516.32450213168181108 68.009497869018218807469 172.83299667967071400
70.009497869018218807469 519.28811165867148247 70.009497869018218807469 173.23281112213430788
72.009497869018218807469 522.14317286984817201 72.009497869018218807469 173.50573822255520895
74.009497869018190385759 524.89634759391526586 74.009497869018190385759 173.75308266522327472
76.009497869018190385759 527.55300234385379099 76.009497869018190385759 173.96866808363978407
78.009497869018190385759 530.12002609275668874 78.009497869018190385759 174.23360822823659078
80.009497869018190385759 532.60168223644348018 80.009497869018190385759 174.36555830957038893
82.009497869018190385759 534.99790238453647362 82.009497869018190385759 174.54399548565356781
84.009497869018190385759 537.30977217283736991 84.009497869018190385759 174.68384128374117381
86.009497869018190385759 539.53920513803757331 86.009497869018190385759 174.64709748727199212
88.009497869018218807469 541.69179979563000416 88.009497869018218807469 174.66488907297991773
91.009497869018190385759 544.78170218505556477 91.009497869018190385759 174.59783017524162574
94.009497869018218807469 547.71575609462593093 94.009497869018218807469 174.65613512216742720
97.009497869018190385759 550.51510572014854006 97.009497869018190385759 174.92348427470091110
99.504748934509109403734 552.75598056181581796 99.504748934509109403734 175.05497865331761886
nan nan nan nan

