Time Pressure difference Time.1 Pressure.1 difference.1
(hr) (psi) (hr) (psi)
0.000200000000006639311 0.02475464207110915 0.000200000000006639311 0.01954859771906166
0.000399999999999067768 0.04493120088096747 0.000399999999999067768 0.03866881293773183
0.000600000000005707079 0.06287744646625189 0.000600000000005707079 0.05179009883060021
0.000799999999998135536 0.07931318249803593 0.000799999999998135536 0.06358232281360503
0.001007140329434719206 0.09514218573635425 0.001007140329434719206 0.07472399370373264
0.001267914553963578328 0.11372449724196354 0.001267914553963578328 0.08751651084459447
0.001596209851982166583 0.13544450366186164 0.001596209851982166583 0.10206024782419912
0.002009509145224797066 0.16072420828641118 0.002009509145224797066 0.11852495135856908
0.002529822128138903281 0.19002613565622106 0.002529822128138903281 0.13709482714203433
0.003184857364431081805 0.22385707154727152 0.003184857364431081805 0.15797262451130492
0.004009497869020606231 0.26277284285509850 0.004009497869020606231 0.18138453536477245
0.005047658755842121536 0.30738430548066137 0.005047658755842121536 0.20758572569322462
0.006354625877790454069 0.35836466010220108 0.006354625877790454069 0.23686629255354674
0.008000000000009777068 0.41645816714344974 0.008000000000009777068 0.26955746552924281
0.010071403294347192059 0.48249029554908851 0.010071403294347192059 0.30603793278339653
0.012679145539706837553 0.55737931872751201 0.012679145539706837553 0.34674018090393527
0.015962098519750611558 0.64214933735668078 0.015962098519750611558 0.39215655466673449
0.020095091452091651263 0.73794460168009735 0.020095091452091651263 0.44284451293258092
0.025298221281360611101 0.84604486419214453 0.025298221281360611101 0.49943128567868156
0.031848573644296607199 0.96788171912750309 0.031848573644296607199 0.56262098135488736
0.040094978690177640601 1.10505704852830933 0.040094978690177640601 0.63320989048215526
0.050476587558421215363 1.25936615471403979 0.050476587558421215363 0.71211017306002078
0.063546258777961384112 1.43282675303435725 0.063546258777961384112 0.80036210132644392
0.079999999999998294697 1.62770723328240607 0.079999999999998294697 0.89909186339007141
0.100714032943542974863 1.84653552486310701 0.100714032943542974863 1.00937590100238017
0.126791455396897845276 2.09206397456445270 0.126791455396897845276 1.13201744906838209
0.159620985197506115583 2.36717416968133376 0.159620985197506115583 1.26731301386996198
0.200950914520760193227 2.67473289132479097 0.200950914520760193227 1.41492285299752218
0.252982212813478213320 3.01743558373630494 0.252982212813478213320 1.57394837273726851
0.318485736442795541734 3.39769571670506787 0.318485736442795541734 1.74309313718015857
0.400949786901833249431 3.81755953803361470 0.400949786901833249431 1.92118391149243095
0.504765875584155310207 4.27883087231215953 0.504765875584155310207 2.10734495931869725
0.635462587779443310865 4.78306069252188415 0.635462587779443310865 2.30123574294038402
0.799999999999997157829 5.33177301581008400 0.799999999999997157829 2.50339474351760494
1.007140329435344483500 5.92660123917734616 1.007140329435344483500 2.71566865288396553
1.267914553968893187630 6.56969308644304206 1.267914553968893187630 2.93880970718411705
1.596209851975103788391 7.26273368535241737 1.596209851975103788391 3.17721260174732878
2.009509145207672986544 8.00946676266441671 2.009509145207672986544 3.43282250780854303
2.529822128134711078928 8.81193530623460752 2.529822128134711078928 3.71003078366044114
3.184857364427998049905 9.67512323691219756 3.184857364427998049905 4.01492259087777636
4.009497869018190385759 10.60284161109057877 4.009497869018190385759 4.34901901390742918
5.009497869018204596614 11.56551851255523111 5.009497869018204596614 4.70190599827086242
6.009497869018204596614 12.40248960618441210 6.009497869018204596614 5.01169549760469391
7.009497869018204596614 13.14629001911386297 7.009497869018204596614 5.28760588447976421
8.009497869018204596614 13.81733817652543017 8.009497869018204596614 5.53486382756992334
9.009497869018204596614 14.42943859210719637 9.009497869018204596614 5.75807017999748982
10.009497869018190385759 14.99247275172204219 10.009497869018190385759 5.96026026926305708
11.009497869018190385759 15.51382736963758902 11.009497869018190385759 6.14267472588043884
12.009497869018190385759 15.99921779088311169 12.009497869018190385759 6.30930406615902317
13.009497869018190385759 16.45316307506359266 13.009497869018190385759 6.46191024875649056
14.009497869018190385759 16.87936694124784509 14.009497869018190385759 6.60177798889969036
15.009497869018190385759 17.28081612716076521 15.009497869018190385759 6.73044235802131574
16.009497869018204596614 17.65998960484032310 16.009497869018204596614 6.84923419808707568
17.009497869018204596614 18.01906212956235720 17.009497869018204596614 6.95938024196556881
18.009497869018204596614 18.35991800024972420 18.009497869018204596614 7.06219266956179048
19.009497869018204596614 18.68415787630122793 19.009497869018204596614 7.15794531837196413
20.009497869018204596614 18.99322914147674268 20.009497869018204596614 7.24715691797972283
21.009497869018204596614 19.28831384674055371 21.009497869018204596614 7.33024488543523578
22.009497869018190385759 19.57042181452586860 22.009497869018190385759 7.40795009052752018
23.009497869018190385759 19.84047961041625996 23.009497869018190385759 7.48051888009509014
24.009497869018190385759 20.09934295390527481 24.009497869018190385759 7.54877382720774470
25.009497869018190385759 20.34781625090943891 25.009497869018190385759 7.61306647947828274
26.009497869018190385759 20.58660717442995036 26.009497869018190385759 7.67375333213444577
27.009497869018204596614 20.81636140613876762 27.009497869018204596614 7.73129389726342442
28.009497869018190385759 21.03763857035003326 28.009497869018190385759 7.78580132189404317
29.009497869018190385759 21.25094016810765751 29.009497869018190385759 7.83700575028378932
30.009497869018190385759 21.45673194256069038 30.009497869018190385759 7.88602507755025783
31.009497869018190385759 21.65544055253919353 31.009497869018190385759 7.93245395200424230
32.009497869018190385759 21.84745894729084625 32.009497869018190385759 7.97648172714131132
33.009497869018218807469 22.03315254273437418 33.009497869018218807469 8.01798368886866086
34.009497869018190385759 22.21286987894793441 34.009497869018190385759 8.05795180215059048
35.009497869018218807469 22.38692220634845143 35.009497869018218807469 8.09587531636824664
36.009497869018190385759 22.55559734192447152 36.009497869018190385759 8.13241499599250517
37.009497869018218807469 22.71916192561685222 37.009497869018218807469 8.16746229053858031
38.009497869018190385759 22.87786975872712603 38.009497869018190385759 8.20116682887397275
39.009497869018190385759 23.03195311789052369 39.009497869018190385759 8.23368037680525511
40.009497869018190385759 23.18162948614644492 40.009497869018190385759 8.26482956887344677
41.009497869018190385759 23.32710758161437425 41.009497869018190385759 8.29508999286367299
42.009497869018190385759 23.46857859970711857 42.009497869018190385759 8.32372399230553839
43.009497869018190385759 23.60622296574427281 43.009497869018190385759 8.35190159509840946
44.009497869018218807469 23.74021445329726987 44.009497869018218807469 8.37802968013622618
46.009497869018218807469 23.99788410423746754 46.009497869018218807469 8.42792154561357520
48.009497869018218807469 24.24269649402935656 48.009497869018218807469 8.47373387156310365
50.009497869018218807469 24.47553417647049301 50.009497869018218807469 8.51327465671816164
52.009497869018190385759 24.69727720056922493 52.009497869018190385759 8.54837137789579415
54.009497869018190385759 24.90876284062261803 54.009497869018190385759 8.57975191192821995
56.009497869018190385759 25.11065457393652878 56.009497869018190385759 8.60754232036977918
58.009497869018190385759 25.30352448340400784 58.009497869018190385759 8.63189373523311509
60.009497869018190385759 25.48794196945909007 60.009497869018190385759 8.65737301085358268
62.009497869018190385759 25.66438576547426109 62.009497869018190385759 8.68169950892998621
64.009497869018190385759 25.83335763549944986 64.009497869018190385759 8.70486680724292761
66.009497869018218807469 25.99553408393757081 66.009497869018218807469 8.72933685412382232
68.009497869018218807469 26.15150075731894574 68.009497869018218807469 8.75387905260669719
70.009497869018218807469 26.30160565543920370 70.009497869018218807469 8.77412939449771123
72.009497869018218807469 26.44621265184945358 72.009497869018218807469 8.78795297490863980
74.009497869018190385759 26.58565916384765870 74.009497869018190385759 8.80048081031650398
76.009497869018190385759 26.72021700183155346 76.009497869018190385759 8.81140007176876772
78.009497869018190385759 26.85023508781494428 78.009497869018190385759 8.82481911805354002
80.009497869018190385759 26.97592936002765285 80.009497869018190385759 8.83150230399122904
82.009497869018190385759 27.09729635454145935 82.009497869018190385759 8.84054003109154429
84.009497869018190385759 27.21439105810475212 84.009497869018190385759 8.84762312995572131
86.009497869018190385759 27.32731039010839780 86.009497869018190385759 8.84576208052416391
88.009497869018218807469 27.43633791172671366 88.009497869018218807469 8.84666321278729484
91.009497869018190385759 27.59283946132099530 91.009497869018190385759 8.84326672316158913
94.009497869018218807469 27.74144738661092191 94.009497869018218807469 8.84621983086302599
97.009497869018190385759 27.88323262738414599 97.009497869018190385759 8.85976089183550108
99.504748934509109403734 27.99673148300106362 99.504748934509109403734 8.86642099672647710
nan nan nan nan

