Time Pressure difference Time.1 Pressure.1 difference.1
(hr) (psi) (hr) (psi)
0.000200000000006639311 0.13773736742129963 0.000200000000006639311 0.10877040269324049
0.000399999999999067768 0.25000181002999849 0.000399999999999067768 0.21515724121763610
0.000600000000005707079 0.34985656110709384 0.000600000000005707079 0.28816542169846782
0.000799999999998135536 0.44130668210445634 0.000799999999998135536 0.35377856539877661
0.001007140329434719206 0.52938087960997104 0.001007140329434719206 0.41577196496692270
0.001267914553963578328 0.63277476670528443 0.001267914553963578328 0.48695084239171799
0.001596209851982166583 0.75362711011856343 0.001596209851982166583 0.56787368661156945
0.002009509145224797066 0.89428597943977495 0.002009509145224797066 0.65948498576434589
0.002529822128138903281 1.05732490865128126 0.002529822128138903281 0.76280967922619103
0.003184857364431081805 1.24556370578866460 0.003184857364431081805 0.87897588510136326
0.004009497869020606231 1.46209504870657381 0.004009497869020606231 1.00924215831168262
0.005047658755842121536 1.71031780228983377 0.005047658755842121536 1.15502826860076269
0.006354625877790454069 1.99397772415840113 0.006354625877790454069 1.31794834574665742
0.008000000000009777068 2.31721595564432326 0.008000000000009777068 1.49984538512424859
0.010071403294347192059 2.68462549061928701 0.010071403294347192059 1.70282644651274473
0.012679145539706837553 3.10131569650948968 0.012679145539706837553 1.92929792964497304
0.015962098519750611558 3.57298477452307006 0.015962098519750611558 2.18199929135080462
0.020095091452091651263 4.10599945037387482 0.020095091452091651263 2.46403228990692469
0.025298221281360611101 4.70748039819731723 0.025298221281360611101 2.77888689723779247
0.031848573644296607199 5.38539315514533801 0.031848573644296607199 3.13048084497462975
0.040094978690177640601 6.14865075719597787 0.040094978690177640601 3.52324477524686408
0.050476587558421215363 7.00724245058837436 0.050476587558421215363 3.96225403984678337
0.063546258777961384112 7.97239501047321841 0.063546258777961384112 4.45329682020098261
0.079999999999998294697 9.05672999031492587 0.079999999999998294697 5.00263934245244890
0.100714032943542974863 10.27431304859728911 0.100714032943542974863 5.61627103891068025
0.126791455396897845276 11.64045852514067469 0.126791455396897845276 6.29866119097022903
0.159620985197506115583 13.17119986720126867 0.159620985197506115583 7.05145958999440481
0.200950914520760193227 14.88248813890973388 0.200950914520760193227 7.87277587437082804
0.252982212813478213320 16.78932106848149175 0.252982212813478213320 8.75761017651249318
0.318485736442795541734 18.90512744935896450 0.318485736442795541734 9.69874899405370350
0.400949786901833249431 21.24129281418703741 0.400949786901833249431 10.68966432804762867
0.504765875584155310207 23.80785382799329497 0.504765875584155310207 11.72548349159377601
0.635462587779443310865 26.61344026351920178 0.635462587779443310865 12.80431169789905965
0.799999999999997157829 29.66653190848174759 0.799999999999997157829 13.92914511136718581
1.007140329435344483500 32.97621715132010678 1.007140329435344483500 15.11025891476462846
1.267914553968893187630 36.55444614764461875 1.267914553968893187630 16.35183862715265235
1.596209851975103788391 40.41059512106345153 1.596209851975103788391 17.67833678408128861
2.009509145207672986544 44.56549455123534642 2.009509145207672986544 19.10057651780650545
2.529822128134711078928 49.03051183212589592 2.529822128134711078928 20.64299179626450709
3.184857364427998049905 53.83337801051145277 3.184857364427998049905 22.33944108257634653
4.009497869018190385759 58.99529819504245154 4.009497869018190385759 24.19838784661313014
5.009497869018204596614 64.35173121088423898 5.009497869018204596614 26.16188722114813459
6.009497869018204596614 69.00872421902609233 6.009497869018204596614 27.88558776872355338
7.009497869018204596614 73.14730600378739211 7.009497869018204596614 29.42078145979766290
8.009497869018204596614 76.88108677707738536 8.009497869018204596614 30.79655001494034039
9.009497869018204596614 80.28687626890413753 9.009497869018204596614 32.03849305280654391
10.009497869018190385759 83.41965608009442690 10.009497869018190385759 33.16349944692520779
11.009497869018190385759 86.32052664644504603 11.009497869018190385759 34.17847219271936865
12.009497869018190385759 89.02128873388808472 12.009497869018190385759 35.10561493221815965
13.009497869018190385759 91.54708685355896591 13.009497869018190385759 35.95473138410662983
14.009497869018190385759 93.91852887822517459 14.009497869018190385759 36.73296983567263396
15.009497869018190385759 96.15223332292016778 15.009497869018190385759 37.44887158181091280
16.009497869018204596614 98.26199344231666544 16.009497869018204596614 38.10984156371527121
17.009497869018204596614 100.25990979782132229 17.009497869018204596614 38.72270544888534261
18.009497869018204596614 102.15646682190229910 18.009497869018204596614 39.29476434089509240
19.009497869018204596614 103.96057074762478578 19.009497869018204596614 39.82754189965939418
20.009497869018204596614 105.68027496667828302 20.009497869018204596614 40.32392438978460802
21.009497869018204596614 107.32215653186410975 21.009497869018204596614 40.78623436254989798
22.009497869018190385759 108.89183419877214476 22.009497869018190385759 41.21859409344799730
23.009497869018190385759 110.39446347334177290 23.009497869018190385759 41.62237428155473395
24.009497869018190385759 111.83480566660115585 24.009497869018190385759 42.00215180779694180
25.009497869018190385759 113.21733657557302877 25.009497869018190385759 42.35988271914840197
26.009497869018190385759 114.54599376541793276 26.009497869018190385759 42.69755059161986566
27.009497869018204596614 115.82436987518238425 27.009497869018204596614 43.01771219759392295
28.009497869018190385759 117.05557871194761788 28.009497869018190385759 43.32099709874377425
29.009497869018190385759 118.24241067895798096 29.009497869018190385759 43.60590379004057837
30.009497869018190385759 119.38745721886333229 30.009497869018190385759 43.87865235457451263
31.009497869018190385759 120.49309230515397928 31.009497869018190385759 44.13698737397232463
32.009497869018190385759 121.56150234774648311 32.009497869018190385759 44.38196243050421685
33.009497869018218807469 122.59472055829125736 33.009497869018218807469 44.61288360216664728
34.009497869018190385759 123.59468624953080962 34.009497869018190385759 44.83527028376097689
35.009497869018218807469 124.56313125070805370 35.009497869018218807469 45.04628060645921295
36.009497869018190385759 125.50165700506693156 36.009497869018190385759 45.24959113154803703
37.009497869018218807469 126.41174712458607132 37.009497869018218807469 45.44459787299671660
38.009497869018190385759 127.29481378573809991 38.009497869018190385759 45.63213338117056139
39.009497869018190385759 128.15214939954472584 39.009497869018190385759 45.81304209658308935
40.009497869018190385759 128.98496406394303904 40.009497869018190385759 45.98635939603943967
41.009497869018190385759 129.79441910795688386 41.009497869018190385759 46.15473149875428049
42.009497869018190385759 130.58157836247295336 42.009497869018190385759 46.31405400846927733
43.009497869018190385759 131.34744573247454014 43.009497869018190385759 46.47083708041935779
44.009497869018218807469 132.09298811193608003 44.009497869018218807469 46.61621642537335930
46.009497869018218807469 133.52668847742384628 46.009497869018218807469 46.89381988200373996
48.009497869018218807469 134.88884972318896871 48.009497869018218807469 47.14872436228701247
50.009497869018218807469 136.18438246907942357 50.009497869018218807469 47.36873334635489385
52.009497869018190385759 137.41818339803901949 52.009497869018190385759 47.56401510265095567
54.009497869018190385759 138.59491119013097205 54.009497869018190385759 47.73861961252368502
56.009497869018190385759 139.71825750113401909 56.009497869018190385759 47.89324829539081918
58.009497869018190385759 140.79140545894023262 58.009497869018190385759 48.02874206527143031
60.009497869018190385759 141.81752326596466673 60.009497869018190385759 48.17051136808275658
62.009497869018190385759 142.79927464379267121 62.009497869018190385759 48.30586649840531521
64.009497869018190385759 143.73945145906102994 64.009497869018190385759 48.43477172235166961
66.009497869018218807469 144.64181785165266092 66.009497869018218807469 48.57092557294537016
68.009497869018218807469 145.50963241892850419 68.009497869018218807469 48.70748088245264995
70.009497869018218807469 146.34483146744378246 70.009497869018218807469 48.82015586169239185
72.009497869018218807469 147.14943962695721780 72.009497869018218807469 48.89707168090191658
74.009497869018190385759 147.92533432192158216 74.009497869018190385759 48.96677784201747130
76.009497869018190385759 148.67402793326789379 76.009497869018190385759 49.02753373266211412
78.009497869018190385759 149.39746189886778893 78.009497869018190385759 49.10219868250303676
80.009497869018190385759 150.09683772117952572 80.009497869018190385759 49.13938461451529349
82.009497869018190385759 150.77213612655120301 82.009497869018190385759 49.18967145504782223
84.009497869018190385759 151.42366306689055477 84.009497869018190385759 49.22908254359978741
86.009497869018190385759 152.05195781162876756 86.009497869018190385759 49.21872747368573897
88.009497869018218807469 152.65859812422297637 88.009497869018218807469 49.22374146602162170
91.009497869018190385759 153.52938879760657187 91.009497869018190385759 49.20484304938627673
94.009497869018218807469 154.35625853575820088 94.009497869018218807469 49.22127444351990988
97.009497869018190385759 155.14516615749639072 97.009497869018190385759 49.29661829559752562
99.504748934509109403734 155.77668543105721710 99.504748934509109403734 49.33367580229860039
nan nan nan nan

