Time Pressure difference Time.1 Pressure.1 difference.1
(hr) (psi) (hr) (psi)
0.000200000000006639311 0.33133136310561478 0.000200000000006639311 0.26165046177820989
0.000399999999999067768 0.60138684256064157 0.000399999999999067768 0.51756718855118000
0.000600000000005707079 0.84159043731752525 0.000600000000005707079 0.69319055357880277
0.000799999999998135536 1.06157644266601925 0.000799999999998135536 0.85102493612055952
0.001007140329434719206 1.27344156293274158 0.001007140329434719206 1.00015191572688300
0.001267914553963578328 1.52215865539243511 0.001267914553963578328 1.17137483745841831
0.001596209851982166583 1.81287258747414803 0.001596209851982166583 1.36603716318543444
0.002009509145224797066 2.15123171091042620 0.002009509145224797066 1.58641088741469383
0.002529822128138903281 2.54342673878326675 0.002529822128138903281 1.83496153251645944
0.003184857364431081805 2.99624080378655711 0.003184857364431081805 2.11440282038208149
0.004009497869020606231 3.51711343513747243 0.004009497869020606231 2.42776224257464657
0.005047658755842121536 4.11422070412577501 0.005047658755842121536 2.77845509774008326
0.006354625877790454069 4.79657314290638404 0.006354625877790454069 3.17036422340901014
0.008000000000009777068 5.57413239099694291 0.008000000000009777068 3.60792300016063505
0.010071403294347192059 6.45794703273395410 0.010071403294347192059 4.09620002340853784
0.012679145539706837553 7.46030780450669884 0.012679145539706837553 4.64098395979113398
0.015962098519750611558 8.59492190000480605 0.015962098519750611558 5.24886465477013786
0.020095091452091651263 9.87710466864130332 0.020095091452091651263 5.92730348078992986
0.025298221281360611101 11.32398510534101277 0.025298221281360611101 6.68469566985312280
0.031848573644296607199 12.95472454832196441 0.031848573644296607199 7.53046544275003082
0.040094978690177640601 14.79076357260967889 0.040094978690177640601 8.47527084183807844
0.050476587558421215363 16.85613160924945220 0.050476587558421215363 9.53132077788028020
0.063546258777961384112 19.17783500215216819 0.063546258777961384112 10.71253889467701903
0.079999999999998294697 21.78623527624143463 0.079999999999998294697 12.03399878691326208
0.100714032943542974863 24.71516779432158728 0.100714032943542974863 13.51010821341647450
0.126791455396897845276 28.00147165955498352 0.126791455396897845276 15.15161816445373155
0.159620985197506115583 31.68371580958092792 0.159620985197506115583 16.96249726256718304
0.200950914520760193227 35.80027100696258202 0.200950914520760193227 18.93819818627452634
0.252982212813478213320 40.38721473616285351 0.252982212813478213320 21.06669360432959337
0.318485736442795541734 45.47685036205244558 0.318485736442795541734 23.33063122071904516
0.400949786901833249431 51.09656612444991453 0.400949786901833249431 25.71430773843715301
0.504765875584155310207 57.27050552171659348 0.504765875584155310207 28.20600176318871632
0.635462587779443310865 64.01942773067753478 0.635462587779443310865 30.80115532858667748
0.799999999999997157829 71.36373113468881968 0.799999999999997157829 33.50697579785101965
1.007140329435344483500 79.32527812437371040 1.007140329435344483500 36.34818043090846373
1.267914553968893187630 87.93281515700685702 1.267914553968893187630 39.33483761923356781
1.596209851975103788391 97.20889701933235472 1.596209851975103788391 42.52576866954116497
2.009509145207672986544 107.20363205412374441 2.009509145207672986544 45.94700895066819157
2.529822128134711078928 117.94436486806320374 2.529822128134711078928 49.65733510437821963
3.184857364427998049905 129.49780332482478684 3.184857364427998049905 53.73819467790254834
4.009497869018190385759 141.91495694844314812 4.009497869018190385759 58.20994680153019374
5.009497869018204596614 154.80001701420079030 5.009497869018204596614 62.93320336147154848
6.009497869018204596614 166.00255319046829072 6.009497869018204596614 67.07961666024742442
7.009497869018204596614 175.95803564044706491 7.009497869018204596614 70.77257106919068974
8.009497869018204596614 184.93975713195575850 8.009497869018204596614 74.08202353824358966
9.009497869018204596614 193.13248577128092620 9.009497869018204596614 77.06955471688947057
10.009497869018190385759 200.66848144612578153 10.009497869018190385759 79.77579129629013721
11.009497869018190385759 207.64661248591849585 11.009497869018190385759 82.21733863870741743
12.009497869018190385759 214.14337658566626033 12.009497869018190385759 84.44760827012846960
13.009497869018190385759 220.21925962008191391 13.009497869018190385759 86.49018332950994647
14.009497869018190385759 225.92383444439420259 14.009497869018190385759 88.36225923604200716
15.009497869018190385759 231.29707739430563151 15.009497869018190385759 90.08438233043915488
16.009497869018204596614 236.37216855709351648 16.009497869018204596614 91.67436542055008886
17.009497869018204596614 241.17821619568078972 17.009497869018204596614 93.14862785400069356
18.009497869018204596614 245.74044092641938164 18.009497869018204596614 94.52473265413473769
19.009497869018204596614 250.08026695972415610 19.009497869018204596614 95.80634503051706474
20.009497869018204596614 254.21706697053483026 20.009497869018204596614 97.00040797911320567
21.009497869018204596614 258.16666225637357002 21.009497869018204596614 98.11250846659469005
22.009497869018190385759 261.94256890211551081 22.009497869018190385759 99.15256275013759080
23.009497869018190385759 265.55718863172535293 23.009497869018190385759 100.12386808742658673
24.009497869018190385759 269.02197492150139624 24.009497869018190385759 101.03743430262673542
25.009497869018190385759 272.34769443524942290 25.009497869018190385759 101.89796672532470723
26.009497869018190385759 275.54381910390856092 26.009497869018190385759 102.71023690703027853
27.009497869018204596614 278.61899112831889624 27.009497869018204596614 103.48039524029506708
28.009497869018190385759 281.58070086468507043 28.009497869018190385759 104.20995615458180339
29.009497869018190385759 284.43566071159477815 29.009497869018190385759 104.89530773456765189
30.009497869018190385759 287.19010446196614339 30.009497869018190385759 105.55141257644190489
31.009497869018190385759 289.84974278013999083 31.009497869018190385759 106.17284520374909107
32.009497869018190385759 292.41983514066203043 32.009497869018190385759 106.76214004019908543
33.009497869018218807469 294.90527249506010321 33.009497869018218807469 107.31762783562668062
34.009497869018190385759 297.31071991822619793 34.009497869018190385759 107.85258565955405174
35.009497869018218807469 299.64034337727923685 35.009497869018218807469 108.36017731139035902
36.009497869018190385759 301.89799519191217314 36.009497869018190385759 108.84924686943813299
37.009497869018218807469 304.08724423517941204 37.009497869018218807469 109.31834142720869352
38.009497869018190385759 306.21148753988614999 38.009497869018190385759 109.76946370954394183
39.009497869018190385759 308.27383403945776763 39.009497869018190385759 110.20464504339341261
40.009497869018190385759 310.27719466072932164 40.009497869018190385759 110.62156499876766702
41.009497869018190385759 312.22436301545388915 41.009497869018190385759 111.02658913525223738
42.009497869018190385759 314.11789818069530611 42.009497869018190385759 111.40984420470488203
43.009497869018190385759 315.96021507996181299 43.009497869018190385759 111.78699058054795046
44.009497869018218807469 317.75363960567119648 44.009497869018218807469 112.13670494951564649
46.009497869018218807469 321.20244877979376952 46.009497869018218807469 112.80448837975092147
48.009497869018218807469 324.47916845854678058 48.009497869018218807469 113.41766874245999475
50.009497869018218807469 327.59561128506658179 50.009497869018218807469 113.94690694376615170
52.009497869018190385759 330.56355637684958992 52.009497869018190385759 114.41666305798985093
54.009497869018190385759 333.39421032833348590 54.009497869018190385759 114.83667943657771104
56.009497869018190385759 336.09645352807353902 56.009497869018190385759 115.20864336494935287
58.009497869018190385759 338.67794308556131000 58.009497869018190385759 115.53457768696628705
60.009497869018190385759 341.14630020660626997 60.009497869018190385759 115.87560799142488577
62.009497869018190385759 343.50793255327090492 62.009497869018190385759 116.20120881183213157
64.009497869018190385759 345.76955604437722513 64.009497869018190385759 116.51129418925147263
66.009497869018218807469 347.94022543116443558 66.009497869018218807469 116.83881635519577458
68.009497869018218807469 350.02777936719201080 68.009497869018218807469 117.16730424258194887
70.009497869018218807469 352.03687569587856387 70.009497869018218807469 117.43834728020013358
72.009497869018218807469 353.97238472475419258 72.009497869018218807469 117.62337058723872474
74.009497869018190385759 355.83882265457634730 74.009497869018190385759 117.79105084577474827
76.009497869018190385759 357.63982756297622245 76.009497869018190385759 117.93720096059735170
78.009497869018190385759 359.38006963690770590 78.009497869018190385759 118.11680973394739169
80.009497869018190385759 361.06243912652399786 80.009497869018190385759 118.20626160726720855
82.009497869018190385759 362.68688966847804522 82.009497869018190385759 118.32722810845605466
84.009497869018190385759 364.25415723924822942 84.009497869018190385759 118.42203266248428406
86.009497869018190385759 365.76553906760466361 86.009497869018190385759 118.39712323163114149
88.009497869018218807469 367.22483051080371297 88.009497869018218807469 118.40918454038380503
91.009497869018190385759 369.31954355921953947 91.009497869018190385759 118.36372383308588496
94.009497869018218807469 371.30860348233079549 94.009497869018218807469 118.40325004385896079
97.009497869018190385759 373.20634439729548149 97.009497869018190385759 118.58449193687516754
99.504748934509109403734 374.72548292632194489 99.504748934509109403734 118.67363487926208165
nan nan nan nan

