Time Pressure difference Time.1 Pressure.1 difference.1
(hr) (psi) (hr) (psi)
0.000200000000006639311 0.49572757583426280 0.000200000000006639311 0.39147320047659367
0.000399999999999067768 0.89977609969322025 0.000399999999999067768 0.77436776677868102
0.000600000000005707079 1.25916117154212115 0.000600000000005707079 1.03712992786407066
0.000799999999998135536 1.58829732130682189 0.000799999999998135536 1.27327677224168001
0.001007140329434719206 1.90528325795109410 0.001007140329434719206 1.49639587391321038
0.001267914553963578328 2.27740595758906528 0.001267914553963578328 1.75257422999046875
0.001596209851982166583 2.71236300922856266 0.001596209851982166583 2.04382188591537206
0.002009509145224797066 3.21860529927402839 0.002009509145224797066 2.37353812848826795
0.002529822128138903281 3.80539517814124695 0.002529822128138903281 2.74541179481868713
0.003184857364431081805 4.48288135585689940 0.003184857364431081805 3.16350307034177280
0.004009497869020606231 5.26219462230338220 0.004009497869020606231 3.63234159281762237
0.005047658755842121536 6.15556775847170545 0.005047658755842121536 4.15703722477970317
0.006354625877790454069 7.17648203948253993 0.006354625877790454069 4.74339934575179534
0.008000000000009777068 8.33984175741113631 0.008000000000009777068 5.39806104047022206
0.010071403294347192059 9.66217745702149067 0.010071403294347192059 6.12860578214955609
0.012679145539706837553 11.16187815195350908 0.012679145539706837553 6.94369439194803650
0.015962098519750611558 12.85945211475814709 0.015962098519750611558 7.85318638960819548
0.020095091452091651263 14.77781369005528234 0.020095091452091651263 8.86824524616270971
0.025298221281360611101 16.94259074189909953 0.025298221281360611101 10.00143164397564810
0.031848573644296607199 19.38245186252768804 0.031848573644296607199 11.26684580610684527
0.040094978690177640601 22.12947576668229743 0.040094978690177640601 12.68043396068110873
0.050476587558421215363 25.21961453414525778 0.050476587558421215363 14.26046269640708530
0.063546258777961384112 28.69327420820084740 0.063546258777961384112 16.02776413169109659
0.079999999999998294697 32.59588074855279416 0.079999999999998294697 18.00489090532424896
0.100714032943542974863 36.97805756200222049 0.100714032943542974863 20.21339945340664102
0.126791455396897845276 41.89492215730353308 0.126791455396897845276 22.66937506980529449
0.159620985197506115583 47.40418016720825278 0.159620985197506115583 25.37875548288308636
0.200950914520760193227 53.56324072114517065 0.200950914520760193227 28.33473713310422681
0.252982212813478213320 60.42608181789882593 0.252982212813478213320 31.51932510532837739
0.318485736442795541734 68.04103473709378136 0.318485736442795541734 34.90655743942829758
0.400949786901833249431 76.44907690267315559 0.400949786901833249431 38.47293935578431956
0.504765875584155310207 85.68633105835375829 0.504765875584155310207 42.20093367251031680
0.635462587779443310865 95.78385643229722746 0.635462587779443310865 46.08372090349845962
0.799999999999997157829 106.77217244481219893 0.799999999999997157829 50.13208447916024113
1.007140329435344483500 118.68398891788480398 1.007140329435344483500 54.38300558724044009
1.267914553968893187630 131.56231539774398698 1.267914553968893187630 58.85154823873834573
1.596209851975103788391 145.44089764769842077 1.596209851975103788391 63.62571902473496976
2.009509145207672986544 160.39470619592074740 2.009509145207672986544 68.74447124611467075
2.529822128134711078928 176.46465318382638543 2.529822128134711078928 74.29574466766165131
3.184857364427998049905 193.75054482124167521 3.184857364427998049905 80.40139855065497443
4.009497869018190385759 212.32869995542927199 4.009497869018190385759 87.09189358619747168
5.009497869018204596614 231.60692200783680050 5.009497869018204596614 94.15868165768061715
6.009497869018204596614 248.36780467769298753 6.009497869018204596614 100.36241496485295954
7.009497869018204596614 263.26288474174168641 7.009497869018204596614 105.88769732765886999
8.009497869018204596614 276.70105425298362434 8.009497869018204596614 110.83919613672077276
9.009497869018204596614 288.95875744706972910 9.009497869018204596614 115.30904642507792346
10.009497869018190385759 300.23387741269010576 10.009497869018190385759 119.35803257165248681
11.009497869018190385759 310.67433783812708725 11.009497869018190385759 123.01099899775955748
12.009497869018190385759 320.39459217127460988 12.009497869018190385759 126.34785835051788183
13.009497869018190385759 329.48513747755549730 13.009497869018190385759 129.40389498150818781
14.009497869018190385759 338.02014310550163145 14.009497869018190385759 132.20483613668355360
15.009497869018190385759 346.05942039262976095 15.009497869018190385759 134.78142260550379206
16.009497869018204596614 353.65261234308439953 16.009497869018204596614 137.16030535143605107
17.009497869018204596614 360.84326982533849559 17.009497869018204596614 139.36605048654126904
18.009497869018204596614 367.66912713320601824 18.009497869018204596614 141.42493525455790859
19.009497869018204596614 374.16223849721177430 19.009497869018204596614 143.34244342688469942
20.009497869018204596614 380.35158870495735073 20.009497869018204596614 145.12896289595289545
21.009497869018204596614 386.26084908472751067 21.009497869018204596614 146.79285270576716016
22.009497869018190385759 391.91024197806933671 22.009497869018190385759 148.34894924876908817
23.009497869018190385759 397.31832245474618048 23.009497869018190385759 149.80218577831450943
24.009497869018190385759 402.50222684615437174 24.009497869018190385759 151.16903484741663988
25.009497869018190385759 407.47806389641721125 25.009497869018190385759 152.45653642237280678
26.009497869018190385759 412.26000521102031371 26.009497869018190385759 153.67182954864108524
27.009497869018204596614 416.86098097934302587 27.009497869018204596614 154.82411625032651159
28.009497869018190385759 421.29219803700965485 28.009497869018190385759 155.91566236921144650
29.009497869018190385759 425.56369926389947977 29.009497869018190385759 156.94106387106768352
30.009497869018190385759 429.68481146512561963 30.009497869018190385759 157.92270732222436891
31.009497869018190385759 433.66407875725923304 31.009497869018190385759 158.85247529526444055
32.009497869018190385759 437.50937020087565088 32.009497869018190385759 159.73415971531699142
33.009497869018218807469 441.22800348398834558 33.009497869018218807469 160.56526310272880664
34.009497869018190385759 444.82695834508558619 34.009497869018190385759 161.36565019178488001
35.009497869018218807469 448.31246777328561848 35.009497869018218807469 162.12509287393842783
36.009497869018190385759 451.69029548828240195 36.009497869018190385759 162.85682338128580682
37.009497869018218807469 454.96578112581437381 37.009497869018218807469 163.55866792078541039
38.009497869018190385759 458.14400721963806973 38.009497869018190385759 164.23362290642492667
39.009497869018190385759 461.22962525826920910 39.009497869018190385759 164.88472754576676493
40.009497869018190385759 464.22699047898396429 40.009497869018190385759 165.50851008436310963
41.009497869018190385759 467.14028259591862025 41.009497869018190385759 166.11449447247508715
42.009497869018190385759 469.97333041977589119 42.009497869018190385759 166.68790866642629567
43.009497869018190385759 472.72974708323789628 43.009497869018190385759 167.25218322491943468
44.009497869018218807469 475.41301251346584422 44.009497869018218807469 167.77541487657416042
46.009497869018218807469 480.57301244639643301 46.009497869018218807469 168.77453146472311118
48.009497869018218807469 485.47553748299810650 48.009497869018218807469 169.69195265873801759
50.009497869018218807469 490.13826132880660680 50.009497869018218807469 170.48378222812524996
52.009497869018190385759 494.57880752934778457 52.009497869018190385759 171.18661656760551182
54.009497869018190385759 498.81394303913498334 54.009497869018190385759 171.81503187733179061
56.009497869018190385759 502.85695441652376303 56.009497869018190385759 172.37155262073838458
58.009497869018190385759 506.71929798816745460 58.009497869018190385759 172.85920531325800198
60.009497869018190385759 510.41237636275775458 60.009497869018190385759 173.36944414042687868
62.009497869018190385759 513.94577648295887684 62.009497869018190385759 173.85659785831589375
64.009497869018190385759 517.32954649551459170 64.009497869018190385759 174.32053785786476396
66.009497869018218807469 520.57723383474990442 66.009497869018218807469 174.81056623258217542
68.009497869018218807469 523.70056644784858690 68.009497869018218807469 175.30203948938026315
70.009497869018218807469 526.70651325379537866 70.009497869018218807469 175.70756556673620707
72.009497869018218807469 529.60236105370313453 72.009497869018218807469 175.98439162573455974
74.009497869018190385759 532.39486684525695637 74.009497869018190385759 176.23526956044076996
76.009497869018190385759 535.08947380590893772 76.009497869018190385759 176.45393477054892628
78.009497869018190385759 537.69316932265314790 78.009497869018190385759 176.72265977435424134
80.009497869018190385759 540.21027769696411269 80.009497869018190385759 176.85649485684996307
82.009497869018190385759 542.64072956145844273 82.009497869018190385759 177.03748113544861553
84.009497869018190385759 544.98562606102075279 84.009497869018190385759 177.17932473065178556
86.009497869018190385759 547.24690806858097858 86.009497869018190385759 177.14205602280443941
88.009497869018218807469 549.43025407842469576 88.009497869018218807469 177.16010177402250747
91.009497869018190385759 552.56429793055644950 91.009497869018190385759 177.09208489203078329
94.009497869018218807469 555.54026689597765198 94.009497869018218807469 177.15122276676981983
97.009497869018190385759 558.37960723043636335 97.009497869018190385759 177.42239119291090788
99.504748934509109403734 560.65249456984179233 99.504748934509109403734 177.55576406265075207
nan nan nan nan

