Time Pressure difference Time.1 Pressure.1 difference.1
(hr) (psi) (hr) (psi)
0.000200000000006639311 0.34085237928681067 0.000200000000006639311 0.26916915320861817
0.000399999999999067768 0.61866807366870602 0.000399999999999067768 0.53243980891184606
0.000600000000005707079 0.86577407057377598 0.000600000000005707079 0.71310982235980280
0.000799999999998135536 1.09208151285757138 0.000799999999998135536 0.87547967566425366
0.001007140329434719206 1.31003471129287763 0.001007140329434719206 1.02889191330524188
0.001267914553963578328 1.56589884663934420 0.001267914553963578328 1.20503503393710831
0.001596209851982166583 1.86496662734409480 0.001596209851982166583 1.40529110465628015
0.002009509145224797066 2.21304871409750747 0.002009509145224797066 1.63199740716798969
0.002529822128138903281 2.61651371403565935 0.002529822128138903281 1.88769031218647276
0.003184857364431081805 3.08233967745858495 0.003184857364431081805 2.17516152211719849
0.004009497869020606231 3.61817991315866383 0.004009497869020606231 2.49752552540725148
0.005047658755842121536 4.23244543700295317 0.005047658755842121536 2.85829576146824671
0.006354625877790454069 4.93440570448415361 0.006354625877790454069 3.26146664362191263
0.008000000000009777068 5.73430860912903917 0.008000000000009777068 3.71159894844111315
0.010071403294347192059 6.64352022332975789 0.010071403294347192059 4.21390692063292072
0.012679145539706837553 7.67468446555574157 0.012679145539706837553 4.77434556783110864
0.015962098519750611558 8.84190241437275937 0.015962098519750611558 5.39969409887272889
0.020095091452091651263 10.16092951544134060 0.020095091452091651263 6.09762829345630575
0.025298221281360611101 11.64938697618414665 0.025298221281360611101 6.87678462588338490
0.031848573644296607199 13.32698674798638905 0.031848573644296607199 7.74685812788652584
0.040094978690177640601 15.21578551435133519 0.040094978690177640601 8.71881310740813831
0.050476587558421215363 17.34050320721639338 0.050476587558421215363 9.80520930598028606
0.063546258777961384112 19.72892221485768616 0.063546258777961384112 11.02037047211026710
0.079999999999998294697 22.41227651981159141 0.079999999999998294697 12.37980334975559771
0.100714032943542974863 25.42537376542277983 0.100714032943542974863 13.89832971380200455
0.126791455396897845276 28.80611164977208105 0.126791455396897845276 15.58700949101849176
0.159620985197506115583 32.59416741330452538 0.159620985197506115583 17.44992534482486235
0.200950914520760193227 36.82901442670289072 0.200950914520760193227 19.48239928358126605
0.252982212813478213320 41.54776688375373794 0.252982212813478213320 21.67205836307469724
0.318485736442795541734 46.78365640693900929 0.318485736442795541734 24.00105165809603136
0.400949786901833249431 52.56485825446284821 0.400949786901833249431 26.45322462747270009
0.504765875584155310207 58.91620970337511665 0.504765875584155310207 29.01651905523436881
0.635462587779443310865 65.85906645857056674 0.635462587779443310865 31.68624599894836180
0.799999999999997157829 73.41441306384655263 0.799999999999997157829 34.46981992997316979
1.007140329435344483500 81.60474013944192961 1.007140329435344483500 37.39266837432536761
1.267914553968893187630 90.45962019025418499 1.267914553968893187630 40.46514904507361621
1.596209851975103788391 100.00225612908329254 1.596209851975103788391 43.74777351636706157
2.009509145207672986544 110.28419619361004322 2.009509145207672986544 47.26732529982531616
2.529822128134711078928 121.33357075507652212 2.529822128134711078928 51.08427002117068838
3.184857364427998049905 133.21900456979102501 3.184857364427998049905 55.28239567439400304
4.009497869018190385759 145.99297295270872610 4.009497869018190385759 59.88264642226382506
5.009497869018204596614 159.24829336518357081 5.009497869018204596614 64.74162874542187751
6.009497869018204596614 170.77274150053921176 6.009497869018204596614 69.00719185163386271
7.009497869018204596614 181.01430103241392544 7.009497869018204596614 72.80626564014444568
8.009497869018204596614 190.25411796908090878 8.009497869018204596614 76.21081731807818471
9.009497869018204596614 198.68226984516832090 9.009497869018204596614 79.28419709381158498
10.009497869018190385759 206.43481711986504479 10.009497869018190385759 82.06819909216055464
11.009497869018190385759 213.61346916654835582 11.009497869018190385759 84.57990584096911846
12.009497869018190385759 220.29692188985205803 12.009497869018190385759 86.87426368018962819
13.009497869018190385759 226.54739926433714459 13.009497869018190385759 88.97553342518551744
14.009497869018190385759 232.41589865256645453 14.009497869018190385759 90.90140461638803515
15.009497869018190385759 237.94354513552133312 15.009497869018190385759 92.67301400660120692
16.009497869018204596614 243.16447225126287890 16.009497869018204596614 94.30868626596819126
17.009497869018204596614 248.10862470705092164 17.009497869018204596614 95.82531256244898543
18.009497869018204596614 252.80194784959238063 18.009497869018204596614 97.24096060396620089
19.009497869018204596614 257.26648152753227805 19.009497869018204596614 98.55940092219857718
20.009497869018204596614 261.52215510187204472 20.009497869018204596614 99.78777602449001449
21.009497869018204596614 265.58524450511998793 21.009497869018204596614 100.93183342253132651
22.009497869018190385759 269.46965421539465524 22.009497869018190385759 102.00177432341740769
23.009497869018190385759 273.18814232803930508 23.009497869018190385759 103.00099073361700164
24.009497869018190385759 276.75249144223420217 24.009497869018190385759 103.94080885155278793
25.009497869018190385759 280.17377760867611869 25.009497869018190385759 104.82606921743175121
26.009497869018190385759 283.46174494022778845 26.009497869018190385759 105.66168049631275494
27.009497869018204596614 286.62528397683382764 27.009497869018204596614 106.45396981616561050
28.009497869018190385759 289.67210031481965871 28.009497869018190385759 107.20449512454105445
29.009497869018190385759 292.60909923779001929 29.009497869018190385759 107.90954071544602755
30.009497869018190385759 295.44269367064339349 30.009497869018190385759 108.58449914473047215
31.009497869018190385759 298.17875837727041244 31.009497869018190385759 109.22378903144303308
32.009497869018190385759 300.82270396654314482 32.009497869018190385759 109.83001762756111930
33.009497869018218807469 303.37956193457330301 33.009497869018218807469 110.40146771596079134
34.009497869018190385759 305.85413141012924143 34.009497869018190385759 110.95179789115043434
35.009497869018218807469 308.25069807202868333 35.009497869018218807469 111.47397550999353655
36.009497869018190385759 310.57322493880622005 36.009497869018190385759 111.97709879097372720
37.009497869018218807469 312.82538343733972397 37.009497869018218807469 112.45967307741584307
38.009497869018190385759 315.01066821631962966 38.009497869018190385759 112.92375864372623084
39.009497869018190385759 317.13227754633874156 39.009497869018190385759 113.37144518831850348
40.009497869018190385759 319.19320600155487000 40.009497869018190385759 113.80034560218054196
41.009497869018190385759 321.19632746992101602 41.009497869018190385759 114.21700836327671880
42.009497869018190385759 323.14427456519803172 42.009497869018190385759 114.61127650943778633
43.009497869018190385759 325.03953160524804389 43.009497869018190385759 114.99926042481655486
44.009497869018218807469 326.88449131847778517 44.009497869018218807469 115.35902405726034203
46.009497869018218807469 330.43240420450052852 46.009497869018218807469 116.04599666652536882
48.009497869018218807469 333.80328249471193658 48.009497869018218807469 116.67679715459965450
50.009497869018218807469 337.00927827601685749 50.009497869018218807469 117.22124335019621810
52.009497869018190385759 340.06250914629930548 52.009497869018190385759 117.70449820333439561
54.009497869018190385759 342.97450372857298362 54.009497869018190385759 118.13658401808855558
56.009497869018190385759 345.75439759497220393 56.009497869018190385759 118.51923656509157468
58.009497869018190385759 348.41006788687053586 58.009497869018190385759 118.85453681590210806
60.009497869018190385759 350.94935481024441515 60.009497869018190385759 119.20536684175317532
62.009497869018190385759 353.37885015537636946 62.009497869018190385759 119.54032400757444066
64.009497869018190385759 355.70546282726161280 64.009497869018190385759 119.85931988434491302
66.009497869018218807469 357.93850777114045059 66.009497869018218807469 120.19625360678186610
68.009497869018218807469 360.08604888923775889 68.009497869018218807469 120.53418080127683254
70.009497869018218807469 362.15287787104750805 70.009497869018218807469 120.81301243193003359
72.009497869018218807469 364.14400497546557744 72.009497869018218807469 121.00335250066511605
74.009497869018190385759 366.06407617913311014 74.009497869018190385759 121.17585115743493418
76.009497869018190385759 367.91683410214216110 76.009497869018190385759 121.32620098820072485
78.009497869018190385759 369.70708313222121433 78.009497869018190385759 121.51097093319874887
80.009497869018190385759 371.43779657268845540 80.009497869018190385759 121.60299326264845376
82.009497869018190385759 373.10892672791703717 82.009497869018190385759 121.72743581272203528
84.009497869018190385759 374.72123072313468128 84.009497869018190385759 121.82496463554416266
86.009497869018190385759 376.27604306380021626 86.009497869018190385759 121.79933941644812023
88.009497869018218807469 377.77726816916015196 88.009497869018218807469 121.81174731453276650
91.009497869018190385759 379.93217412126608679 91.009497869018190385759 121.76498026507111661
94.009497869018218807469 381.97839093871959903 94.009497869018218807469 121.80564228649859615
97.009497869018190385759 383.93066463859707937 97.009497869018190385759 121.99209227988882276
99.504748934509109403734 385.49345657363005557 99.504748934509109403734 122.08379680107995569
nan nan nan nan

