Time Pressure difference Time.1 Pressure.1 difference.1
(hr) (psi) (hr) (psi)
0.000200000000006639311 0.33894817605057148 0.000200000000006639311 0.26766541492253654
0.000399999999999067768 0.61521182744709302 0.000399999999999067768 0.52946528483971278
0.000600000000005707079 0.86093734392252586 0.000600000000005707079 0.70912596860360277
0.000799999999998135536 1.08598049881926118 0.000799999999998135536 0.87058872775551477
0.001007140329434719206 1.30271608162085051 0.001007140329434719206 1.02314391378956993
0.001267914553963578328 1.55715080838996234 0.001267914553963578328 1.19830299464137058
0.001596209851982166583 1.85454781937010549 0.001596209851982166583 1.39744031636211119
0.002009509145224797066 2.20068531346009122 0.002009509145224797066 1.62288010321733056
0.002529822128138903281 2.60189631898518092 0.002529822128138903281 1.87714455625247001
0.003184857364431081805 3.06511990272417956 0.003184857364431081805 2.16300978177017500
0.004009497869020606231 3.59796661755442582 0.004009497869020606231 2.48357286884073014
0.005047658755842121536 4.20880049042751647 0.005047658755842121536 2.84232762872261402
0.006354625877790454069 4.90683919216859898 0.006354625877790454069 3.24324615957933249
0.008000000000009777068 5.70227336550262009 0.008000000000009777068 3.69086375878501727
0.010071403294347192059 6.60640558521059695 0.010071403294347192059 4.19036554118804450
0.012679145539706837553 7.63180913334593392 0.012679145539706837553 4.74767324622311371
0.015962098519750611558 8.79250631149916728 0.015962098519750611558 5.36952821005221015
0.020095091452091651263 10.10416454608133208 0.020095091452091651263 6.06356333092303057
0.025298221281360611101 11.58430660201551810 0.025298221281360611101 6.83836683467733319
0.031848573644296607199 13.25253430805350341 0.031848573644296607199 7.70357959085922595
0.040094978690177640601 15.13078112600300607 0.040094978690177640601 8.67010465429412491
0.050476587558421215363 17.24362888762300372 0.050476587558421215363 9.75043160036028667
0.063546258777961384112 19.61870477231658327 0.063546258777961384112 10.95880415662361607
0.079999999999998294697 22.28706827109756006 0.079999999999998294697 12.31064243718713058
0.100714032943542974863 25.28333257120254274 0.100714032943542974863 13.82068541372490067
0.126791455396897845276 28.64518365172866154 0.126791455396897845276 15.49993122570553972
0.159620985197506115583 32.41207709255980518 0.159620985197506115583 17.35243972837332649
0.200950914520760193227 36.62326574275482471 0.200950914520760193227 19.37355906411991668
0.252982212813478213320 41.31565645423555821 0.252982212813478213320 21.55098541132567647
0.318485736442795541734 46.52229519796169654 0.318485736442795541734 23.86696757062063412
0.400949786901833249431 52.27119982846026858 0.400949786901833249431 26.30544124966559139
0.504765875584155310207 58.58706886704340633 0.504765875584155310207 28.85441559682524115
0.635462587779443310865 65.49113871299194045 0.635462587779443310865 31.50922786487603133
0.799999999999997157829 73.00427667801500320 0.799999999999997157829 34.27725110354874261
1.007140329435344483500 81.14884773642828009 1.007140329435344483500 37.18377078564198968
1.267914553968893187630 89.95425918360471940 1.267914553968893187630 40.23908675990560369
1.596209851975103788391 99.44358430713310781 1.596209851975103788391 43.50337254700188083
2.009509145207672986544 109.66808336571278915 2.009509145207672986544 47.00326202999389835
2.529822128134711078928 120.65572957767385276 2.529822128134711078928 50.79888303781219605
3.184857364427998049905 132.47476432079776032 3.184857364427998049905 54.97355547509570783
4.009497869018190385759 145.17736975185562187 4.009497869018190385759 59.54810649811710022
5.009497869018204596614 158.35863809498701471 5.009497869018204596614 64.37994366863181028
6.009497869018204596614 169.81870383852506734 6.009497869018204596614 68.62167681335657221
7.009497869018204596614 180.00304795402058744 7.009497869018204596614 72.39952672595369165
8.009497869018204596614 189.19124580165589578 8.009497869018204596614 75.78505856211126002
9.009497869018204596614 197.57231303039083059 9.009497869018204596614 78.84126861842716494
10.009497869018190385759 205.28154998511718077 10.009497869018190385759 81.60971753298646547
11.009497869018190385759 212.42009783042234972 11.009497869018190385759 84.10739240051678678
12.009497869018190385759 219.06621282901491554 12.009497869018190385759 86.38893259817740500
13.009497869018190385759 225.28177133548609845 13.009497869018190385759 88.47846340605040893
14.009497869018190385759 231.11748581093200983 14.009497869018190385759 90.39357554031883524
15.009497869018190385759 236.61425158727820417 15.009497869018190385759 92.15528767136878230
16.009497869018204596614 241.80601151242902347 16.009497869018204596614 93.78182209688456794
17.009497869018204596614 246.72254300477689526 17.009497869018204596614 95.28997562075932137
18.009497869018204596614 251.38964646495776378 18.009497869018204596614 96.69771501399991109
19.009497869018204596614 255.82923861397063092 19.009497869018204596614 98.00878974386228037
20.009497869018204596614 260.06113747560459615 20.009497869018204596614 99.23030241541465557
21.009497869018204596614 264.10152805537069298 21.009497869018204596614 100.36796843134399637
22.009497869018190385759 267.96423715273880362 22.009497869018190385759 101.43193200876144999
23.009497869018190385759 271.66195158877650329 23.009497869018190385759 102.42556620437892434
24.009497869018190385759 275.20638813808756140 24.009497869018190385759 103.36013394176758595
25.009497869018190385759 278.60856097399079090 25.009497869018190385759 104.24044871901034526
26.009497869018190385759 281.87815977296389747 26.009497869018190385759 105.07139177845625966
27.009497869018204596614 285.02402540713080725 27.009497869018204596614 105.85925490099150181
28.009497869018190385759 288.05382042479271831 28.009497869018190385759 106.60558733054919855
29.009497869018190385759 290.97441153255095969 29.009497869018190385759 107.30669411927036094
30.009497869018190385759 293.79217582890794347 30.009497869018190385759 107.97788183107275017
31.009497869018190385759 296.51295525784433949 31.009497869018190385759 108.61360026590422478
32.009497869018190385759 299.14213020136696741 32.009497869018190385759 109.21644211008872105
33.009497869018218807469 301.68470404667067442 33.009497869018218807469 109.78469973989395214
34.009497869018190385759 304.14544911174863273 34.009497869018190385759 110.33195544483116635
35.009497869018218807469 306.52862713307877129 35.009497869018218807469 110.85121587027289536
36.009497869018190385759 308.83817898942737656 36.009497869018190385759 111.35152840666660268
37.009497869018218807469 311.07775559690765022 37.009497869018218807469 111.83140674737440179
38.009497869018190385759 313.25083208103291099 38.009497869018190385759 112.29289965688975883
39.009497869018190385759 315.36058884496259225 39.009497869018190385759 112.73808515933349383
40.009497869018190385759 317.41000373338977170 40.009497869018190385759 113.16458948149796981
41.009497869018190385759 319.40193457902762475 41.009497869018190385759 113.57892451767180830
42.009497869018190385759 321.33899928829748660 42.009497869018190385759 113.97099004849121684
43.009497869018190385759 323.22366830019080908 43.009497869018190385759 114.35680645596283966
44.009497869018218807469 325.05832097591644470 44.009497869018218807469 114.71456023571138871
46.009497869018218807469 328.58641311955915398 46.009497869018218807469 115.39769500917047651
48.009497869018218807469 331.93845968747888264 48.009497869018218807469 116.02497147217172824
50.009497869018218807469 335.12654487782680235 50.009497869018218807469 116.56637606891020198
52.009497869018190385759 338.16271859240936237 52.009497869018190385759 117.04693117426548099
54.009497869018190385759 341.05844504852507271 54.009497869018190385759 117.47660310178638099
56.009497869018190385759 343.82280878159247095 56.009497869018190385759 117.85711792506312179
58.009497869018190385759 346.46364292660871342 58.009497869018190385759 118.19054499011495807
60.009497869018190385759 348.98874388951679748 60.009497869018190385759 118.53941507168751457
62.009497869018190385759 351.40466663495527655 62.009497869018190385759 118.87250096842596747
64.009497869018190385759 353.71828147068475801 64.009497869018190385759 119.18971474532621357
66.009497869018218807469 355.93885130314521348 66.009497869018218807469 119.52476615646463642
68.009497869018218807469 358.07439498482864337 68.009497869018218807469 119.86080548953785296
70.009497869018218807469 360.12967743601370785 70.009497869018218807469 120.13807940158405074
72.009497869018218807469 362.10968092532328910 72.009497869018218807469 120.32735611797983211
74.009497869018190385759 364.01902547422179168 74.009497869018190385759 120.49889109510290552
76.009497869018190385759 365.86143279430899611 76.009497869018190385759 120.64840098268005875
78.009497869018190385759 367.64168043315851264 78.009497869018190385759 120.83213869334849733
80.009497869018190385759 369.36272508345558663 80.009497869018190385759 120.92364693157220756
82.009497869018190385759 371.02451931602928425 82.009497869018190385759 121.04739427186883916
84.009497869018190385759 372.62781602635732270 84.009497869018190385759 121.14437824093219831
86.009497869018190385759 374.17394226456110573 86.009497869018190385759 121.11889617948472164
88.009497869018218807469 375.66678063748884142 88.009497869018218807469 121.13123475970297704
91.009497869018190385759 377.80964800885675459 91.009497869018190385759 121.08472897867406459
94.009497869018218807469 379.84443344744187243 94.009497869018218807469 121.12516383797066055
97.009497869018190385759 381.78580059033674843 97.009497869018190385759 121.31057221128608603
99.504748934509109403734 383.33986184416841070 99.504748934509109403734 121.40176441671638941
nan nan nan nan

