Time Pressure difference Time.1 Pressure.1 difference.1
(hr) (psi) (hr) (psi)
0.000200000000006639311 0.56999150204759030 0.000200000000006639311 0.45011899363377866
0.000399999999999067768 1.03456970233612289 0.000399999999999067768 0.89037420559187652
0.000600000000005707079 1.44779351094087660 0.000600000000005707079 1.19250022435587155
0.000799999999998135536 1.82623686880092961 0.000799999999998135536 1.46402374068249497
0.001007140329434719206 2.19070981516015673 0.001007140329434719206 1.72056785502440834
0.001267914553963578328 2.61857944931495545 0.001267914553963578328 2.01512376252425218
0.001596209851982166583 3.11869652021414767 0.001596209851982166583 2.35000262938796922
0.002009509145224797066 3.70077792413326190 0.002009509145224797066 2.72911298256397528
0.002529822128138903281 4.37547358510991025 0.002529822128138903281 3.15669627624479032
0.003184857364431081805 5.15445257049871319 0.003184857364431081805 3.63742094387568793
0.004009497869020606231 6.05051315086867803 0.004009497869020606231 4.17649519891193943
0.005047658755842121536 7.07772067491368961 0.005047658755842121536 4.77979440185937676
0.006354625877790454069 8.25157601978914279 0.006354625877790454069 5.45399822341243468
0.008000000000009777068 9.58921625884148376 0.008000000000009777068 6.20673343705795055
0.010071403294347192059 11.10964834366875564 0.010071403294347192059 7.04671958049974556
0.012679145539706837553 12.83401610813604599 0.012679145539706837553 7.98391493465984325
0.015962098519750611558 14.78590012682818866 0.015962098519750611558 9.02965605360839874
0.020095091452091651263 16.99164749509557382 0.020095091452091651263 10.19677878496045231
0.025298221281360611101 19.48072533447553667 0.025298221281360611101 11.49972550101169411
0.031848573644296607199 22.28609701991019776 0.031848573644296607199 12.95470875017150902
0.040094978690177640601 25.44464691226722763 0.040094978690177640601 14.58006363212757606
0.050476587558421215363 28.99771299828737625 0.050476587558421215363 16.39679321558714520
0.063546258777961384112 32.99175446730392025 0.063546258777961384112 18.42885043567042658
0.079999999999998294697 37.47900244840001704 0.079999999999998294697 20.70216649549446331
0.100714032943542974863 42.51766413659154153 0.100714032943542974863 23.24152715641378109
0.126791455396897845276 48.17111408099688674 0.126791455396897845276 26.06542741701044008
0.159620985197506115583 54.50570267625224830 0.159620985197506115583 29.18069452449297074
0.200950914520760193227 61.58743939511953869 0.200950914520760193227 32.57950569209678804
0.252982212813478213320 69.47838856910773586 0.252982212813478213320 36.24117022354018758
0.318485736442795541734 78.23412188720899962 0.318485736442795541734 40.13583685096877218
0.400949786901833249431 87.90175551677398857 0.400949786901833249431 44.23649109026161597
0.504765875584155310207 98.52282367529022622 0.504765875584155310207 48.52296855046640900
0.635462587779443310865 110.13303850986287102 0.635462587779443310865 52.98742813231961435
0.799999999999997157829 122.76749149224245627 0.799999999999997157829 57.64226870971305772
1.007140329435344483500 136.46379263541683713 1.007140329435344483500 62.53001154589232868
1.267914553968893187630 151.27139465707310251 1.267914553968893187630 67.66797736029069199
1.596209851975103788391 167.22909870375565333 1.596209851975103788391 73.15735682997694767
2.009509145207672986544 184.42310648391401173 2.009509145207672986544 79.04293876954029940
2.529822128134711078928 202.90045910253019201 2.529822128134711078928 85.42583701864298007
3.184857364427998049905 222.77591453197828741 3.184857364427998049905 92.44616632328829553
4.009497869018190385759 244.13722478870099053 4.009497869018190385759 100.13895062791976898
5.009497869018204596614 266.30347754550251693 5.009497869018204596614 108.26439965249319641
6.009497869018204596614 285.57527349624621138 6.009497869018204596614 115.39750145766704748
7.009497869018204596614 302.70175479908328953 7.009497869018204596614 121.75051498109816350
8.009497869018204596614 318.15306878255989886 8.009497869018204596614 127.44378761943053746
9.009497869018204596614 332.24707322339133952 9.009497869018204596614 132.58325696507040448
10.009497869018190385759 345.21129566785623410 10.009497869018190385759 137.23881337944166603
11.009497869018190385759 357.21581994703984719 11.009497869018190385759 141.43902317540087665
12.009497869018190385759 368.39224554392393429 12.009497869018190385759 145.27577054899495579
13.009497869018190385759 378.84462670274626817 13.009497869018190385759 148.78962572777763285
14.009497869018190385759 388.65824392924520225 14.009497869018190385759 152.01017010338259183
15.009497869018190385759 397.90186877411201749 15.009497869018190385759 154.97274967956772684
16.009497869018204596614 406.63258115760532974 16.009497869018204596614 157.70800794569726122
17.009497869018204596614 414.90045621402555298 17.009497869018204596614 160.24419121243798259
18.009497869018204596614 422.74888113395519440 18.009497869018204596614 162.61151326324326760
19.009497869018204596614 430.21471212611550072 19.009497869018204596614 164.81627938200060157
20.009497869018204596614 437.33127612938750417 20.009497869018204596614 166.87043364989204974
21.009497869018204596614 444.12579062494921800 21.009497869018204596614 168.78358736207286483
22.009497869018190385759 450.62150742164692474 22.009497869018190385759 170.57279952035165138
23.009497869018190385759 456.83976128599499589 23.009497869018190385759 172.24374241859976564
24.009497869018190385759 462.80025570787017841 24.009497869018190385759 173.81535632903987221
25.009497869018190385759 468.52151264914550666 25.009497869018190385759 175.29573586080763903
26.009497869018190385759 474.01982673431018611 26.009497869018190385759 176.69308954504441544
27.009497869018204596614 479.31006519775934294 27.009497869018204596614 178.01799794211677863
28.009497869018190385759 484.40511374805970490 28.009497869018190385759 179.27306633489359911
29.009497869018190385759 489.31651976822240613 29.009497869018190385759 180.45208112191906480
30.009497869018190385759 494.05500729280765881 30.009497869018190385759 181.58078255487515662
31.009497869018190385759 498.63040041487687404 31.009497869018190385759 182.64983715127715413
32.009497869018190385759 503.05174704274816122 32.009497869018190385759 183.66360489674093515
33.009497869018218807469 507.32746111219142904 33.009497869018218807469 184.61921416933478213
34.009497869018190385759 511.46556798192938231 34.009497869018190385759 185.53950559823667277
35.009497869018218807469 515.47323439233105091 35.009497869018218807469 186.41271882304317842
36.009497869018190385759 519.35708751405582007 36.009497869018190385759 187.25406836926333654
37.009497869018218807469 523.12326690266490914 37.009497869018218807469 188.06105479240116551
38.009497869018190385759 526.77761649581941583 38.009497869018190385759 188.83712339304685202
39.009497869018190385759 530.32548461194085121 39.009497869018190385759 189.58576867618253914
40.009497869018190385759 533.77187893742325286 40.009497869018190385759 190.30299879098348015
41.009497869018190385759 537.12160534076178919 41.009497869018190385759 190.99976445106611322
42.009497869018190385759 540.37906621889726466 42.009497869018190385759 191.65908064334288952
43.009497869018190385759 543.54841598047073603 43.009497869018190385759 192.30788801021463996
44.009497869018218807469 546.63365587335761120 44.009497869018218807469 192.90950391698285671
46.009497869018218807469 552.56666475910878944 46.009497869018218807469 194.05829610156385456
48.009497869018218807469 558.20362696508630052 48.009497869018218807469 195.11315427342736939
50.009497869018218807469 563.56486385821801832 50.009497869018218807469 196.02360619827970822
52.009497869018190385759 568.67063913105539541 52.009497869018190385759 196.83173070129288362
54.009497869018190385759 573.54023156100276992 54.009497869018190385759 197.55428761311642916
56.009497869018190385759 578.18891813833340620 56.009497869018190385759 198.19417958184772033
58.009497869018190385759 582.62987143837938220 58.009497869018190385759 198.75488651895733483
60.009497869018190385759 586.87620227113495730 60.009497869018190385759 199.34156317298760541
62.009497869018190385759 590.93893377938172762 62.009497869018190385759 199.90169638510585060
64.009497869018190385759 594.82961940201289508 64.009497869018190385759 200.43513827959353080
66.009497869018218807469 598.56383608656256001 66.009497869018218807469 200.99857679495366369
68.009497869018218807469 602.15506871980551296 68.009497869018218807469 201.56367664720036714
70.009497869018218807469 605.61133022011301819 70.009497869018218807469 202.02995375022936742
72.009497869018218807469 608.94099900925152724 72.009497869018218807469 202.34825055046047737
74.009497869018190385759 612.15184433679985432 74.009497869018190385759 202.63671199139025703
76.009497869018190385759 615.25012481140356613 76.009497869018190385759 202.88813498585523121
78.009497869018190385759 618.24387458609794521 78.009497869018190385759 203.19711712851486141
80.009497869018190385759 621.13806577704701795 80.009497869018190385759 203.35100176882366441
82.009497869018190385759 623.93261862508279592 82.009497869018190385759 203.55910122872325019
84.009497869018190385759 626.62879923533500914 84.009497869018190385759 203.72219412051893528
86.009497869018190385759 629.22883923890617552 86.009497869018190385759 203.67934226437691336
88.009497869018218807469 631.73926781360478344 88.009497869018218807469 203.70009141238438133
91.009497869018190385759 635.34281631451949579 91.009497869018190385759 203.62188506151557021
94.009497869018218807469 638.76460905581052430 94.009497869018218807469 203.68988225935888181
97.009497869018190385759 642.02930511258875867 97.009497869018190385759 204.00167386841741290
99.504748934509109403734 644.64268901884497609 99.504748934509109403734 204.15502705283017804
nan nan nan nan

