Time Pressure difference Time.1 Pressure.1 difference.1
(hr) (psi) (hr) (psi)
0.000200000000006639311 0.31165459633114345 0.000200000000006639311 0.24611183282203264
0.000399999999999067768 0.56567229827064180 0.000399999999999067768 0.48683043980580337
0.000600000000005707079 0.79161092858794035 0.000600000000005707079 0.65202406476473596
0.000799999999998135536 0.99853263093681122 0.000799999999998135536 0.80048514106359137
0.001007140329434719206 1.19781572298845984 0.001007140329434719206 0.94075592073160852
0.001267914553963578328 1.43176226014882313 0.001267914553963578328 1.10181043140245860
0.001596209851982166583 1.70521157174292459 0.001596209851982166583 1.28491235081235300
0.002009509145224797066 2.02347657099045808 0.002009509145224797066 1.49219874659121587
0.002529822128138903281 2.39238032326165495 0.002529822128138903281 1.72598872119843216
0.003184857364431081805 2.81830313153103384 0.003184857364431081805 1.98883483679617212
0.004009497869020606231 3.30824271389367564 0.004009497869020606231 2.28358479138726356
0.005047658755842121536 3.86988958951294215 0.005047658755842121536 2.61345105936854560
0.006354625877790454069 4.51171918231232638 0.006354625877790454069 2.98208588830234467
0.008000000000009777068 5.24310154019061070 0.008000000000009777068 3.39365937371431414
0.010071403294347192059 6.07442910550262738 0.010071403294347192059 3.85293910247814564
0.012679145539706837553 7.01726270500534355 0.012679145539706837553 4.36536996984185155
0.015962098519750611558 8.08449550364436575 0.015962098519750611558 4.93715047029145193
0.020095091452091651263 9.29053331858789022 0.020095091452091651263 5.57529886794608220
0.025298221281360611101 10.65148790559853786 0.025298221281360611101 6.28771182739058077
0.031848573644296607199 12.18538266901548717 0.031848573644296607199 7.08325389346794054
0.040094978690177640601 13.91238489301025361 0.040094978690177640601 7.97195015965995424
0.050476587558421215363 15.85509697345111491 0.050476587558421215363 8.96528448647359610
0.063546258777961384112 18.03892142922742181 0.063546258777961384112 10.07635363464830647
0.079999999999998294697 20.49241670619644751 0.079999999999998294697 11.31933602370576963
0.100714032943542974863 23.24740878737911842 0.100714032943542974863 12.70778377928637859
0.126791455396897845276 26.33854901310631647 0.126791455396897845276 14.25180942288655572
0.159620985197506115583 29.80211582855217856 0.159620985197506115583 15.95514589256798388
0.200950914520760193227 33.67420127283261877 0.200950914520760193227 17.81351591850726379
0.252982212813478213320 37.98874029780835571 0.252982212813478213320 19.81560643625638107
0.318485736442795541734 42.77611786928687820 0.318485736442795541734 21.94509565013994390
0.400949786901833249431 48.06209572242320149 0.400949786901833249431 24.18721283443034764
0.504765875584155310207 53.86938354628897940 0.504765875584155310207 26.53093269296103429
0.635462587779443310865 60.21750769303192641 0.635462587779443310865 28.97196794317252966
0.799999999999997157829 67.12565514776285625 0.799999999999997157829 31.51709792479856276
1.007140329435344483500 74.61438995989941247 1.007140329435344483500 34.18957201451350869
1.267914553968893187630 82.71075142162905536 1.267914553968893187630 36.99886067249747157
1.596209851975103788391 91.43595485918044119 1.596209851975103788391 40.00029198610098291
2.009509145207672986544 100.83713283251867665 2.009509145207672986544 43.21835516241011987
2.529822128134711078928 110.94000603490235335 2.529822128134711078928 46.70833627634042529
3.184857364427998049905 121.80732075189457930 3.184857364427998049905 50.54684595182020956
4.009497869018190385759 133.48705720629419602 4.009497869018190385759 54.75303425201403940
5.009497869018204596614 145.60691255550304390 5.009497869018204596614 59.19579090130752519
6.009497869018204596614 156.14416401632172438 6.009497869018204596614 63.09596126471550548
7.009497869018204596614 165.50842049704885994 7.009497869018204596614 66.56960228921958844
8.009497869018204596614 173.95674473523041570 8.009497869018204596614 69.68251639325210078
9.009497869018204596614 181.66293201858033513 9.009497869018204596614 72.49262713791709700
10.009497869018190385759 188.75138772039801438 10.009497869018190385759 75.03814851815796771
11.009497869018190385759 195.31510867928349739 11.009497869018190385759 77.33469975403320973
12.009497869018190385759 201.42604962368224619 12.009497869018190385759 79.43252042266873048
13.009497869018190385759 207.14110435528777998 13.009497869018190385759 81.35379313178042082
14.009497869018190385759 212.50690174750488382 14.009497869018190385759 83.11469211666020840
15.009497869018190385759 217.56104406245992777 15.009497869018190385759 84.73454353303758069
16.009497869018204596614 222.33474092247686826 16.009497869018204596614 86.23010234001932872
17.009497869018204596614 226.85537193884917428 17.009497869018204596614 87.61681278987421706
18.009497869018204596614 231.14665995186192049 18.009497869018204596614 88.91119489114973362
19.009497869018204596614 235.22875685292061121 19.009497869018204596614 90.11669618770858392
20.009497869018204596614 239.11988483243794690 20.009497869018204596614 91.23984735200112084
21.009497869018204596614 242.83492560896442569 21.009497869018204596614 92.28590355765898323
22.009497869018190385759 246.38659258800518614 22.009497869018190385759 93.26419216535929024
23.009497869018190385759 249.78655099267655260 23.009497869018190385759 94.17781461863305026
24.009497869018190385759 253.04557411198689465 24.009497869018190385759 95.03712690151289166
25.009497869018190385759 256.17378921016751292 25.009497869018190385759 95.84655490830351710
26.009497869018190385759 259.18010570884882782 26.009497869018190385759 96.61058682251315588
27.009497869018204596614 262.07265257472141684 27.009497869018204596614 97.33500778349593929
28.009497869018190385759 264.85847533440681900 28.009497869018190385759 98.02124228333268263
29.009497869018190385759 267.54388775745792373 29.009497869018190385759 98.66589290741899276
30.009497869018190385759 270.13475343069995915 30.009497869018190385759 99.28303366864554391
31.009497869018190385759 272.63644387940371416 31.009497869018190385759 99.86756129318162323
32.009497869018190385759 275.05390623384113269 32.009497869018190385759 100.42185969298419934
33.009497869018218807469 277.39174098673277058 33.009497869018218807469 100.94435874960288402
34.009497869018190385759 279.65433616829318453 34.009497869018190385759 101.44754704758820196
35.009497869018218807469 281.84561034146383918 35.009497869018218807469 101.92499436761046638
36.009497869018190385759 283.96918704833115044 36.009497869018190385759 102.38501956493128375
37.009497869018218807469 286.02842321738143028 37.009497869018218807469 102.82625601678059013
38.009497869018190385759 288.02651414192354196 38.009497869018190385759 103.25058751223384945
39.009497869018190385759 289.96638412523708439 39.009497869018190385759 103.65992474388154676
40.009497869018190385759 291.85077122302317321 40.009497869018190385759 104.05208508504776432
41.009497869018190385759 293.68230314288865657 41.009497869018190385759 104.43305606400161878
42.009497869018190385759 295.46338698605626405 42.009497869018190385759 104.79355077492355974
43.009497869018190385759 297.19629426103688274 43.009497869018190385759 105.14829956905946062
44.009497869018218807469 298.88321273253740173 44.009497869018218807469 105.47724546017659009
46.009497869018218807469 302.12720756873324035 46.009497869018218807469 106.10537125375037704
48.009497869018218807469 305.20933278380550746 48.009497869018218807469 106.68213669070470928
50.009497869018218807469 308.14069950376955376 50.009497869018218807469 107.17994503714402299
52.009497869018190385759 310.93238731998690128 52.009497869018190385759 107.62180375761114703
54.009497869018190385759 313.59493730117191035 54.009497869018190385759 108.01687663478861623
56.009497869018190385759 316.13670245648296486 56.009497869018190385759 108.36675075132208690
58.009497869018190385759 318.56488516285560308 58.009497869018190385759 108.67332882049893783
60.009497869018190385759 320.88665402575418284 60.009497869018190385759 108.99410636741305325
62.009497869018190385759 323.10803617558622136 62.009497869018190385759 109.30037074063136515
64.009497869018190385759 325.23534869308281259 64.009497869018190385759 109.59204108605838712
66.009497869018218807469 327.27710859521408793 66.009497869018218807469 109.90011270191787673
68.009497869018218807469 329.24068902163082839 68.009497869018218807469 110.20909268794585500
70.009497869018218807469 331.13047120052948458 70.009497869018218807469 110.46403929995837245
72.009497869018218807469 332.95103620661751620 72.009497869018218807469 110.63807463282415711
74.009497869018190385759 334.70663203715901091 74.009497869018190385759 110.79579686834367180
76.009497869018190385759 336.40068071536649086 76.009497869018190385759 110.93326757021705475
78.009497869018190385759 338.03757507992662568 78.009497869018190385759 111.10220992216125069
80.009497869018190385759 339.62003373778406967 80.009497869018190385759 111.18634951947930745
82.009497869018190385759 341.14801307897073457 82.009497869018190385759 111.30013218630637084
84.009497869018190385759 342.62220537254955843 84.009497869018190385759 111.38930658482718172
86.009497869018190385759 344.04383080880057832 86.009497869018190385759 111.36587644967602273
88.009497869018218807469 345.41645935020039815 88.009497869018218807469 111.37722147380928561
91.009497869018190385759 347.38677373099000079 91.009497869018190385759 111.33446054031641381
94.009497869018218807469 349.25770940579394619 94.009497869018218807469 111.37163940907039716
97.009497869018190385759 351.04274923193884206 97.009497869018190385759 111.54211789464694959
99.504748934509109403734 352.47167072188517523 99.504748934509109403734 111.62596690750514483
nan nan nan nan

