Time Pressure difference Time.1 Pressure.1 difference.1
(hr) (psi) (hr) (psi)
0.000200000000006639311 0.08251547357036383 0.000200000000006639311 0.06516199239687219
0.000399999999999067768 0.14977066960322488 0.000399999999999067768 0.12889604312577277
0.000600000000005707079 0.20959148822083962 0.000600000000005707079 0.17263366276866735
0.000799999999998135536 0.26437727499345309 0.000799999999998135536 0.21194107604535006
0.001007140329434719206 0.31714061912118080 0.001007140329434719206 0.24907997901244214
0.001267914553963578328 0.37908165747321182 0.001267914553963578328 0.29172170281531490
0.001596209851982166583 0.45148167887287211 0.001596209851982166583 0.34020082608066371
0.002009509145224797066 0.53574736095470388 0.002009509145224797066 0.39508317119523029
0.002529822128138903281 0.63342045218740350 0.002529822128138903281 0.45698275714011438
0.003184857364431081805 0.74619023849090504 0.003184857364431081805 0.52657541503768301
0.004009497869020606231 0.87590947618366166 0.004009497869020606231 0.60461511788257483
0.005047658755842121536 1.02461435160220460 0.005047658755842121536 0.69195241897741533
0.006354625877790454069 1.19454886700733698 0.006354625877790454069 0.78955430851182240
0.008000000000009777068 1.38819389047816588 0.008000000000009777068 0.89852488509747608
0.010071403294347192059 1.60830098516362852 0.010071403294347192059 1.02012644261132168
0.012679145539706837553 1.85793106242504003 0.012679145539706837553 1.15580060301311760
0.015962098519750611558 2.14049779118893602 0.015962098519750611558 1.30718851555578164
0.020095091452091651263 2.45981533893365745 0.020095091452091651263 1.47614837644193653
0.025298221281360611101 2.82014954730714873 0.025298221281360611101 1.66477095226227201
0.031848573644296607199 3.22627239709167712 0.031848573644296607199 1.87540327118295780
0.040094978690177640601 3.68352349509436428 0.040094978690177640601 2.11069963494051738
0.050476587558421215363 4.19788718238013203 0.050476587558421215363 2.37370057686673652
0.063546258777961384112 4.77608917678119127 0.063546258777961384112 2.66787367108814655
0.079999999999998294697 5.42569077760802099 0.079999999999998294697 2.99697287796690448
0.100714032943542974863 6.15511841621035671 0.100714032943542974863 3.36458633667460072
0.126791455396897845276 6.97354658188150900 0.126791455396897845276 3.77339149689460740
0.159620985197506115583 7.89058056560444587 0.159620985197506115583 4.22437671289987371
0.200950914520760193227 8.91577630441596902 0.200950914520760193227 4.71640950999174002
0.252982212813478213320 10.05811861245435068 0.252982212813478213320 5.24649457579089518
0.318485736442795541734 11.32565238901689320 0.318485736442795541734 5.81031045726719508
0.400949786901833249431 12.72519846011204869 0.400949786901833249431 6.40394637164143621
0.504765875584155310207 14.26276957437386450 0.504765875584155310207 7.02448319772899055
0.635462587779443310865 15.94353564173961502 0.635462587779443310865 7.67078580980128066
0.799999999999997157829 17.77257671936694550 0.799999999999997157829 8.34464914505868194
1.007140329435344483500 19.75533746392449075 1.007140329435344483500 9.05222884294655117
1.267914553968893187630 21.89897695481013784 1.267914553968893187630 9.79603235728039046
1.596209851975103788391 24.20911228450805908 1.596209851975103788391 10.59070867249109682
2.009509145207672986544 26.69822254221472235 2.009509145207672986544 11.44274169269514374
2.529822128134711078928 29.37311768744869056 2.529822128134711078928 12.36676927886813715
3.184857364427998049905 32.25041078970732400 3.184857364427998049905 13.38307530292592240
4.009497869018190385759 35.34280537030193159 4.009497869018190385759 14.49673004635809548
5.009497869018204596614 38.55172837518410489 5.009497869018204596614 15.67301999423620806
6.009497869018204596614 41.34163202061471054 6.009497869018204596614 16.70565165868231006
7.009497869018204596614 43.82096673037953849 7.009497869018204596614 17.62535294826588128
8.009497869018204596614 46.05779392175143272 8.009497869018204596614 18.44954609189974803
9.009497869018204596614 48.09812864035731650 9.009497869018204596614 19.19356726665829527
10.009497869018190385759 49.97490917240680375 10.009497869018190385759 19.86753423087685633
11.009497869018190385759 51.71275789879196338 11.009497869018190385759 20.47558241960146574
12.009497869018190385759 53.33072596961036993 12.009497869018190385759 21.03101355386340998
13.009497869018190385759 54.84387691687863509 13.009497869018190385759 21.53970082918830542
14.009497869018190385759 56.26455647082614320 14.009497869018190385759 22.00592662966563395
15.009497869018190385759 57.60272042386922209 15.009497869018190385759 22.43480786007105365
16.009497869018204596614 58.86663201613441032 16.009497869018204596614 22.83078066029025166
17.009497869018204596614 60.06354043187452163 17.009497869018204596614 23.19793413988523056
18.009497869018204596614 61.19972666749908541 18.009497869018204596614 23.54064223187263849
19.009497869018204596614 62.28052625433742406 19.009497869018204596614 23.85981772790654531
20.009497869018204596614 63.31076380492246614 20.009497869018204596614 24.15718972659907493
21.009497869018204596614 64.29437948913518142 21.009497869018204596614 24.43414961811745201
22.009497869018190385759 65.23473938175290243 22.009497869018190385759 24.69316696842507142
23.009497869018190385759 66.13493203472087600 23.009497869018190385759 24.93506293365030047
24.009497869018190385759 66.99780984635091841 24.009497869018190385759 25.16257942402581804
25.009497869018190385759 67.82605416969812495 25.009497869018190385759 25.37688826492761152
26.009497869018190385759 68.62202391476650121 26.009497869018190385759 25.57917777378148827
27.009497869018204596614 69.38787135379590154 27.009497869018204596614 25.77097965754474629
28.009497869018190385759 70.12546190116677280 28.009497869018190385759 25.95267107298014153
29.009497869018190385759 70.83646722702552267 29.009497869018190385759 26.12335250094596617
30.009497869018190385759 71.52243980853563698 30.009497869018190385759 26.28675025850085589
31.009497869018190385759 72.18480184179730941 31.009497869018190385759 26.44151317334747375
32.009497869018190385759 72.82486315763615892 32.009497869018190385759 26.58827242380436928
33.009497869018218807469 73.44384180911457349 33.009497869018218807469 26.72661229622886836
34.009497869018190385759 74.04289959649311470 34.009497869018190385759 26.85983934050197064
35.009497869018218807469 74.62307402116150001 35.009497869018218807469 26.98625105456081741
36.009497869018190385759 75.18532447308157884 36.009497869018190385759 27.10804998664168153
37.009497869018218807469 75.73053975205617405 37.009497869018218807469 27.22487430179526768
38.009497869018190385759 76.25956586242375579 38.009497869018190385759 27.33722276291323894
39.009497869018190385759 76.77317705963507422 39.009497869018190385759 27.44560125601751466
40.009497869018190385759 77.27209828715481876 40.009497869018190385759 27.54943189624482258
41.009497869018190385759 77.75702527204791181 41.009497869018190385759 27.65029997621224211
42.009497869018190385759 78.22859533235705953 42.009497869018190385759 27.74574664101845656
43.009497869018190385759 78.68740988581424745 43.009497869018190385759 27.83967198366136486
44.009497869018218807469 79.13404817765757571 44.009497869018218807469 27.92676560045408607
46.009497869018218807469 79.99294701412489417 46.009497869018218807469 28.09307181871191617
48.009497869018218807469 80.80898831343118616 48.009497869018218807469 28.24577957187701216
50.009497869018218807469 81.58511392156832187 50.009497869018218807469 28.37758218906053997
52.009497869018190385759 82.32425733523074030 52.009497869018190385759 28.49457125965264481
54.009497869018190385759 83.02920946874205299 54.009497869018190385759 28.59917303976073200
56.009497869018190385759 83.70218191312176259 56.009497869018190385759 28.69180773456592703
58.009497869018190385759 84.34508161134668569 58.009497869018190385759 28.77297911744371461
60.009497869018190385759 84.95980656486362648 60.009497869018190385759 28.85791003617860540
62.009497869018190385759 85.54795255158087741 62.009497869018190385759 28.93899836309995877
64.009497869018190385759 86.11119211833148768 64.009497869018190385759 29.01622269080975514
66.009497869018218807469 86.65178027979190745 66.009497869018218807469 29.09778951374607558
68.009497869018218807469 87.17166919106314538 68.009497869018218807469 29.17959684202232395
70.009497869018218807469 87.67201885146401708 70.009497869018218807469 29.24709798165903862
72.009497869018218807469 88.15404217283150956 72.009497869018218807469 29.29317658302879934
74.009497869018190385759 88.61886387949218147 74.009497869018190385759 29.33493603438834896
76.009497869018190385759 89.06739000610518531 76.009497869018190385759 29.37133357256255906
78.009497869018190385759 89.50078362604980953 78.009497869018190385759 29.41606372684513460
80.009497869018190385759 89.91976453342550712 80.009497869018190385759 29.43834101330409325
82.009497869018190385759 90.32432118180486214 82.009497869018190385759 29.46846677030514883
84.009497869018190385759 90.71463686034917373 84.009497869018190385759 29.49207709985240911
86.009497869018190385759 91.09103463369464748 86.009497869018190385759 29.48587360174721539
88.009497869018218807469 91.45445970575570982 88.009497869018218807469 29.48887737595765302
91.009497869018190385759 91.97613153773666284 91.009497869018190385759 29.47755574387196376
94.009497869018218807469 92.47149128870307777 94.009497869018218807469 29.48739943621008663
97.009497869018190385759 92.94410875794716276 97.009497869018190385759 29.53253630611833458
99.504748934509109403734 93.32243827667021208 99.504748934509109403734 29.55473665575492248
nan nan nan nan

