Time Pressure difference Time.1 Pressure.1 difference.1
(hr) (psi) (hr) (psi)
0.000200000000006639311 0.16693515037696685 0.000200000000006639311 0.13182772307982604
0.000399999999999067768 0.30299758542806271 0.000399999999999067768 0.26076661032367876
0.000600000000005707079 0.42401970309292941 0.000600000000005707079 0.34925117929353472
0.000799999999998135536 0.53485556402521661 0.000799999999998135536 0.42877309999943897
0.001007140329434719206 0.64159986791438883 0.001007140329434719206 0.50390795754055606
0.001267914553963578328 0.76691135319580550 0.001267914553963578328 0.59017544492636786
0.001596209851982166583 0.91338216571973363 0.001596209851982166583 0.68825244045549672
0.002009509145224797066 1.08385812254682401 0.002009509145224797066 0.79928364634111970
0.002529822128138903281 1.28145829942528566 0.002529822128138903281 0.92451127021423152
0.003184857364431081805 1.50960025171621570 0.003184857364431081805 1.06530257042238952
0.004009497869020606231 1.77203224797156156 0.004009497869020606231 1.22318289233167055
0.005047658755842121536 2.07287364977984456 0.005047658755842121536 1.39987297070046357
0.006354625877790454069 2.41666424633022814 0.006354625877790454069 1.59732910106622539
0.008000000000009777068 2.80842302458275084 0.008000000000009777068 1.81778495985104782
0.010071403294347192059 3.25371660844641752 0.010071403294347192059 2.06379426466752003
0.012679145539706837553 3.75873745705988860 0.012679145539706837553 2.33827352763423013
0.015962098519750611558 4.33039168525146234 0.015962098519750611558 2.64454291993208113
0.020095091452091651263 4.97639564722732253 0.020095091452091651263 2.98636171541714823
0.025298221281360611101 5.70537946878292423 0.025298221281360611101 3.36795969573059661
0.031848573644296607199 6.52699723411623900 0.031848573644296607199 3.79408507939321460
0.040094978690177640601 7.45205137853706123 0.040094978690177640601 4.27010772299504637
0.050476587558421215363 8.49264868435365194 0.050476587558421215363 4.80217885935347422
0.063546258777961384112 9.66239579610348720 0.063546258777961384112 5.39731365766294235
0.079999999999998294697 10.97658980393007155 0.079999999999998294697 6.06310666850227609
0.100714032943542974863 12.45227802664095229 0.100714032943542974863 6.80681697342630798
0.126791455396897845276 14.10802116180643928 0.126791455396897845276 7.63386125910216684
0.159620985197506115583 15.96325145195361195 0.159620985197506115583 8.54623904225128328
0.200950914520760193227 18.03730129277999694 0.200950914520760193227 9.54165923944482941
0.252982212813478213320 20.34834765442687754 0.252982212813478213320 10.61406210333081113
0.318485736442795541734 22.91266598701109913 0.318485736442795541734 11.75470500200978741
0.400949786901833249431 25.74405534622668412 0.400949786901833249431 12.95567612108998290
0.504765875584155310207 28.85467998507943221 0.504765875584155310207 14.21106985386711230
0.635462587779443310865 32.25499902905783500 0.635462587779443310865 15.51858975367489712
0.799999999999997157829 35.95528982456543332 0.799999999999997157829 16.88186711654179462
1.007140329435344483500 39.96656733086261681 1.007140329435344483500 18.31335527457648382
1.267914553968893187630 44.30331491626974127 1.267914553968893187630 19.81812699972878988
1.596209851975103788391 48.97689639096630287 1.596209851975103788391 21.42581831434736728
2.009509145207672986544 54.01255791232670589 2.009509145207672986544 23.14954665522171240
2.529822128134711078928 59.42407655230004337 2.529822128134711078928 25.01892554109477018
3.184857364427998049905 65.24506182840788426 3.184857364427998049905 27.07499080515013290
4.009497869018190385759 71.50121394145698162 4.009497869018190385759 29.32800001686291580
5.009497869018204596614 77.99311202056476588 5.009497869018204596614 31.70772506526248335
6.009497869018204596614 83.63730170324360813 6.009497869018204596614 33.79681835564191061
7.009497869018204596614 88.65318653915245761 7.009497869018204596614 35.65744481072250949
8.009497869018204596614 93.17846001092789265 8.009497869018204596614 37.32485093976640655
9.009497869018204596614 97.30621409549210910 9.009497869018204596614 38.83006300870101768
10.009497869018190385759 101.10308547956145730 10.009497869018190385759 40.19355002092778761
11.009497869018190385759 104.61888713370990445 11.009497869018190385759 41.42367827965526317
12.009497869018190385759 107.89216100005789656 12.009497869018190385759 42.54735818973905737
13.009497869018190385759 110.95338176260831631 13.009497869018190385759 43.57647167751171935
14.009497869018190385759 113.82752578328673110 14.009497869018190385759 44.51968233540047493
15.009497869018190385759 116.53473439598158734 15.009497869018190385759 45.38734205537451061
16.009497869018204596614 119.09172477110267607 16.009497869018204596614 46.18842548966411954
17.009497869018204596614 121.51316256602308385 17.009497869018204596614 46.93120522146011808
18.009497869018204596614 123.81175471963274504 18.009497869018204596614 47.62453005371156678
19.009497869018204596614 125.99829542223648104 19.009497869018204596614 48.27024663414940164
20.009497869018204596614 128.08254523611239506 20.009497869018204596614 48.87185306227350878
21.009497869018204596614 130.07247542801965778 21.009497869018204596614 49.43216422742222704
22.009497869018190385759 131.97489582616165649 22.009497869018190385759 49.95617625150610053
23.009497869018190385759 133.79605480870455381 23.009497869018190385759 50.44555039653868533
24.009497869018190385759 135.54172299684839231 24.009497869018190385759 50.90583375783684517
25.009497869018190385759 137.21732497408160611 25.009497869018190385759 51.33939702827663609
26.009497869018190385759 138.82763299679683655 26.009497869018190385759 51.74864426541946472
27.009497869018204596614 140.37700127729476662 27.009497869018204596614 52.13667423026360837
28.009497869018190385759 141.86920369236048600 28.009497869018190385759 52.50424993995213185
29.009497869018190385759 143.30762215929007652 29.009497869018190385759 52.84955159806761316
30.009497869018190385759 144.69539745880669557 30.009497869018190385759 53.18011783065942666
31.009497869018190385759 146.03540680302074861 31.009497869018190385759 53.49321511223373449
32.009497869018190385759 147.33030008044849524 32.009497869018190385759 53.79012036508115102
33.009497869018218807469 148.58254150613177558 33.009497869018218807469 54.06999256852455460
34.009497869018190385759 149.79448149136683810 34.009497869018190385759 54.33952112732321638
35.009497869018218807469 150.96821898127288364 35.009497869018218807469 54.59526174884226890
36.009497869018190385759 152.10569489554194433 36.009497869018190385759 54.84167035759048048
37.009497869018218807469 153.20870734454442186 37.009497869018218807469 55.07801493363196244
38.009497869018190385759 154.27896786013420183 38.009497869018190385759 55.30530451266293568
39.009497869018190385759 155.31804282064635458 39.009497869018190385759 55.52456254102005317
40.009497869018190385759 156.32739884247476425 40.009497869018190385759 55.73461991317221731
41.009497869018190385759 157.30844343498924331 41.009497869018190385759 55.93868379802937341
42.009497869018190385759 158.26246594161466419 42.009497869018190385759 56.13177974298349682
43.009497869018190385759 159.19068307668575812 43.009497869018190385759 56.32179793617645203
44.009497869018218807469 160.09426669787646347 44.009497869018218807469 56.49799502245711125
46.009497869018218807469 161.83188511319110603 46.009497869018218807469 56.83444529477872464
48.009497869018218807469 163.48279943409539783 48.009497869018218807469 57.14338482618195059
50.009497869018218807469 165.05296124132667046 50.009497869018218807469 57.41003165940708897
52.009497869018190385759 166.54830522435145213 52.009497869018190385759 57.64670954837419714
54.009497869018190385759 167.97447761753198847 54.009497869018190385759 57.85832699582363148
56.009497869018190385759 169.33595263962325816 56.009497869018190385759 58.04573410916030696
58.009497869018190385759 170.63658818295522224 58.009497869018190385759 58.20995006067458633
60.009497869018190385759 171.88022405045489904 60.009497869018190385759 58.38177184242287865
62.009497869018190385759 173.07008862358284773 62.009497869018190385759 58.54581976534836940
64.009497869018190385759 174.20956559323985857 64.009497869018190385759 58.70205052063819551
66.009497869018218807469 175.30321702757902358 66.009497869018218807469 58.86706647780936663
68.009497869018218807469 176.35499228653543469 68.009497869018218807469 59.03256899578362749
70.009497869018218807469 177.36723813796180593 70.009497869018218807469 59.16912899366405298
72.009497869018218807469 178.34240839580527904 72.009497869018218807469 59.26234954874288263
74.009497869018190385759 179.28277846389573824 74.009497869018190385759 59.34683213110872657
76.009497869018190385759 180.19018132004356403 76.009497869018190385759 59.42046715064579843
78.009497869018190385759 181.06696995116232074 78.009497869018190385759 59.51095969354054205
80.009497869018190385759 181.91460055608393986 80.009497869018190385759 59.55602835768443271
82.009497869018190385759 182.73304977549753403 82.009497869018190385759 59.61697508146349378
84.009497869018190385759 183.52268841747562078 84.009497869018190385759 59.66474059431679677
86.009497869018190385759 184.28417006662840549 86.009497869018190385759 59.65219044045783647
88.009497869018218807469 185.01940694318270175 88.009497869018218807469 59.65826730674509548
91.009497869018190385759 186.07478918788262945 91.009497869018190385759 59.63536277414097242
94.009497869018218807469 187.07694006868391057 94.009497869018218807469 59.65527732094809465
97.009497869018190385759 188.03308156415462804 97.009497869018190385759 59.74659268083939878
99.504748934509109403734 188.79847128280204061 99.504748934509109403734 59.79150569587342545
nan nan nan nan

