Time Pressure difference Time.1 Pressure.1 difference.1
(hr) (psi) (hr) (psi)
0.000200000000006639311 0.11933006947098772 0.000200000000006639311 0.09423426592778440
0.000399999999999067768 0.21659142988774063 0.000399999999999067768 0.18640350852034834
0.000600000000005707079 0.30310153681167573 0.000600000000005707079 0.24965483538853434
0.000799999999998135536 0.38233021306745524 0.000799999999998135536 0.30649940228096778
0.001007140329434719206 0.45863412611370763 0.001007140329434719206 0.36020796964876256
0.001267914553963578328 0.54821039696126017 0.001267914553963578328 0.42187446253291688
0.001596209851982166583 0.65291196636999971 0.001596209851982166583 0.49198273310126756
0.002009509145224797066 0.77477310661141785 0.002009509145224797066 0.57135104757464061
0.002529822128138903281 0.91602342316332208 0.002529822128138903281 0.66086737186416555
0.003184857364431081805 1.07910588335607804 0.003184857364431081805 0.76150906174680322
0.004009497869020606231 1.26669985786560302 0.004009497869020606231 0.87436647816864665
0.005047658755842121536 1.48174998539395730 0.005047658755842121536 1.00066965205964675
0.006354625877790454069 1.72750143844137960 0.006354625877790454069 1.14181700000171249
0.008000000000009777068 2.00754193392227043 0.008000000000009777068 1.29940521844865775
0.010071403294347192059 2.32585065546740122 0.010071403294347192059 1.47525977854560364
0.012679145539706837553 2.68685415181467313 0.012679145539706837553 1.67146548743435464
0.015962098519750611558 3.09548911341169219 0.015962098519750611558 1.89039569941913044
0.020095091452091651263 3.55727141322713569 0.020095091452091651263 2.13473765208526167
0.025298221281360611101 4.07837011456726106 0.025298221281360611101 2.40751491557928565
0.031848573644296607199 4.66568623579411668 0.031848573644296607199 2.71212165371073866
0.040094978690177640601 5.32694166982877348 0.040094978690177640601 3.05239639514474836
0.050476587558421215363 6.07079069451896025 0.050476587558421215363 3.43273621885343383
0.063546258777961384112 6.90695973257587603 0.063546258777961384112 3.85815577049670466
0.079999999999998294697 7.84638358607929121 0.079999999999998294697 4.33408385429060061
0.100714032943542974863 8.90124817113497890 0.100714032943542974863 4.86570947149865329
0.126791455396897845276 10.08482121072095339 0.126791455396897845276 5.45690462627835515
0.159620985197506115583 11.41099343333566019 0.159620985197506115583 6.10909863096289385
0.200950914520760193227 12.89358419407847833 0.200950914520760193227 6.82065375291113263
0.252982212813478213320 14.54558691647244650 0.252982212813478213320 7.58723830960529533
0.318485736442795541734 16.37863576257827347 0.318485736442795541734 8.40260281512486706
0.400949786901833249431 18.40259469616203702 0.400949786901833249431 9.26109167591222970
0.504765875584155310207 20.62615907678681992 0.504765875584155310207 10.15848339363884811
0.635462587779443310865 23.05680538959267167 0.635462587779443310865 11.09313640186646666
0.799999999999997157829 25.70188017877681474 0.799999999999997157829 12.06764645593101726
1.007140329435344483500 28.56925725552156692 1.007140329435344483500 13.09091555749193603
1.267914553968893187630 31.66928975003312274 1.267914553968893187630 14.16656987052856564
1.596209851975103788391 35.01010084221165641 1.596209851975103788391 15.31579408021789312
2.009509145207672986544 38.60973721489513366 2.009509145207672986544 16.54796490943605392
2.529822128134711078928 42.47804711723349413 2.529822128134711078928 17.88425095713238377
3.184857364427998049905 46.63905560357674318 3.184857364427998049905 19.35398582269287360
4.009497869018190385759 51.11113392012894252 4.009497869018190385759 20.96450191319478407
5.009497869018204596614 55.75173026565085621 5.009497869018204596614 22.66559814551082397
6.009497869018204596614 59.78636015288896743 6.009497869018204596614 24.15894239870980087
7.009497869018204596614 63.37185957931810520 7.009497869018204596614 25.48897195595373688
8.009497869018204596614 66.60665582530207018 8.009497869018204596614 26.68088204059347746
9.009497869018204596614 69.55729372605519245 9.009497869018204596614 27.75685112409046340
10.009497869018190385759 72.27140711086522629 10.009497869018190385759 28.73151104157576086
11.009497869018190385759 74.78460373056067567 11.009497869018190385759 29.61084226834673316
12.009497869018190385759 77.12443447912885119 12.009497869018190385759 30.41408113943324310
13.009497869018190385759 79.31268354133219134 13.009497869018190385759 31.14972119913385384
14.009497869018190385759 81.36720474242549983 14.009497869018190385759 31.82395543367029944
15.009497869018190385759 83.30239568990317878 15.009497869018190385759 32.44418367456429309
16.009497869018204596614 85.13020630025590663 16.009497869018204596614 33.01682126257359329
17.009497869018204596614 86.86112000917238163 17.009497869018204596614 33.54778167921863741
18.009497869018204596614 88.50422010376790638 18.009497869018204596614 34.04339030455427917
19.009497869018204596614 90.06722258319565810 19.009497869018204596614 34.50496717574177552
20.009497869018204596614 91.55710457942633695 20.009497869018204596614 34.93501283538943625
21.009497869018204596614 92.97956418428779557 21.009497869018204596614 35.33553944773908029
22.009497869018190385759 94.33946925976573539 22.009497869018190385759 35.71011838510702319
23.009497869018190385759 95.64128632713480727 23.009497869018190385759 36.05993716558658946
24.009497869018190385759 96.88914039318440530 24.009497869018190385759 36.38896101320656129
25.009497869018190385759 98.08690910694805609 25.009497869018190385759 36.69888456774146590
26.009497869018190385759 99.23800381520078417 26.009497869018190385759 36.99142631900707556
27.009497869018204596614 100.34553703472022335 27.009497869018204596614 37.26880135091086288
28.009497869018190385759 101.41220644168733145 28.009497869018190385759 37.53155509015589786
29.009497869018190385759 102.44042952831382820 29.009497869018190385759 37.77838669367570645
30.009497869018190385759 103.43245141542075771 30.009497869018190385759 38.01468498921662587
31.009497869018190385759 104.39032881736842739 31.009497869018190385759 38.23849597376403864
32.009497869018190385759 105.31595595104303698 32.009497869018190385759 38.45073242827093196
33.009497869018218807469 106.21109430856569134 33.009497869018218807469 38.65079316685405786
34.009497869018190385759 107.07742403185157798 34.009497869018190385759 38.84345996934131051
35.009497869018218807469 107.91644550752586440 35.009497869018218807469 39.02627075582641680
36.009497869018190385759 108.72954616107182346 36.009497869018190385759 39.20241074991258756
37.009497869018218807469 109.51801133374277697 37.009497869018218807469 39.37135668259623600
38.009497869018190385759 110.28306447796666134 38.009497869018190385759 39.53382984175145509
39.009497869018190385759 111.02582528624149916 39.009497869018190385759 39.69056181639455616
40.009497869018190385759 111.74734213834697982 40.009497869018190385759 39.84071689610789946
41.009497869018190385759 112.44862116265390739 41.009497869018190385759 39.98658765790693081
42.009497869018190385759 113.13058401910099349 42.009497869018190385759 40.12461821931900374
43.009497869018190385759 113.79410045025444731 43.009497869018190385759 40.26044871483335896
44.009497869018218807469 114.44000813384324999 44.009497869018218807469 40.38639948373360511
46.009497869018218807469 115.68210798965752417 46.009497869018218807469 40.62690386090646655
48.009497869018218807469 116.86222925326971733 48.009497869018218807469 40.84774276548367311
50.009497869018218807469 117.98462628657571827 50.009497869018218807469 41.03834962725677826
52.009497869018190385759 119.05354137710293116 52.009497869018190385759 41.20753382165152345
54.009497869018190385759 120.07301061633465622 54.009497869018190385759 41.35880408826936616
56.009497869018190385759 121.04623230512993359 56.009497869018190385759 41.49276810844919083
58.009497869018190385759 121.97596417640905031 58.009497869018190385759 41.61015441599552389
60.009497869018190385759 122.86495103226434367 60.009497869018190385759 41.73297759078137403
62.009497869018190385759 123.71550061305541135 62.009497869018190385759 41.85024378663685951
64.009497869018190385759 124.53003167881784918 64.009497869018190385759 41.96192204517103619
66.009497869018218807469 125.31180532769907643 66.009497869018218807469 42.07988021987894456
68.009497869018218807469 126.06364467630672266 68.009497869018218807469 42.19818620230920914
70.009497869018218807469 126.78722726211719873 70.009497869018218807469 42.29580323501460981
72.009497869018218807469 127.48430714224865312 72.009497869018218807469 42.36243998161087632
74.009497869018190385759 128.15651084111178193 74.009497869018190385759 42.42283057280776148
76.009497869018190385759 128.80514862421364342 76.009497869018190385759 42.47546701262893265
78.009497869018190385759 129.43190247459511966 78.009497869018190385759 42.54015369728373486
80.009497869018190385759 130.03781332526153847 80.009497869018190385759 42.57237008077822793
82.009497869018190385759 130.62286447830243219 82.009497869018190385759 42.61593656013359777
84.009497869018190385759 131.18732099804341829 84.009497869018190385759 42.65008072901732561
86.009497869018190385759 131.73165008565072753 86.009497869018190385759 42.64110951637290015
88.009497869018218807469 132.25721865140056366 88.009497869018218807469 42.64545343600029526
91.009497869018190385759 133.01163637764992131 91.009497869018190385759 42.62908061421483552
94.009497869018218807469 133.72800278673983598 94.009497869018218807469 42.64331610774996761
97.009497869018190385759 134.41148035764666702 97.009497869018190385759 42.70859096577112979
99.504748934509109403734 134.95860304626151560 99.504748934509109403734 42.74069608678404109
nan nan nan nan

