Time Pressure difference Time.1 Pressure.1 difference.1
(hr) (psi) (hr) (psi)
0.000200000000006639311 0.64235122502467845 0.000200000000006639311 0.50726104850488196
0.000399999999999067768 1.16590705875741207 0.000399999999999067768 1.00340612033293897
0.000600000000005707079 1.63158912368838216 0.000600000000005707079 1.34388666709147198
0.000799999999998135536 2.05807540225672714 0.000799999999998135536 1.64987976121457125
0.001007140329434719206 2.46881774269719223 0.001007140329434719206 1.93899183661993413
0.001267914553963578328 2.95100490279146443 0.001267914553963578328 2.27094125576229766
0.001596209851982166583 3.51461122322574315 0.001596209851982166583 2.64833258456639742
0.002009509145224797066 4.17058714835507960 0.002009509145224797066 3.07557053268902347
0.002529822128138903281 4.93093459702809511 0.002529822128138903281 3.55743500173689098
0.003184857364431081805 5.80880401040612249 0.003184857364431081805 4.09918707706257912
0.004009497869020606231 6.81861838382973584 0.004009497869020606231 4.70669614843973694
0.005047658755842121536 7.97622864478023796 0.005047658755842121536 5.38658344619341900
0.006354625877790454069 9.29910348778019191 0.006354625877790454069 6.14637661703049520
0.008000000000009777068 10.80655551664541569 0.008000000000009777068 6.99467064398958360
0.010071403294347192059 12.52000459219686057 0.010071403294347192059 7.94129199940505881
0.012679145539706837553 14.46327873210877257 0.012679145539706837553 8.99746315576365241
0.015962098519750611558 16.66295203602464170 0.015962098519750611558 10.17595982878808591
0.020095091452091651263 19.14871633077585855 0.020095091452091651263 11.49124736122491974
0.025298221281360611101 21.95377955288334348 0.025298221281360611101 12.95960156684168751
0.031848573644296607199 25.11528973735982362 0.031848573644296607199 14.59929315720887111
0.040094978690177640601 28.67481366950382338 0.040094978690177640601 16.43098485046003177
0.050476587558421215363 32.67893714283610507 0.050476587558421215363 18.47834602914720747
0.063546258777961384112 37.18001728386588667 0.063546258777961384112 20.76837042416310908
0.079999999999998294697 42.23691589953320857 0.079999999999998294697 23.33028117309621052
0.100714032943542974863 47.91522951696062194 0.100714032943542974863 26.19201055934381728
0.126791455396897845276 54.28637800664682800 0.126791455396897845276 29.37440149890263541
0.159620985197506115583 61.42513486455153782 0.159620985197506115583 32.88514794965132637
0.200950914520760193227 69.40588938514585493 0.200950914520760193227 36.71543403162800701
0.252982212813478213320 78.29858489079848027 0.252982212813478213320 40.84194239000296989
0.318485736442795541734 88.16584782834688383 0.318485736442795541734 45.23103217503385309
0.400949786901833249431 99.06077570487225614 0.400949786901833249431 49.85225944693179656
0.504765875584155310207 111.03017545589500514 0.504765875584155310207 54.68289997001337355
0.635462587779443310865 124.11429284184991673 0.635462587779443310865 59.71411722706842795
0.799999999999997157829 138.35267415384114997 0.799999999999997157829 64.95988411384144001
1.007140329435344483500 153.78770394993523496 1.007140329435344483500 70.46811991586083934
1.267914553968893187630 170.47511290975276665 1.267914553968893187630 76.25834419667503994
1.596209851975103788391 188.45862793786275802 1.596209851975103788391 82.44459366585375903
2.009509145207672986544 207.83539394401000777 2.009509145207672986544 89.07734302313450314
2.529822128134711078928 228.65842384383134345 2.529822128134711078928 96.27054238626581650
3.184857364427998049905 251.05704399372163493 3.184857364427998049905 104.18209389662334274
4.009497869018190385759 275.13014642111960484 4.009497869018190385759 112.85146774549532722
5.009497869018204596614 300.11037781297164884 5.009497869018204596614 122.00843257051572266
6.009497869018204596614 321.82870465278529082 6.009497869018204596614 130.04707291220384491
7.009497869018204596614 341.12937177803149780 7.009497869018204596614 137.20659372034668877
8.009497869018204596614 358.54221114471113196 8.009497869018204596614 143.62262034617342010
9.009497869018204596614 374.42543218493540280 9.009497869018204596614 149.41453902967845124
10.009497869018190385759 389.03544678827449843 10.009497869018190385759 154.66111262805677029
11.009497869018190385759 402.56393071982665788 11.009497869018190385759 159.39453391258984993
12.009497869018190385759 415.15918985573614464 12.009497869018190385759 163.71835166545980655
13.009497869018190385759 426.93848799908602132 13.009497869018190385759 167.67828645491201200
14.009497869018190385759 437.99793191135427151 14.009497869018190385759 171.30767499401247278
15.009497869018190385759 448.41502360735114507 15.009497869018190385759 174.64635041839926544
16.009497869018204596614 458.25408923329240451 16.009497869018204596614 177.72884637087486226
17.009497869018204596614 467.57156090043855556 17.009497869018204596614 180.58699499664501786
18.009497869018204596614 476.41633375006972528 18.009497869018204596614 183.25484568196236523
19.009497869018204596614 484.82994284145752317 19.009497869018204596614 185.73950415878019271
20.009497869018204596614 492.84994592755026588 20.009497869018204596614 188.05443079475585932
21.009497869018204596614 500.50701571542163038 21.009497869018204596614 190.21045702719123938
22.009497869018190385759 507.82735580256871799 22.009497869018190385759 192.22680747727824269
23.009497869018190385759 514.83500937798089581 23.009497869018190385759 194.10987452964693034
24.009497869018190385759 521.55218126543945800 24.009497869018190385759 195.88100290087788835
25.009497869018190385759 527.99974476718853111 25.009497869018190385759 197.54931480082112216
26.009497869018190385759 534.19606309033611069 26.009497869018190385759 199.12406082359123616
27.009497869018204596614 540.15789084647269647 27.009497869018204596614 200.61716471873296541
28.009497869018190385759 545.89974956908281456 28.009497869018190385759 202.03156250658386739
29.009497869018190385759 551.43465256730632973 29.009497869018190385759 203.36025177659473684
30.009497869018190385759 556.77468527875430482 30.009497869018190385759 204.63224047386822235
31.009497869018190385759 561.93091895306838524 31.009497869018190385759 205.83701024175110206
32.009497869018190385759 566.91355011944449416 32.009497869018190385759 206.97947456069246641
33.009497869018218807469 571.73206085249194075 33.009497869018218807469 208.05639725987393263
34.009497869018190385759 576.39549532039256974 34.009497869018190385759 209.09351855836916911
35.009497869018218807469 580.91193007242645763 35.009497869018218807469 210.07758513242728782
36.009497869018190385759 585.28883359045039469 36.009497869018190385759 211.02574297293369909
37.009497869018218807469 589.53312483908348440 37.009497869018218807469 211.93517533397547936
38.009497869018190385759 593.65138963671404326 38.009497869018190385759 212.80976489283230535
39.009497869018190385759 597.64965526423611664 39.009497869018190385759 213.65344977761327527
40.009497869018190385759 601.53356512769744313 40.009497869018190385759 214.46173137692125010
41.009497869018190385759 605.30853519471145319 41.009497869018190385759 215.24695058405222881
42.009497869018190385759 608.97952674111809301 42.009497869018190385759 215.98996615931292808
43.009497869018190385759 612.55122157264634097 43.009497869018190385759 216.72113882665615847
44.009497869018218807469 616.02812889068809454 44.009497869018218807469 217.39912913584259968
46.009497869018218807469 622.71432598687988502 46.009497869018218807469 218.69375908104967721
48.009497869018218807469 629.06689363994121322 48.009497869018218807469 219.88253020568873808
50.009497869018218807469 635.10873298943943155 50.009497869018218807469 220.90856288714817879
52.009497869018190385759 640.86268017887311998 52.009497869018190385759 221.81927780591135502
54.009497869018190385759 646.35046140282270244 54.009497869018190385759 222.63356243259892153
56.009497869018190385759 651.58929304676325955 56.009497869018190385759 223.35468790292861740
58.009497869018190385759 656.59401992832965789 58.009497869018190385759 223.98657589886951769
60.009497869018190385759 661.37941725878465604 60.009497869018190385759 224.64773043548271403
62.009497869018190385759 665.95790755538337180 62.009497869018190385759 225.27897187274737689
64.009497869018190385759 670.34251095193440051 64.009497869018190385759 225.88013356230365503
66.009497869018218807469 674.55078187038020587 66.009497869018218807469 226.51509990700790809
68.009497869018218807469 678.59791708735315297 68.009497869018218807469 227.15193849328147735
70.009497869018218807469 682.49294675139685751 70.009497869018218807469 227.67740890337648807
72.009497869018218807469 686.24531291465757477 72.009497869018218807469 228.03611309250112527
74.009497869018190385759 689.86377112343154749 74.009497869018190385759 228.36119436000774385
76.009497869018190385759 693.35537450906497270 76.009497869018190385759 228.64453519564085582
78.009497869018190385759 696.72917715048015452 78.009497869018190385759 228.99274224282521573
80.009497869018190385759 699.99078236789705443 80.009497869018190385759 229.16616234972110533
82.009497869018190385759 703.14010027681945303 82.009497869018190385759 229.40067978114467451
84.009497869018190385759 706.17855771287202060 84.009497869018190385759 229.58447711577412065
86.009497869018190385759 709.10866960999226194 86.009497869018190385759 229.53618526898603136
88.009497869018218807469 711.93779401711367427 88.009497869018218807469 229.55956849591649416
91.009497869018190385759 715.99880858607298251 91.009497869018190385759 229.47143394460329091
94.009497869018218807469 719.85499372436538579 94.009497869018218807469 229.54806330342006504
97.009497869018190385759 723.53413894648099358 97.009497869018190385759 229.89943647532118121
99.504748934509109403734 726.47928873838657182 99.504748934509109403734 230.07225765864603773
nan nan nan nan

