Time Pressure difference Time.1 Pressure.1 difference.1
(hr) (psi) (hr) (psi)
0.000200000000006639311 0.40496055490686256 0.000200000000006639311 0.31979500884003431
0.000399999999999067768 0.73502836312967290 0.000399999999999067768 0.63258211934033104
0.000600000000005707079 1.02861053449919759 0.000600000000005707079 0.84723289881853669
0.000799999999998135536 1.29748231881402365 0.000799999999998135536 1.04014158859179484
0.001007140329434719206 1.55642857691779501 0.001007140329434719206 1.22240789699952379
0.001267914553963578328 1.86041613436853193 0.001267914553963578328 1.43168035689362227
0.001596209851982166583 2.21573316246840291 0.001596209851982166583 1.66960097722664202
0.002009509145224797066 2.62928320222385459 0.002009509145224797066 1.93894664017351492
0.002529822128138903281 3.10863268073510346 0.002529822128138903281 2.24273076196456156
0.003184857364431081805 3.66207209351690377 0.003184857364431081805 2.58427011380032123
0.004009497869020606231 4.29869419850135515 0.004009497869020606231 2.96726496314679000
0.005047658755842121536 5.02849197170928086 0.005047658755842121536 3.39588956390454655
0.006354625877790454069 5.86247828577446928 0.006354625877790454069 3.87488960638879032
0.008000000000009777068 6.81282847788515245 0.008000000000009777068 4.40968366686299884
0.010071403294347192059 7.89304637334149906 0.010071403294347192059 5.00646669527710131
0.012679145539706837553 9.11815398328596594 0.012679145539706837553 5.67231372863360761
0.015962098519750611558 10.50490454445031752 0.015962098519750611558 6.41527902249683635
0.020095091452091651263 12.07201681722825803 0.020095091452091651263 7.24448203207658015
0.025298221281360611101 13.84042623986123743 0.025298221281360611101 8.17018359648715098
0.031848573644296607199 15.83355222572684440 0.031848573644296607199 9.20390220780559254
0.040094978690177640601 18.07759992207849820 0.040094978690177640601 10.35866436224653953
0.050476587558421215363 20.60193863352710864 0.050476587558421215363 11.64939206185367482
0.063546258777961384112 23.43957611374153416 0.063546258777961384112 13.09310309349413437
0.079999999999998294697 26.62762089318397685 0.079999999999998294697 14.70822073956065346
0.100714032943542974863 30.20742730417082811 0.100714032943542974863 16.51235448306458053
0.126791455396897845276 34.22402091723386519 0.126791455396897845276 18.51864442322122528
0.159620985197506115583 38.72454154504335833 0.159620985197506115583 20.73194109869322688
0.200950914520760193227 43.75588678628760420 0.200950914520760193227 23.14668667211331154
0.252982212813478213320 49.36215134419904160 0.252982212813478213320 25.74818107195839545
0.318485736442795541734 55.58281710917520968 0.318485736442795541734 28.51521593643438734
0.400949786901833249431 62.45135859654990185 0.400949786901833249431 31.42859834697873822
0.504765875584155310207 69.99728452654250077 0.504765875584155310207 34.47400215500842791
0.635462587779443310865 78.24596722638364099 0.635462587779443310865 37.64585651271705302
0.799999999999997157829 87.22233805350855107 0.799999999999997157829 40.95297041959568674
1.007140329435344483500 96.95311770756786984 1.007140329435344483500 44.42555385999922635
1.267914553968893187630 107.47344074745282683 1.267914553968893187630 48.07591264572991463
1.596209851975103788391 118.81087413473956360 1.596209851975103788391 51.97593948499476113
2.009509145207672986544 131.02666139948456703 2.009509145207672986544 56.15745538415001192
2.529822128134711078928 144.15422372763279668 2.529822128134711078928 60.69229846090671288
3.184857364427998049905 158.27509295256362520 3.184857364427998049905 65.68001571743644718
4.009497869018190385759 173.45161404809715577 4.009497869018190385759 71.14549053520357802
5.009497869018204596614 189.20002079513429294 5.009497869018204596614 76.91835966402076963
6.009497869018204596614 202.89200945501681872 6.009497869018204596614 81.98619814030242026
7.009497869018204596614 215.05982133832421255 7.009497869018204596614 86.49980908456640805
8.009497869018204596614 226.03748093905701921 8.009497869018204596614 90.54469543563105560
9.009497869018204596614 236.05081594267670653 9.009497869018204596614 94.19612243175379263
10.009497869018190385759 245.26147732304261240 10.009497869018190385759 97.50374491768795338
11.009497869018190385759 253.79030414945592042 11.009497869018190385759 100.48785833619794516
12.009497869018190385759 261.73079360470319443 12.009497869018190385759 103.21374344126813583
13.009497869018190385759 269.15687286898901220 13.009497869018190385759 105.71022406940105043
14.009497869018190385759 276.12913098759293007 14.009497869018190385759 107.99831684405134524
15.009497869018190385759 282.69642792637358752 15.009497869018190385759 110.10313395942561954
16.009497869018204596614 288.89931712533655173 16.009497869018204596614 112.04644662511677211
17.009497869018204596614 294.77337535027652393 17.009497869018204596614 113.84832293266751435
18.009497869018204596614 300.34942779895698095 18.009497869018204596614 115.53022879949801904
19.009497869018204596614 305.65365961744055312 19.009497869018204596614 117.09664392618751094
20.009497869018204596614 310.70974851954258611 20.009497869018204596614 118.55605419669392120
21.009497869018204596614 315.53703164667882675 21.009497869018204596614 119.91528812583796082
22.009497869018190385759 320.15202865814114830 22.009497869018190385759 121.18646558350148723
23.009497869018190385759 324.56989721655321546 23.009497869018190385759 122.37361655129916471
24.009497869018190385759 328.80463601516834160 24.009497869018190385759 123.49019748098822902
25.009497869018190385759 332.86940430974925675 25.009497869018190385759 124.54195933095243731
26.009497869018190385759 336.77577890477709843 26.009497869018190385759 125.53473399748143891
27.009497869018204596614 340.53432249016753985 27.009497869018204596614 126.47603862702727895
28.009497869018190385759 344.15418994572615929 28.009497869018190385759 127.36772418893330894
29.009497869018190385759 347.64358531417138920 29.009497869018190385759 128.20537612002715377
30.009497869018190385759 351.01012767573644169 30.009497869018190385759 129.00728203787343773
31.009497869018190385759 354.26079673128225522 31.009497869018190385759 129.76681080458223505
32.009497869018190385759 357.40202072747587181 32.009497869018190385759 130.48706004913219658
33.009497869018218807469 360.43977749396231047 33.009497869018218807469 131.16598957687708094
34.009497869018190385759 363.37976878894312449 34.009497869018190385759 131.81982691723274570
35.009497869018218807469 366.22708635000799404 35.009497869018218807469 132.44021671392152939
36.009497869018190385759 368.98643856789266238 36.009497869018190385759 133.03796839597995927
37.009497869018218807469 371.66218739855258946 37.009497869018218807469 133.61130618881063015
38.009497869018190385759 374.25848477097196110 38.009497869018190385759 134.16267786722033861
39.009497869018190385759 376.77913049267067436 39.009497869018190385759 134.69456616414748851
40.009497869018190385759 379.22768236311361534 40.009497869018190385759 135.20413499849382788
41.009497869018190385759 381.60755479666590873 41.009497869018190385759 135.69916449864160768
42.009497869018190385759 383.92187555418314560 42.009497869018190385759 136.16758736130597640
43.009497869018190385759 386.17359620884224114 43.009497869018190385759 136.62854404289191734
44.009497869018218807469 388.36555951804257347 44.009497869018218807469 137.05597271607467746
46.009497869018218807469 392.58077073085905795 46.009497869018218807469 137.87215246414001513
48.009497869018218807469 396.58565033822384294 48.009497869018218807469 138.62159512967332375
50.009497869018218807469 400.39463601508145985 50.009497869018218807469 139.26844182015864249
52.009497869018190385759 404.02212446059400008 52.009497869018190385759 139.84258818198759400
54.009497869018190385759 407.48181262351869236 54.009497869018190385759 140.35594153359497227
56.009497869018190385759 410.78455431208988102 56.009497869018190385759 140.81056411271586626
58.009497869018190385759 413.93970821568603924 58.009497869018190385759 141.20892828406991271
60.009497869018190385759 416.95658914140773277 60.009497869018190385759 141.62574310063038752
62.009497869018190385759 419.84302867621994437 62.009497869018190385759 142.02369965890596859
64.009497869018190385759 422.60723516534994815 64.009497869018190385759 142.40269289797404895
66.009497869018218807469 425.26027552697877354 66.009497869018218807469 142.80299776746150542
68.009497869018218807469 427.81173033767913694 68.009497869018218807469 143.20448296315569792
70.009497869018218807469 430.26729251718495561 70.009497869018218807469 143.53575778691126175
72.009497869018218807469 432.63291466358845128 72.009497869018218807469 143.76189738440288579
74.009497869018190385759 434.91411657781549138 74.009497869018190385759 143.96683992261358753
76.009497869018190385759 437.11534479919311025 76.009497869018190385759 144.14546784073010599
78.009497869018190385759 439.24230733399832616 78.009497869018190385759 144.36498967482458511
80.009497869018190385759 441.29853671019600370 80.009497869018190385759 144.47431974221547080
82.009497869018190385759 443.28397626147312849 82.009497869018190385759 144.62216768811293832
84.009497869018190385759 445.19952551463671853 84.009497869018190385759 144.73803992081411707
86.009497869018190385759 447.04676997151688056 86.009497869018190385759 144.70759506088251101
88.009497869018218807469 448.83034840209342065 88.009497869018218807469 144.72233666046909661
91.009497869018190385759 451.39055323904608485 91.009497869018190385759 144.66677357377164981
94.009497869018218807469 453.82162647840431191 94.009497869018218807469 144.71508338693871565
97.009497869018190385759 456.14108759669449000 97.009497869018190385759 144.93660125618075085
99.504748934509109403734 457.99781246550458036 99.504748934509109403734 145.04555374132033307
nan nan nan nan

