Time Pressure difference Time.1 Pressure.1 difference.1
(hr) (psi) (hr) (psi)
0.000200000000006639311 0.55666207939391599 0.000200000000006639311 0.43959282563120700
0.000399999999999067768 1.01037597878483254 0.000399999999999067768 0.86955253708694402
0.000600000000005707079 1.41393642438212574 0.000600000000005707079 1.16461324806247135
0.000799999999998135536 1.78352977053275641 0.000799999999998135536 1.42978710532132314
0.001007140329434719206 2.13947940745596599 0.001007140329434719206 1.68033185841470600
0.001267914553963578328 2.55734318156928264 0.001267914553963578328 1.96799948745408559
0.001596209851982166583 3.04576486439622141 0.001596209851982166583 2.29504711132878514
0.002009509145224797066 3.61423411967134856 0.002009509145224797066 2.66529185490936094
0.002529822128138903281 4.27315181975656078 0.002529822128138903281 3.08287598470677171
0.003184857364431081805 5.03391414735787546 0.003184857364431081805 3.55235876144652352
0.004009497869020606231 5.90902008163901016 0.004009497869020606231 4.07882660294629318
0.005047658755842121536 6.91220604888564161 0.005047658755842121536 4.66801747263994837
0.006354625877790454069 8.05861043358026485 0.006354625877790454069 5.32645483511437146
0.008000000000009777068 9.36496955345655024 0.008000000000009777068 6.06158710946528068
0.010071403294347192059 10.84984587683463175 0.010071403294347192059 6.88192992438560847
0.012679145539706837553 12.53388878266738615 0.012679145539706837553 7.79720868340387785
0.015962098519750611558 14.44012740671305295 0.015962098519750611558 8.81849483186477201
0.020095091452091651263 16.59429270957552305 0.020095091452091651263 9.95832404722752429
0.025298221281360611101 19.02516271529514924 0.025298221281360611101 11.23080096256932769
0.031848573644296607199 21.76492994038000717 0.031848573644296607199 12.65175899098041512
0.040094978690177640601 24.84961619382890774 0.040094978690177640601 14.23910446032949118
0.050476587558421215363 28.31959276113365931 0.050476587558421215363 16.01334927624713345
0.063546258777961384112 32.22023236951618941 0.063546258777961384112 17.99788622726387999
0.079999999999998294697 36.60254470740179755 0.079999999999998294697 20.21804010751519343
0.100714032943542974863 41.52337577704987126 0.100714032943542974863 22.69801705587403973
0.126791455396897845276 47.04461809469295019 0.126791455396897845276 25.45587955981977402
0.159620985197506115583 53.23107043103922820 0.159620985197506115583 28.49829520933222327
0.200950914520760193227 60.14719860748311220 0.200950914520760193227 31.81762415586735671
0.252982212813478213320 67.85361556248049908 0.252982212813478213320 35.39365956129704216
0.318485736442795541734 76.40459342436780332 0.318485736442795541734 39.19724823864099505
0.400949786901833249431 85.84614653475590274 0.400949786901833249431 43.20200744561184081
0.504765875584155310207 96.21883782096830373 0.504765875584155310207 47.38824434160250121
0.635462587779443310865 107.55754429081262913 0.635462587779443310865 51.74830119381325488
0.799999999999997157829 119.89653679142163867 0.799999999999997157829 56.29428692474203899
1.007140329435344483500 133.27254581432134728 1.007140329435344483500 61.06772842510866184
1.267914553968893187630 147.73386761052685756 1.267914553968893187630 66.08554136411463276
1.596209851975103788391 163.31839595010436028 1.596209851975103788391 71.44655004442068957
2.009509145207672986544 180.11031668863319055 2.009509145207672986544 77.19449588072031077
2.529822128134711078928 198.15557086071154913 2.529822128134711078928 83.42812813513350534
3.184857364427998049905 217.56623278902554830 3.184857364427998049905 90.28428492820025042
4.009497869018190385759 238.42800238272917568 4.009497869018190385759 97.79717115889268086
5.009497869018204596614 260.07589065412662421 5.009497869018204596614 105.73260411496274003
6.009497869018204596614 278.89700986214694467 6.009497869018204596614 112.69889618972605660
7.009497869018204596614 295.62298325032969615 7.009497869018204596614 118.90334258176291371
8.009497869018204596614 310.71296361058466573 8.009497869018204596614 124.46347632766213565
9.009497869018204596614 324.47737551994896421 9.009497869018204596614 129.48275763737942157
10.009497869018190385759 337.13842572462129965 10.009497869018190385759 134.02944246522307026
11.009497869018190385759 348.86222059415808872 11.009497869018190385759 138.13142909223446964
12.009497869018190385759 359.77728211806379477 12.009497869018190385759 141.87845297490932239
13.009497869018190385759 369.98523120078897364 13.009497869018190385759 145.31013559383185907
14.009497869018190385759 379.56935403780403249 14.009497869018190385759 148.45536657089817822
15.009497869018190385759 388.59681393641005798 15.009497869018190385759 151.34866533294086821
16.009497869018204596614 397.12335598576828488 16.009497869018204596614 154.01995876211191216
17.009497869018204596614 405.19788429810733987 17.009497869018204596614 156.49683262061037681
18.009497869018204596614 412.86277144151296170 18.009497869018204596614 158.80879413347923901
19.009497869018204596614 420.15401173118402767 19.009497869018204596614 160.96200113364648132
20.009497869018204596614 427.10415274551542097 20.009497869018204596614 162.96811838636452308
21.009497869018204596614 433.73977547670432386 21.009497869018204596614 164.83653242376155390
22.009497869018190385759 440.08358798305613391 22.009497869018190385759 166.58390331775990489
23.009497869018190385759 446.15642611115549698 23.009497869018190385759 168.21577071393318192
24.009497869018190385759 451.97753257884426148 24.009497869018190385759 169.75063196054338732
25.009497869018190385759 457.56499620634809844 25.009497869018190385759 171.19639237185782576
26.009497869018190385759 462.93473056346323347 26.009497869018190385759 172.56106852004893426
27.009497869018204596614 468.10125520983848446 27.009497869018204596614 173.85499353589801785
28.009497869018190385759 473.07715451787123584 28.009497869018190385759 175.08071177695066467
29.009497869018190385759 477.87370583154910264 29.009497869018190385759 176.23215494868932751
30.009497869018190385759 482.50138240065962236 30.009497869018190385759 177.33446135927115961
31.009497869018190385759 486.96977857889424968 31.009497869018190385759 178.37851579250565237
32.009497869018190385759 491.28773068651469202 32.009497869018190385759 179.36857627443407637
33.009497869018218807469 495.46345589687297206 33.009497869018218807469 180.30183833686706407
34.009497869018190385759 499.50479189326506457 34.009497869018190385759 181.20060847400173998
35.009497869018218807469 503.41873781968183721 35.009497869018218807469 182.05340134499874694
36.009497869018190385759 507.21176586840419986 36.009497869018190385759 182.87507567911350748
37.009497869018218807469 510.88987201964050655 37.009497869018218807469 183.66319048211116183
38.009497869018190385759 514.45876354881249881 38.009497869018190385759 184.42111048519160477
39.009497869018190385759 517.92366370230740813 39.009497869018190385759 185.15224847328738633
40.009497869018190385759 521.28946306026750790 40.009497869018190385759 185.85270594620544671
41.009497869018190385759 524.56085510450793663 41.009497869018190385759 186.53317753183182504
42.009497869018190385759 527.74213928059350565 42.009497869018190385759 187.17707541671683202
43.009497869018190385759 530.83737284506992182 43.009497869018190385759 187.81071022823860517
44.009497869018218807469 533.85046347542834155 44.009497869018218807469 188.39825716614024032
46.009497869018218807469 539.64472716451939505 46.009497869018218807469 189.52018450007960837
48.009497869018218807469 545.14986731445503665 48.009497869018218807469 190.55037449643182867
50.009497869018218807469 550.38573007088780287 50.009497869018218807469 191.43953522927762378
52.009497869018190385759 555.37210525382590731 52.009497869018190385759 192.22876149781052391
54.009497869018190385759 560.12782080066756407 54.009497869018190385759 192.93442119900123544
56.009497869018190385759 564.66779644467521848 56.009497869018190385759 193.55934910164862117
58.009497869018190385759 569.00489671654645463 58.009497869018190385759 194.10694373844719962
60.009497869018190385759 573.15192582604163363 60.009497869018190385759 194.67990078252799435
62.009497869018190385759 577.11964913643396358 62.009497869018190385759 195.22693511106663777
64.009497869018190385759 580.91934990597485466 64.009497869018190385759 195.74790230646274836
66.009497869018218807469 584.56624081059624132 66.009497869018218807469 196.29816464273315546
68.009497869018218807469 588.07349138894130647 68.009497869018218807469 196.85004946502755274
70.009497869018218807469 591.44892717487641676 70.009497869018218807469 197.30542253780751594
72.009497869018218807469 594.70073065825567937 72.009497869018218807469 197.61627587166350395
74.009497869018190385759 597.83648940242039771 74.009497869018190385759 197.89799155506599959
76.009497869018190385759 600.86231565657112696 76.009497869018190385759 198.14353494721049742
78.009497869018190385759 603.78605569265914710 78.009497869018190385759 198.44529144956297273
80.009497869018190385759 606.61256535241670917 80.009497869018190385759 198.59557745128992678
82.009497869018190385759 609.34176674186824130 82.009497869018190385759 198.79881044275086310
84.009497869018190385759 611.97489635789406748 84.009497869018190385759 198.95808935823509955
86.009497869018190385759 614.51413364423240182 86.009497869018190385759 198.91623960563316587
88.009497869018218807469 616.96585509190583707 88.009497869018218807469 198.93650352857585517
91.009497869018190385759 620.48513352765428408 91.009497869018190385759 198.86012605673622033
94.009497869018218807469 623.82690661686615385 94.009497869018218807469 198.92653311966338947
97.009497869018190385759 627.01525677476661258 97.009497869018190385759 199.23103338819831265
99.504748934509109403734 629.56752591261363250 99.504748934509109403734 199.38080036228515723
nan nan nan nan

