Time Pressure difference Time.1 Pressure.1 difference.1
(hr) (psi) (hr) (psi)
0.000200000000006639311 0.45510457346116057 0.000200000000006639311 0.35939345037351816
0.000399999999999067768 0.82604284696547892 0.000399999999999067768 0.71091125323983906
0.000600000000005707079 1.15597766964878468 0.000600000000005707079 0.95214104773180375
0.000799999999998135536 1.45814235515619894 0.000799999999998135536 1.16893655018858444
0.001007140329434719206 1.74915249161451269 0.001007140329434719206 1.37377188424554642
0.001267914553963578328 2.09078114160225281 0.001267914553963578328 1.60895739168139063
0.001596209851982166583 2.49009510578345594 0.001596209851982166583 1.87633840230643001
0.002009509145224797066 2.95485275234248235 0.002009509145224797066 2.17903564420753959
0.002529822128138903281 3.49355741706437195 0.002529822128138903281 2.52043566822663090
0.003184857364431081805 4.11552616152291506 0.003184857364431081805 2.90426594293860552
0.004009497869020606231 4.83097764941296504 0.004009497869020606231 3.33468491939850864
0.005047658755842121536 5.65114223152908224 0.005047658755842121536 3.81638372620620636
0.006354625877790454069 6.58839644341738939 0.006354625877790454069 4.35469568617674341
0.008000000000009777068 7.65642322671419073 0.008000000000009777068 4.95571032780684906
0.010071403294347192059 8.87039851047939720 0.010071403294347192059 5.62638968732552058
0.012679145539706837553 10.24720439814426065 0.012679145539706837553 6.37468486431080983
0.015962098519750611558 11.80566858678820807 0.015962098519750611558 7.20964742810381143
0.020095091452091651263 13.56682767704178794 0.020095091452091651263 8.14152604545283332
0.025298221281360611101 15.55420942630173720 0.025298221281360611101 9.18185209824653015
0.031848573644296607199 17.79413314395947765 0.031848573644296607199 10.34357034952446774
0.040094978690177640601 20.31604881525122508 0.040094978690177640601 11.64132029424885317
0.050476587558421215363 23.15296238281965202 0.050476587558421215363 13.09187164318038477
0.063546258777961384112 26.34196876732395154 0.063546258777961384112 14.71434940130923863
0.079999999999998294697 29.92477144265346567 0.079999999999998294697 16.52945810386361813
0.100714032943542974863 33.94784541863712235 0.100714032943542974863 18.55698771842837758
0.126791455396897845276 38.46179153237724790 0.126791455396897845276 20.81170540979564265
0.159620985197506115583 43.51958665798760251 0.159620985197506115583 23.29906233191699272
0.200950914520760193227 49.17393546358653822 0.200950914520760193227 26.01281245126213904
0.252982212813478213320 55.47439265484437954 0.252982212813478213320 28.93643546801593658
0.318485736442795541734 62.46532894557777382 0.318485736442795541734 32.04609690661983734
0.400949786901833249431 70.18436381461799556 0.400949786901833249431 35.32022729589930776
0.504765875584155310207 78.66465988327739467 0.504765875584155310207 38.74272655978220570
0.635462587779443310865 87.93473119328693599 0.635462587779443310865 42.30733404328859848
0.799999999999997157829 98.02259621373923437 0.799999999999997157829 46.02394951543904256
1.007140329435344483500 108.95828432026044652 1.007140329435344483500 49.92652369532829226
1.267914553968893187630 120.78128058922206378 1.267914553968893187630 54.02888615515415438
1.596209851975103788391 133.52256544609446109 1.596209851975103788391 58.41183167827780665
2.009509145207672986544 147.25096586744581373 2.009509145207672986544 63.11112148971090363
2.529822128134711078928 162.00404139923625735 2.529822128134711078928 68.20748902268042002
3.184857364427998049905 177.87341950938576929 3.184857364427998049905 73.81280763229143815
4.009497869018190385759 194.92916500389603129 4.009497869018190385759 79.95504187106735117
5.009497869018204596614 212.62760957697693698 5.009497869018204596614 86.44273335282585435
6.009497869018204596614 228.01500122139034943 6.009497869018204596614 92.13809414827089483
7.009497869018204596614 241.68948573601639396 7.009497869018204596614 97.21060049158951699
8.009497869018204596614 254.02644801458291113 8.009497869018204596614 101.75634267609321171
9.009497869018204596614 265.27967873181688674 9.009497869018204596614 105.85990561687691525
10.009497869018190385759 275.63084520473597649 10.009497869018190385759 109.57709264260542170
11.009497869018190385759 285.21574933410641961 11.009497869018190385759 112.93071226810961605
12.009497869018190385759 294.13946554008180101 12.009497869018190385759 115.99412860092358812
13.009497869018190385759 302.48507499539988430 13.009497869018190385759 118.79973457329241171
14.009497869018190385759 310.32066915063342094 14.009497869018190385759 121.37114918054045631
15.009497869018190385759 317.70115803010946820 15.009497869018190385759 123.73659412054573181
16.009497869018204596614 324.67211658129514262 16.009497869018204596614 125.92053641098547700
17.009497869018204596614 331.27352684349256151 17.009497869018204596614 127.94552906382854474
18.009497869018204596614 337.54003092766799909 18.009497869018204596614 129.83569600194371674
19.009497869018204596614 343.50105634123030995 19.009497869018204596614 131.59607162237688271
20.009497869018204596614 349.18321267791856144 20.009497869018204596614 133.23619256901181984
21.009497869018204596614 354.60823149007632082 21.009497869018204596614 134.76373289377087872
22.009497869018190385759 359.79467797474484314 22.009497869018190385759 136.19231320277518194
23.009497869018190385759 364.75958668380667405 23.009497869018190385759 137.52646248790205163
24.009497869018190385759 369.51868969102775964 24.009497869018190385759 138.78130343866544649
25.009497869018190385759 374.08677568979658190 25.009497869018190385759 139.96329912271613694
26.009497869018190385759 378.47685497605829141 26.009497869018190385759 141.07900356770250028
27.009497869018204596614 382.70079815901272013 27.009497869018204596614 142.13686472661220250
28.009497869018190385759 386.76889371643522963 28.009497869018190385759 143.13896276405202457
29.009497869018190385759 390.69036155213308348 29.009497869018190385759 144.08033648598657805
30.009497869018190385759 394.47376417476959887 30.009497869018190385759 144.98153796419319406
31.009497869018190385759 398.12694554283598336 31.009497869018190385759 145.83511496377028038
32.009497869018190385759 401.65712987711629012 32.009497869018190385759 146.64454867590563936
33.009497869018218807469 405.07103520873198477 33.009497869018218807469 147.40754627996997783
34.009497869018190385759 408.37506931296587709 34.009497869018190385759 148.14234467030701126
35.009497869018218807469 411.57495440902152950 35.009497869018218807469 148.83955389323159579
36.009497869018190385759 414.67598190153455562 36.009497869018190385759 149.51132184940067305
37.009497869018218807469 417.68305386326363760 37.009497869018218807469 150.15565287990159504
38.009497869018190385759 420.60083633352178367 38.009497869018190385759 150.77529785391379846
39.009497869018190385759 423.43359962891042869 39.009497869018190385759 151.37304692741969347
40.009497869018190385759 426.18534209146156400 40.009497869018190385759 151.94571284313491333
41.009497869018190385759 428.85990092352579950 41.009497869018190385759 152.50203909957059523
42.009497869018190385759 431.46079117923090962 42.009497869018190385759 153.02846416623259529
43.009497869018190385759 433.99132990868321258 43.009497869018190385759 153.54649855604000663
44.009497869018218807469 436.45471187215753162 44.009497869018218807469 154.02685335019674540
46.009497869018218807469 441.19186930098112498 46.009497869018218807469 154.94409610781880815
48.009497869018218807469 445.69265092869358114 48.009497869018218807469 155.78633810027551476
50.009497869018218807469 449.97328216741914275 50.009497869018218807469 156.51328022735697232
52.009497869018190385759 454.04994237969572168 52.009497869018190385759 157.15851994746881815
54.009497869018190385759 457.93802453144655829 54.009497869018190385759 157.73543899621881792
56.009497869018190385759 461.64972639775618291 56.009497869018190385759 158.24635496679823632
58.009497869018190385759 465.19556550258135985 58.009497869018190385759 158.69404636313188917
60.009497869018190385759 468.58601005390175942 60.009497869018190385759 159.16247304569279208
62.009497869018190385759 471.82986138064217130 62.009497869018190385759 159.60970635648206439
64.009497869018190385759 474.93634422187449218 64.009497869018190385759 160.03562822546609823
66.009497869018218807469 477.91789585085228964 66.009497869018218807469 160.48550062581489328
68.009497869018218807469 480.78528315378673597 68.009497869018218807469 160.93669950561545079
70.009497869018218807469 483.54490397307461080 70.009497869018218807469 161.30899425268867731
72.009497869018218807469 486.20344798400151376 72.009497869018218807469 161.56313546178191132
74.009497869018190385759 488.76711847381460530 74.009497869018190385759 161.79345489735726460
76.009497869018190385759 491.24091257213399331 76.009497869018190385759 161.99420131944120271
78.009497869018190385759 493.63124507598240598 78.009497869018190385759 162.24090532421510602
80.009497869018190385759 495.94208592666223012 80.009497869018190385759 162.36377312722336796
82.009497869018190385759 498.17337144118533843 82.009497869018190385759 162.52992826391377434
84.009497869018190385759 500.32611252977187632 84.009497869018190385759 162.66014831226289061
86.009497869018190385759 502.40209101814662063 86.009497869018190385759 162.62593363425196458
88.009497869018218807469 504.40652006943719243 88.009497869018218807469 162.64250060432027567
91.009497869018190385759 507.28374086582454083 91.009497869018190385759 162.58005744889382527
94.009497869018218807469 510.01584041538535530 94.009497869018218807469 162.63434919817407831
97.009497869018190385759 512.62250753421619720 97.009497869018190385759 162.88329639605265697
99.504748934509109403734 514.70914034132715642 99.504748934509109403734 163.00573986289447248
nan nan nan nan

