Time Pressure difference Time.1 Pressure.1 difference.1
(hr) (psi) (hr) (psi)
0.000200000000006639311 0.14281524271793741 0.000200000000006639311 0.11278037145612493
0.000399999999999067768 0.25921846662096620 0.000399999999999067768 0.22308930540999133
0.000600000000005707079 0.36275449884376088 0.000600000000005707079 0.29878903171500115
0.000799999999998135536 0.45757605287328418 0.000799999999998135536 0.36682109315541356
0.001007140329434719206 0.54889722540204378 0.001007140329434719206 0.43109996367538067
0.001267914553963578328 0.65610286870363588 0.001267914553963578328 0.50490294718035267
0.001596209851982166583 0.78141059804920165 0.001596209851982166583 0.58880912206268721
0.002009509145224797066 0.92725504780621815 0.002009509145224797066 0.68379779629943704
0.002529822128138903281 1.09630462878589086 0.002529822128138903281 0.79093169505019800
0.003184857364431081805 1.29148310508041275 0.003184857364431081805 0.91138052602675912
0.004009497869020606231 1.51599717031787584 0.004009497869020606231 1.04644924248907190
0.005047658755842121536 1.77337099315766178 0.005047658755842121536 1.19760995592244979
0.006354625877790454069 2.06748842366654451 0.006354625877790454069 1.36653630319353891
0.008000000000009777068 2.40264327198144123 0.008000000000009777068 1.55513922420717021
0.010071403294347192059 2.78359785893704936 0.010071403294347192059 1.76560345836574895
0.012679145539706837553 3.21564991573564640 0.012679145539706837553 2.00042412059962649
0.015962098519750611558 3.70470771551931222 0.015962098519750611558 2.26244166153885296
0.020095091452091651263 4.25737270200056095 0.020095091452091651263 2.55487218999565924
0.025298221281360611101 4.88102806264698863 0.025298221281360611101 2.88133434045393200
0.031848573644296607199 5.58393299496636342 0.031848573644296607199 3.24589027704742694
0.040094978690177640601 6.37532912612486147 0.040094978690177640601 3.65313398355089580
0.050476587558421215363 7.26557396950407508 0.050476587558421215363 4.10832792150011983
0.063546258777961384112 8.26630819058282995 0.063546258777961384112 4.61747366149871485
0.079999999999998294697 9.39061865355234282 0.079999999999998294697 5.18706844263502731
0.100714032943542974863 10.65308956651792549 0.100714032943542974863 5.82332250578296318
0.126791455396897845276 12.06959985325645945 0.126791455396897845276 6.53086989847143595
0.159620985197506115583 13.65677405585384818 0.159620985197506115583 7.31142123386516563
0.200950914520760193227 15.43115129610456293 0.200950914520760193227 8.16301645960108857
0.252982212813478213320 17.40828221386329844 0.252982212813478213320 9.08047138117654917
0.318485736442795541734 19.60209067329846633 0.318485736442795541734 10.05630656065475925
0.400949786901833249431 22.02438195019393063 0.400949786901833249431 11.08375333553325603
0.504765875584155310207 24.68556272487784042 0.504765875584155310207 12.15775938068479078
0.635462587779443310865 27.59458091839548644 0.635462587779443310865 13.27636005542529318
0.799999999999997157829 30.76022893736586639 0.799999999999997157829 14.44266198183233385
1.007140329435344483500 34.19193022602315324 1.007140329435344483500 15.66731915125364694
1.267914553968893187630 37.90207549870985559 1.267914553968893187630 16.95467138760067627
1.596209851975103788391 41.90038664626394649 1.596209851975103788391 18.33007270238843489
2.009509145207672986544 46.20846209229470958 2.009509145207672986544 19.80474523735697900
2.529822128134711078928 50.83808830519965483 2.529822128134711078928 21.40402375188715922
3.184857364427998049905 55.81801867449344456 3.184857364427998049905 23.16301494737178857
4.009497869018190385759 61.17024006398410307 4.009497869018190385759 25.09049431100439520
5.009497869018204596614 66.72414526474170771 5.009497869018204596614 27.12638075925497816
6.009497869018204596614 71.55282465106391498 6.009497869018204596614 28.91362787079630792
7.009497869018204596614 75.84398087950305012 7.009497869018204596614 30.50541856430633558
8.009497869018204596614 79.71541255687748162 8.009497869018204596614 31.93190669751879440
9.009497869018204596614 83.24676110831073572 9.009497869018204596614 33.21963565383166639
10.009497869018190385759 86.49503510608870727 10.009497869018190385759 34.38611693805609093
11.009497869018190385759 89.50285020944762948 11.009497869018190385759 35.43850803392560778
12.009497869018190385759 92.30317956278717872 12.009497869018190385759 36.39983115091744281
13.009497869018190385759 94.92209466382841754 13.009497869018190385759 37.28025143513360007
14.009497869018190385759 97.38096312258370801 14.009497869018190385759 38.08718070519051935
15.009497869018190385759 99.69701611823519727 15.009497869018190385759 38.82947514243066678
16.009497869018204596614 101.88455541254032255 16.009497869018204596614 39.51481268127158586
17.009497869018204596614 103.95612767055206405 17.009497869018204596614 40.15027062672443492
18.009497869018204596614 105.92260384759455860 18.009497869018204596614 40.74341924747186994
19.009497869018204596614 107.79321851712246882 19.009497869018204596614 41.29583837522287126
20.009497869018204596614 109.57632197005811747 20.009497869018204596614 41.81052068065224603
21.009497869018204596614 111.27873373119551559 21.009497869018204596614 42.28987433904943316
22.009497869018190385759 112.90627969918770646 22.009497869018190385759 42.73817359919723913
23.009497869018190385759 114.46430544470921120 23.009497869018190385759 43.15683969285628763
24.009497869018190385759 115.95774781099197526 24.009497869018190385759 43.55061823389083742
25.009497869018190385759 117.39124760140060744 25.009497869018190385759 43.92153738160548215
26.009497869018190385759 118.76888754478817134 26.009497869018190385759 44.27165383923718878
27.009497869018204596614 120.09439272772365825 27.009497869018204596614 44.60361863805821514
28.009497869018190385759 121.37099175201942103 28.009497869018190385759 44.91808454938870199
29.009497869018190385759 122.60157789292877339 29.009497869018190385759 45.21349471317571300
30.009497869018190385759 123.78883813015781357 30.009497869018190385759 45.49629852432840948
31.009497869018190385759 124.93523395695689260 31.009497869018190385759 45.76415741540908755
32.009497869018190385759 126.04303238821640321 32.009497869018190385759 46.01816381043064297
33.009497869018218807469 127.11434159269830957 33.009497869018218807469 46.25759820501149733
34.009497869018190385759 128.15117237854576615 34.009497869018190385759 46.48818347394571049
35.009497869018218807469 129.15532042124104350 35.009497869018218807469 46.70697297904756340
36.009497869018190385759 130.12844620341041946 36.009497869018190385759 46.91777882303367875
37.009497869018218807469 131.07208803240493467 37.009497869018218807469 47.11997475310720063
38.009497869018190385759 131.98771014650264988 38.009497869018190385759 47.31442401273444887
39.009497869018190385759 132.87665260321458049 39.009497869018190385759 47.50200217387646973
40.009497869018190385759 133.74017011238333907 40.009497869018190385759 47.68170905119296066
41.009497869018190385759 134.57946681700599356 41.009497869018190385759 47.85628842036734198
42.009497869018190385759 135.39564576754105474 42.009497869018190385759 48.02148457099348633
43.009497869018190385759 136.18974787929388981 43.009497869018190385759 48.18404766402928630
44.009497869018218807469 136.96277569209965463 44.009497869018218807469 48.33478661617053262
46.009497869018218807469 138.44933137060075978 46.009497869018218807469 48.62262430161677429
48.009497869018218807469 139.86171054247705570 48.009497869018218807469 48.88692618209482532
50.009497869018218807469 141.20500486425285658 50.009497869018218807469 49.11504609645093211
52.009497869018190385759 142.48429154174550604 52.009497869018190385759 49.31752718016803527
54.009497869018190385759 143.70440100359203939 54.009497869018190385759 49.49856872266280305
56.009497869018190385759 144.86916100347997372 56.009497869018190385759 49.65889800213334127
58.009497869018190385759 145.98187201963850157 58.009497869018190385759 49.79938693403719441
60.009497869018190385759 147.04581905457166613 60.009497869018190385759 49.94638275492451385
62.009497869018190385759 148.06376403158225230 62.009497869018190385759 50.08672793613453678
64.009497869018190385759 149.03860174326604238 64.009497869018190385759 50.22038542640149927
66.009497869018218807469 149.97423509963982724 66.009497869018218807469 50.36155877379128043
68.009497869018218807469 150.87404283068622135 68.009497869018218807469 50.50314838042325505
70.009497869018218807469 151.74003262753387844 70.009497869018218807469 50.61997727594832952
72.009497869018218807469 152.57430376066992039 72.009497869018218807469 50.69972870139599763
74.009497869018190385759 153.37880286835186894 74.009497869018190385759 50.77200467490290947
76.009497869018190385759 154.15509808748976184 76.009497869018190385759 50.83500041405058312
78.009497869018190385759 154.90520242970160325 78.009497869018190385759 50.91241798877042868
80.009497869018190385759 155.63036169246723261 80.009497869018190385759 50.95097483071862854
82.009497869018190385759 156.33055589158536236 82.009497869018190385759 51.00311556398968094
84.009497869018190385759 157.00610225829663591 84.009497869018190385759 51.04397959589839928
86.009497869018190385759 157.65755994293303388 86.009497869018190385759 51.03324277225479477
88.009497869018218807469 158.28656487534641428 88.009497869018218807469 51.03844161223440068
91.009497869018190385759 159.18945843069806756 91.009497869018190385759 51.01884647977839649
94.009497869018218807469 160.04681184583225217 94.009497869018218807469 51.03588363959437402
97.009497869018190385759 160.86480361952393991 97.009497869018190385759 51.11400514520480698
99.504748934509109403734 161.51960470962151817 99.504748934509109403734 51.15242882726813889
nan nan nan nan

