Time Pressure difference Time.1 Pressure.1 difference.1
(hr) (psi) (hr) (psi)
0.000200000000006639311 0.27610946925467900 0.000200000000006639311 0.21804205148184155
0.000399999999999067768 0.50115570213386795 0.000399999999999067768 0.43130599045931661
0.000600000000005707079 0.70132536443127103 0.000600000000005707079 0.57765879464900227
0.000799999999998135536 0.88464703555501611 0.000799999999998135536 0.70918744676713286
0.001007140329434719206 1.06120130244395128 0.001007140329434719206 0.83345992977240269
0.001267914553963578328 1.26846554616036267 0.001267914553963578328 0.97614569788201511
0.001596209851982166583 1.51072715622845677 0.001596209851982166583 1.13836430265452870
0.002009509145224797066 1.79269309242535524 0.002009509145224797066 1.32200907284557823
0.002529822128138903281 2.11952228231938911 0.002529822128138903281 1.52913461043038290
0.003184857364431081805 2.49686733648879766 0.003184857364431081805 1.76200235031840102
0.004009497869020606231 2.93092786261456029 0.004009497869020606231 2.02313520214553888
0.005047658755842121536 3.42851725343814584 0.005047658755842121536 2.31537924811673612
0.006354625877790454069 3.99714428575531988 0.006354625877790454069 2.64197018617417534
0.008000000000009777068 4.64511032583078531 0.008000000000009777068 3.00660250013386277
0.010071403294347192059 5.38162252727829493 0.010071403294347192059 3.41350001950711457
0.012679145539706837553 6.21692317042224918 0.012679145539706837553 3.86748663315927788
0.015962098519750611558 7.16243491667067023 0.015962098519750611558 4.37405387897511577
0.020095091452091651263 8.23092055720108462 0.020095091452091651263 4.93941956732494081
0.025298221281360611101 9.43665425445084338 0.025298221281360611101 5.57057972487760189
0.031848573644296607199 10.79560379026830397 0.031848573644296607199 6.27538786895835887
0.040094978690177640601 12.32563631050806663 0.040094978690177640601 7.06272570153173174
0.050476587558421215363 14.04677634104121076 0.050476587558421215363 7.94276731490023202
0.063546258777961384112 15.98152916846013838 0.063546258777961384112 8.92711574556418341
0.079999999999998294697 18.15519606353452886 0.079999999999998294697 10.02833232242771899
0.100714032943542974863 20.59597316193465488 0.100714032943542974863 11.25842351118039630
0.126791455396897845276 23.33455971629581782 0.126791455396897845276 12.62634847037810992
0.159620985197506115583 26.40309650798410956 0.159620985197506115583 14.13541438547265372
0.200950914520760193227 29.83355917246882072 0.200950914520760193227 15.78183182189543921
0.252982212813478213320 33.65601228013571244 0.252982212813478213320 17.55557800360799448
0.318485736442795541734 37.89737530171036894 0.318485736442795541734 19.44219268393253941
0.400949786901833249431 42.58047177037493469 0.400949786901833249431 21.42858978203096143
0.504765875584155310207 47.72542126809715768 0.504765875584155310207 23.50500146932392909
0.635462587779443310865 53.34952310889794092 0.635462587779443310865 25.66762944048889850
0.799999999999997157829 59.46977594557401403 0.799999999999997157829 27.92247983154251401
1.007140329435344483500 66.10439843697808726 1.007140329435344483500 30.29015035909038289
1.267914553968893187630 73.27734596417238322 1.267914553968893187630 32.77903134936131124
1.596209851975103788391 81.00741418277696937 1.596209851975103788391 35.43814055795097318
2.009509145207672986544 89.33636004510312034 2.009509145207672986544 38.28917412555682631
2.529822128134711078928 98.28697072338600549 2.529822128134711078928 41.38111258698184969
3.184857364427998049905 107.91483610402065096 3.184857364427998049905 44.78182889825212243
4.009497869018190385759 118.26246412370259975 4.009497869018190385759 48.50828900127516619
5.009497869018204596614 129.00001417850066332 5.009497869018204596614 52.44433613455962728
6.009497869018204596614 138.33546099205690894 6.009497869018204596614 55.89968055020619886
7.009497869018204596614 146.63169636703923970 7.009497869018204596614 58.97714255765891522
8.009497869018204596614 154.11646427662981296 8.009497869018204596614 61.73501961520298664
9.009497869018204596614 160.94373814273410517 9.009497869018204596614 64.22462893074123258
10.009497869018190385759 167.22373453843815128 10.009497869018190385759 66.47982608024179285
11.009497869018190385759 173.03884373826539900 11.009497869018190385759 68.51444886558951453
12.009497869018190385759 178.45281382138855975 12.009497869018190385759 70.37300689177372703
13.009497869018190385759 183.51604968340160440 13.009497869018190385759 72.07515277459162917
14.009497869018190385759 188.26986203699516409 14.009497869018190385759 73.63521603003501070
15.009497869018190385759 192.74756449525469293 15.009497869018190385759 75.07031860869928153
16.009497869018204596614 196.97680713091128268 16.009497869018204596614 76.39530451712506931
17.009497869018204596614 200.98184682973399617 17.009497869018204596614 77.62385654500057797
18.009497869018204596614 204.78370077201614663 18.009497869018204596614 78.77061054511229088
19.009497869018204596614 208.40022246643675885 19.009497869018204596614 79.83862085876421588
20.009497869018204596614 211.84755580877902048 20.009497869018204596614 80.83367331592766902
21.009497869018204596614 215.13888521364464168 21.009497869018204596614 81.76042372216224408
22.009497869018190385759 218.28547408509624006 22.009497869018190385759 82.62713562511466137
23.009497869018190385759 221.29765719310447025 23.009497869018190385759 83.43655673952216034
24.009497869018190385759 224.18497910125114458 24.009497869018190385759 84.19786191885562232
25.009497869018190385759 226.95641202937449066 25.009497869018190385759 84.91497227110393453
26.009497869018190385759 229.61984925325714357 26.009497869018190385759 85.59186408919190114
27.009497869018204596614 232.18249260693241354 27.009497869018204596614 86.23366270024587266
28.009497869018190385759 234.65058405390422536 28.009497869018190385759 86.84163012881816712
29.009497869018190385759 237.02971725966230565 29.009497869018190385759 87.41275644547303614
30.009497869018190385759 239.32508705163846230 30.009497869018190385759 87.95951048036826592
31.009497869018190385759 241.54145231678330674 31.009497869018190385759 88.47737100312423308
32.009497869018190385759 243.68319595055169202 32.009497869018190385759 88.96845003349922365
33.009497869018218807469 245.75439374588339092 33.009497869018218807469 89.43135652968889815
34.009497869018190385759 247.75893326518848880 34.009497869018190385759 89.87715471629505259
35.009497869018218807469 249.70028614773272579 35.009497869018218807469 90.30014775949196348
36.009497869018190385759 251.58166265992682042 36.009497869018190385759 90.70770572453179170
37.009497869018218807469 253.40603686264950056 37.009497869018218807469 91.09861785600725170
38.009497869018190385759 255.17623961657179166 38.009497869018190385759 91.47455309128660872
39.009497869018190385759 256.89486169954813022 39.009497869018190385759 91.83720420282783437
40.009497869018190385759 258.56432888394112979 40.009497869018190385759 92.18463749897307480
41.009497869018190385759 260.18696917954497394 41.009497869018190385759 92.52215761271018835
42.009497869018190385759 261.76491515057938386 42.009497869018190385759 92.84153683725408257
43.009497869018190385759 263.30017923330149188 43.009497869018190385759 93.15582548378995398
44.009497869018218807469 264.79469967139266373 44.009497869018218807469 93.44725412459635550
46.009497869018218807469 267.66870731649481741 46.009497869018218807469 94.00374031645910122
48.009497869018218807469 270.39930704878895540 48.009497869018218807469 94.51472395205000510
50.009497869018218807469 272.99634273755555114 50.009497869018218807469 94.95575578647179782
52.009497869018190385759 275.46963031404135336 52.009497869018190385759 95.34721921499154007
54.009497869018190385759 277.82850860694458106 54.009497869018190385759 95.69723286381474736
56.009497869018190385759 280.08037794006128252 56.009497869018190385759 96.00720280412446073
58.009497869018190385759 282.23161923796777728 58.009497869018190385759 96.27881473913858201
60.009497869018190385759 284.28858350550530076 60.009497869018190385759 96.56300665952073814
62.009497869018190385759 286.25661046105909691 62.009497869018190385759 96.83434067652677868
64.009497869018190385759 288.14129670364769709 64.009497869018190385759 97.09274515770955816
66.009497869018218807469 289.95018785930369631 66.009497869018218807469 97.36568029599648355
68.009497869018218807469 291.68981613932669461 68.009497869018218807469 97.63942020215162643
70.009497869018218807469 293.36406307989881270 70.009497869018218807469 97.86528940016678746
72.009497869018218807469 294.97698727062851276 72.009497869018218807469 98.01947548936560395
74.009497869018190385759 296.53235221214691819 74.009497869018190385759 98.15920903814561882
76.009497869018190385759 298.03318963581352818 76.009497869018190385759 98.28100080049779308
78.009497869018190385759 299.48339136408981176 78.009497869018190385759 98.43067477828950018
80.009497869018190385759 300.88536593877000769 80.009497869018190385759 98.50521800605601186
82.009497869018190385759 302.23907472373167593 82.009497869018190385759 98.60602342371338125
84.009497869018190385759 303.54513103270687679 84.009497869018190385759 98.68502721873690575
86.009497869018190385759 304.80461588967057196 86.009497869018190385759 98.66426935969261081
88.009497869018218807469 306.02069209233638958 88.009497869018218807469 98.67432045031983989
91.009497869018190385759 307.76628629934958781 91.009497869018190385759 98.63643652757157554
94.009497869018218807469 309.42383623527564396 94.009497869018218807469 98.66937503654912689
97.009497869018190385759 311.00528699774622510 97.009497869018190385759 98.82040994739597295
99.504748934509109403734 312.27123577193498249 99.504748934509109403734 98.89469573271840375
nan nan nan nan

