Time Pressure difference Time.1 Pressure.1 difference.1
(hr) (psi) (hr) (psi)
0.000200000000006639311 0.26151057777684539 0.000200000000006639311 0.20651339128854879
0.000399999999999067768 0.47465781443483585 0.000399999999999067768 0.40850130590629524
0.000600000000005707079 0.66424379343835327 0.000600000000005707079 0.54711591585146890
0.000799999999998135536 0.83787259459463592 0.000799999999998135536 0.67169017946680176
0.001007140329434719206 1.00509180829174216 0.001007140329434719206 0.78939193348558601
0.001267914553963578328 1.20139725291510202 0.001267914553963578328 0.92453339661469036
0.001596209851982166583 1.43084962842787156 0.001596209851982166583 1.07817492573256501
0.002009509145224797066 1.69790702087183076 0.002009509145224797066 1.25210974255719143
0.002529822128138903281 2.00745558693238646 0.002529822128138903281 1.44828381493636260
0.003184857364431081805 2.36484906352502211 0.003184857364431081805 1.66883900765788784
0.004009497869020606231 2.77595926298206619 0.004009497869020606231 1.91616483513554470
0.005047658755842121536 3.24723932969314077 0.005047658755842121536 2.19295689706688579
0.006354625877790454069 3.78580102466940671 0.006354625877790454069 2.50227980851439114
0.008000000000009777068 4.39950679136157152 0.008000000000009777068 2.84763271277046304
0.010071403294347192059 5.09707696836473012 0.010071403294347192059 3.23301611042972725
0.012679145539706837553 5.88821229014704972 0.012679145539706837553 3.66299883416464933
0.015962098519750611558 6.78373146130647431 0.015962098519750611558 4.14278206468447685
0.020095091452091651263 7.79572245877436121 0.020095091452091651263 4.67825485456982904
0.025298221281360611101 8.93770471915804166 0.025298221281360611101 5.27604332563120071
0.031848573644296607199 10.22480175078285214 0.031848573644296607199 5.94358575174906623
0.040094978690177640601 11.67393599983752317 0.040094978690177640601 6.68929422765764059
0.050476587558421215363 13.30407322415857330 0.050476587558421215363 7.52280490514688704
0.063546258777961384112 15.13652877564500443 0.063546258777961384112 8.45510732683320398
0.079999999999998294697 17.19526615672695513 0.079999999999998294697 9.49809865940280496
0.100714032943542974863 19.50699067291282063 0.100714032943542974863 10.66315054392258155
0.126791455396897845276 22.10077839796293731 0.126791455396897845276 11.95874843631214013
0.159620985197506115583 25.00707071560793793 0.159620985197506115583 13.38802465934421448
0.200950914520760193227 28.25615259553368830 0.200950914520760193227 14.94739013935843985
0.252982212813478213320 31.87649898716302133 0.252982212813478213320 16.62735204019883639
0.318485736442795541734 35.89360603288429985 0.318485736442795541734 18.41421467995449390
0.400949786901833249431 40.32909050435510778 0.400949786901833249431 20.29558388550978165
0.504765875584155310207 45.20200818955409261 0.504765875584155310207 22.26220828818726361
0.635462587779443310865 50.52874372612862430 0.635462587779443310865 24.31049041260098065
0.799999999999997157829 56.32539698753217294 0.799999999999997157829 26.44611882895521049
1.007140329435344483500 62.60922334720683580 1.007140329435344483500 28.68860217918445343
1.267914553968893187630 69.40291157985981840 1.267914553968893187630 31.04588716307323892
1.596209851975103788391 76.72426354782554370 1.596209851975103788391 33.56439979281793029
2.009509145207672986544 84.61282836455742995 2.009509145207672986544 36.26468905684922817
2.529822128134711078928 93.09018836329893531 2.529822128134711078928 39.19314571456671814
3.184857364427998049905 102.20899419507243522 3.184857364427998049905 42.41405403696523280
4.009497869018190385759 112.00950625049533471 4.009497869018190385759 45.94348291615026625
5.009497869018204596614 122.17932377366038565 5.009497869018204596614 49.67141721250244757
6.009497869018204596614 131.02117224994816524 6.009497869018204596614 52.94406525674701669
7.009497869018204596614 138.87875609935670695 7.009497869018204596614 55.85881088219648660
8.009497869018204596614 145.96777765970455221 8.009497869018204596614 58.47086915278996599
9.009497869018204596614 152.43406922944012649 9.009497869018204596614 60.82884395279398859
10.009497869018190385759 158.38201983870462186 10.009497869018190385759 62.96480079324049939
11.009497869018190385759 163.88966349463299821 11.009497869018190385759 64.89184582212156727
12.009497869018190385759 169.01737768830363962 12.009497869018190385759 66.65213526301327818
13.009497869018190385759 173.81290222887690788 13.009497869018190385759 68.26428262788908796
14.009497869018190385759 178.31536358446439294 14.009497869018190385759 69.74185978017108312
15.009497869018190385759 182.55631395872401868 15.009497869018190385759 71.10108337191749683
16.009497869018204596614 186.56194146651827737 16.009497869018204596614 72.35601255415063804
17.009497869018204596614 190.35522044563310828 17.009497869018204596614 73.51960665871320089
18.009497869018204596614 193.95605682315093077 18.009497869018204596614 74.60572768870405014
19.009497869018204596614 197.38136012913091122 19.009497869018204596614 75.61726849151921215
20.009497869018204596614 200.64642067406199999 20.009497869018204596614 76.55970897968322220
21.009497869018204596614 203.76372576556687477 21.009497869018204596614 77.43745878972607954
22.009497869018190385759 206.74394327140151972 22.009497869018190385759 78.25834454608559554
23.009497869018190385759 209.59686152542309401 23.009497869018190385759 79.02496868203017755
24.009497869018190385759 212.33152043612753346 24.009497869018190385759 79.74602094383565998
25.009497869018190385759 214.95641783012021619 25.009497869018190385759 80.42521511653981747
26.009497869018190385759 217.47902963756769168 26.009497869018190385759 81.06631725229209451
27.009497869018204596614 219.90617690587620814 27.009497869018204596614 81.67418168391104416
28.009497869018190385759 222.24377156369777708 28.009497869018190385759 82.25000370821399542
29.009497869018190385759 224.49711151949625787 29.009497869018190385759 82.79093254145952585
30.009497869018190385759 226.67111693166677355 30.009497869018190385759 83.30877774232578759
31.009497869018190385759 228.77029506784995760 31.009497869018190385759 83.79925713399353526
32.009497869018190385759 230.79879708420071438 32.009497869018190385759 84.26437106621077078
33.009497869018218807469 232.76048327196312471 33.009497869018218807469 84.70280204650994449
34.009497869018190385759 234.65903564427048877 34.009497869018190385759 85.12502929451393641
35.009497869018218807469 236.49774228245030372 35.009497869018218807469 85.52565718830044261
36.009497869018190385759 238.27964371468928562 36.009497869018190385759 85.91166611151056998
37.009497869018218807469 240.00755675267035372 37.009497869018218807469 86.28190932568961102
38.009497869018190385759 241.68416257937371938 38.009497869018190385759 86.63796752554041802
39.009497869018190385759 243.31191498899733006 39.009497869018190385759 86.98144398060935600
40.009497869018190385759 244.89311149467528139 40.009497869018190385759 87.31050724040667887
41.009497869018190385759 246.42995701602879421 41.009497869018190385759 87.63018146307264544
42.009497869018190385759 247.92447136100855687 42.009497869018190385759 87.93267396999695507
43.009497869018190385759 249.37856056119591130 43.009497869018190385759 88.23034505591139975
44.009497869018218807469 250.79406037842247201 44.009497869018218807469 88.50636482605449373
46.009497869018218807469 253.51610899861117332 46.009497869018218807469 89.03342761007159822
48.009497869018218807469 256.10233219333576926 48.009497869018218807469 89.51739372010251827
50.009497869018218807469 258.56205335143187085 50.009497869018218807469 89.93510662994570737
52.009497869018190385759 260.90456940088512283 52.009497869018190385759 90.30587199212992289
54.009497869018190385759 263.13872539324404443 54.009497869018190385759 90.63737917216478479
56.009497869018190385759 265.27153037081666298 56.009497869018190385759 90.93095989723971684
58.009497869018190385759 267.30902787596028247 58.009497869018190385759 91.18821074143700400
60.009497869018190385759 269.25723311326015619 60.009497869018190385759 91.45737642235066289
62.009497869018190385759 271.12120347116399444 62.009497869018190385759 91.71436404305525514
64.009497869018190385759 272.90623963655826856 64.009497869018190385759 91.95910575856629521
66.009497869018218807469 274.61948827134051498 66.009497869018218807469 92.21760984356448887
68.009497869018218807469 276.26713620552322936 68.009497869018218807469 92.47687614548613055
70.009497869018218807469 277.85285974463982939 70.009497869018218807469 92.69080283418095689
72.009497869018218807469 279.38050288620451056 72.009497869018218807469 92.83683655544511737
74.009497869018190385759 280.85363014115989699 74.009497869018190385759 92.96918189359999474
76.009497869018190385759 282.27511294242566464 76.009497869018190385759 93.08453409150595803
78.009497869018190385759 283.64863733794248901 78.009497869018190385759 93.22629427277074399
80.009497869018190385759 284.97648452131778640 80.009497869018190385759 93.29689613447143870
82.009497869018190385759 286.25861789925846779 82.009497869018190385759 93.39237161050554903
84.009497869018190385759 287.49561835741428695 84.009497869018190385759 93.46719819337840818
86.009497869018190385759 288.68850976217072457 86.009497869018190385759 93.44753787630656916
88.009497869018218807469 289.84028768285651267 88.009497869018218807469 93.45705752995810656
91.009497869018190385759 291.49358610421160165 91.009497869018190385759 93.42117666519422414
94.009497869018218807469 293.06349546881278911 94.009497869018218807469 93.45237359783503450
97.009497869018190385759 294.56132929441713486 97.009497869018190385759 93.59542275477504347
99.504748934509109403734 295.76034284606254232 99.504748934509109403734 93.66578078593100543
nan nan nan nan

