Time Pressure difference Time.1 Pressure.1 difference.1
(hr) (psi) (hr) (psi)
0.000200000000006639311 0.15677939978369129 0.000200000000006639311 0.12380778555405716
0.000399999999999067768 0.28456427224612729 0.000399999999999067768 0.24490248193896827
0.000600000000005707079 0.39822382761959524 0.000600000000005707079 0.32800395926046799
0.000799999999998135536 0.50231682248756082 0.000799999999998135536 0.40268804448616513
0.001007140329434719206 0.60256717633024359 0.001007140329434719206 0.47325196012364007
0.001267914553963578328 0.72025514919910250 0.001267914553963578328 0.55427123534909839
0.001596209851982166583 0.85781518985845706 0.001596209851982166583 0.64638156955326109
0.002009509145224797066 1.01791998581393739 0.002009509145224797066 0.75065802527093750
0.002529822128138903281 1.20349885915606669 0.002529822128138903281 0.86826723856621746
0.003184857364431081805 1.41776145313271962 0.003184857364431081805 1.00049328857159781
0.004009497869020606231 1.66422800474895727 0.004009497869020606231 1.14876872397689223
0.005047658755842121536 1.94676726804418854 0.005047658755842121536 1.31470959605708915
0.006354625877790454069 2.26964284731394050 0.006354625877790454069 1.50015318617246263
0.008000000000009777068 2.63756839190851533 0.008000000000009777068 1.70719728168520479
0.010071403294347192059 3.05577187181089371 0.010071403294347192059 1.93824024096151115
0.012679145539706837553 3.53006901860757649 0.012679145539706837553 2.19602114572492324
0.015962098519750611558 4.06694580325897803 0.015962098519750611558 2.48365817955598533
0.020095091452091651263 4.67364914397394937 0.020095091452091651263 2.80468191523967914
0.025298221281360611101 5.35828413988358321 0.025298221281360611101 3.16306480929831713
0.031848573644296607199 6.12991755447418551 0.031848573644296607199 3.56326621524762022
0.040094978690177640601 6.99869464067929226 0.040094978690177640601 4.01032930638698293
0.050476587558421215363 7.97598564652225139 0.050476587558421215363 4.51003109604679953
0.063546258777961384112 9.07456943588426412 0.063546258777961384112 5.06895997506747786
0.079999999999998294697 10.30881247745523766 0.079999999999998294697 5.69424846813711838
0.100714032943542974863 11.69472499079967776 0.100714032943542974863 6.39271403968174212
0.126791455396897845276 13.24973850557486799 0.126791455396897845276 7.16944384409975388
0.159620985197506115583 14.99210307464844760 0.159620985197506115583 8.02631575450975987
0.200950914520760193227 16.93997497839034239 0.200950914520760193227 8.96117806898430658
0.252982212813478213320 19.11042536366326772 0.252982212813478213320 9.96833969400269915
0.318485736442795541734 21.51873953913209547 0.318485736442795541734 11.03958986880767057
0.400949786901833249431 24.17787707421289412 0.400949786901833249431 12.16749810611872817
0.504765875584155310207 27.09926219131034486 0.504765875584155310207 13.34651807568508275
0.635462587779443310865 30.29271771930526569 0.635462587779443310865 14.57449303862243362
0.799999999999997157829 33.76789576679720284 0.799999999999997157829 15.85483337561149497
1.007140329435344483500 37.53514118145652390 1.007140329435344483500 17.19923480159844686
1.267914553968893187630 41.60805621413926048 1.267914553968893187630 18.61246147883274205
1.596209851975103788391 45.99731334056531296 1.596209851975103788391 20.12234647773308183
2.009509145207672986544 50.72662283020797247 2.009509145207672986544 21.74120921612077240
2.529822128134711078928 55.80892360615251135 2.529822128134711078928 23.49686162984946236
3.184857364427998049905 61.27578050044391489 3.184857364427998049905 25.42784307555925238
4.009497869018190385759 67.15133020357366433 4.009497869018190385759 27.54378708808037857
5.009497869018204596614 73.24828391284980000 5.009497869018204596614 29.77873798904879621
6.009497869018204596614 78.54910083916794861 6.009497869018204596614 31.74073815149639444
7.009497869018204596614 83.25983678772112739 7.009497869018204596614 33.48817060170517124
8.009497869018204596614 87.50980845132771435 8.009497869018204596614 35.05413757460951985
9.009497869018204596614 91.38644441667891272 9.009497869018204596614 36.46777780665076563
10.009497869018190385759 94.95232742757292499 10.009497869018190385759 37.74831503866602134
11.009497869018190385759 98.25424000770473754 11.009497869018190385759 38.90360659724277781
12.009497869018190385759 101.32837934225970855 12.009497869018190385759 39.95892575234048394
13.009497869018190385759 104.20336614206941306 13.009497869018190385759 40.92543157545777888
14.009497869018190385759 106.90265729456966426 14.009497869018190385759 41.81126059636470416
15.009497869018190385759 109.44516880535152836 15.009497869018190385759 42.62613493413500265
16.009497869018204596614 111.84660083065537606 16.009497869018204596614 43.37848325455147602
17.009497869018204596614 114.12072682056158612 17.009497869018204596614 44.07607486578194056
18.009497869018204596614 116.27948066824825446 18.009497869018204596614 44.72722024055801171
19.009497869018204596614 118.33299988324110075 19.009497869018204596614 45.33365368302244036
20.009497869018204596614 120.29045122935269774 20.009497869018204596614 45.89866048053823988
21.009497869018204596614 122.15932102935686032 21.009497869018204596614 46.42488427442315668
22.009497869018190385759 123.94600482533051888 22.009497869018190385759 46.91701724000763107
23.009497869018190385759 125.65637086596966299 23.009497869018190385759 47.37661957393557088
24.009497869018190385759 127.29583870806672508 24.009497869018190385759 47.80890090564904682
25.009497869018190385759 128.86950292242644878 25.009497869018190385759 48.21608770336246153
26.009497869018190385759 130.38184543805635940 26.009497869018190385759 48.60043777018481848
27.009497869018204596614 131.83695557221219019 27.009497869018204596614 48.96486134933502399
28.009497869018190385759 133.23837761221687970 28.009497869018190385759 49.31007503866226926
29.009497869018190385759 134.58928773134849166 29.009497869018190385759 49.63436975179733679
30.009497869018190385759 135.89263563621770459 30.009497869018190385759 49.94482549115162584
31.009497869018190385759 137.15112349941489356 31.009497869018190385759 50.23887502936020155
32.009497869018190385759 138.36723999950868347 32.009497869018190385759 50.51771760522829879
33.009497869018218807469 139.54329943731769959 33.009497869018218807469 50.78056336283484740
34.009497869018190385759 140.68150923333689661 34.009497869018190385759 51.03369474695374208
35.009497869018218807469 141.78384064020684718 35.009497869018218807469 51.27387700366555379
36.009497869018190385759 142.85211649885499696 36.009497869018190385759 51.50529497461919703
37.009497869018218807469 143.88802552890672359 37.009497869018218807469 51.72726117341100860
38.009497869018190385759 144.89317513860513031 38.009497869018190385759 51.94072324953515363
39.009497869018190385759 145.86903641330664527 39.009497869018190385759 52.14664238643327820
40.009497869018190385759 146.81698674559416418 40.009497869018190385759 52.34392060286516113
41.009497869018190385759 147.73834801689102392 41.009497869018190385759 52.53556995480325043
42.009497869018190385759 148.63433113147843301 42.009497869018190385759 52.71691861793507172
43.009497869018190385759 149.50607878304708720 43.009497869018190385759 52.89537676895659501
44.009497869018218807469 150.35469153754937111 44.009497869018218807469 53.06085464086276460
46.009497869018218807469 151.98659932683727902 46.009497869018218807469 53.37683645555264178
48.009497869018218807469 153.53707779551925228 48.009497869018218807469 53.66698118656631777
50.009497869018218807469 155.01171645097980445 50.009497869018218807469 53.91740615921501956
52.009497869018190385759 156.41608893693842219 52.009497869018190385759 54.13968539334002372
54.009497869018190385759 157.75549799060988221 54.009497869018190385759 54.33842877554538831
56.009497869018190385759 159.03414563493134892 56.009497869018190385759 54.51443469567526279
58.009497869018190385759 160.25565506155871276 58.009497869018190385759 54.66866032314305102
60.009497869018190385759 161.42363247324090025 60.009497869018190385759 54.83002906873935700
62.009497869018190385759 162.54110984800365713 62.009497869018190385759 54.98409688988991917
64.009497869018190385759 163.61126502482983369 64.009497869018190385759 55.13082311253853618
66.009497869018218807469 164.63838253160463410 66.009497869018218807469 55.28580007611753899
68.009497869018218807469 165.62617146301997195 68.009497869018218807469 55.44123399984241729
70.009497869018218807469 166.57683581778164239 70.009497869018218807469 55.56948616515217054
72.009497869018218807469 167.49268012837987385 72.009497869018218807469 55.65703550775472053
74.009497869018190385759 168.37584137103516468 74.009497869018190385759 55.73637846533785734
76.009497869018190385759 169.22804101159985635 76.009497869018190385759 55.80553378786886043
78.009497869018190385759 170.05148888949466368 78.009497869018190385759 55.89052108100576532
80.009497869018190385759 170.84755261350846922 80.009497869018190385759 55.93284792527778393
82.009497869018190385759 171.61621024542927216 82.009497869018190385759 55.99008686357977638
84.009497869018190385759 172.35781003466340167 84.009497869018190385759 56.03494648971958014
86.009497869018190385759 173.07296580401984443 86.009497869018190385759 56.02315984331971777
88.009497869018218807469 173.76347344093585434 88.009497869018218807469 56.02886701431953753
91.009497869018190385759 174.75464992169963807 91.009497869018190385759 56.00735591335673291
94.009497869018218807469 175.69583344853583640 94.009497869018218807469 56.02605892879916638
97.009497869018190385759 176.59380664009958650 97.009497869018190385759 56.11181898162483606
99.504748934509109403734 177.31263272567341005 99.504748934509109403734 56.15399964593435556
nan nan nan nan

