Time Pressure difference Time.1 Pressure.1 difference.1
(hr) (psi) (hr) (psi)
0.000200000000006639311 0.46145191758195780 0.000200000000006639311 0.36440591132712374
0.000399999999999067768 0.83756366770418844 0.000399999999999067768 0.72082633348028313
0.000600000000005707079 1.17210009181961849 0.000600000000005707079 0.96542056025247058
0.000799999999998135536 1.47847906861723377 0.000799999999998135536 1.18523970988438077
0.001007140329434719206 1.77354792385460347 0.001007140329434719206 1.39293188263111878
0.001267914553963578328 2.11994126910019220 0.001267914553963578328 1.63139752266718396
0.001596209851982166583 2.52482446569675378 0.001596209851982166583 1.90250769662032715
0.002009509145224797066 2.99606408780053624 0.002009509145224797066 2.20942665737640320
0.002529822128138903281 3.54228206723263384 0.002529822128138903281 2.55558818800664023
0.003184857364431081805 4.17292541063759970 0.003184857364431081805 2.94477174409535047
0.004009497869020606231 4.89835530142709263 0.004009497869020606231 3.38119377462024540
0.005047658755842121536 5.72995872011386709 0.005047658755842121536 3.86961083535831563
0.006354625877790454069 6.68028481780256822 0.006354625877790454069 4.41543063298534566
0.008000000000009777068 7.76320737213558854 0.008000000000009777068 5.02482762666050142
0.010071403294347192059 8.99411397087659914 0.010071403294347192059 5.70486095214177613
0.012679145539706837553 10.39012217217695522 0.012679145539706837553 6.46359260300412597
0.015962098519750611558 11.97032226303351088 0.015962098519750611558 7.31020039083887063
0.020095091452091651263 13.75604424157514671 0.020095091452091651263 8.25507592056375294
0.025298221281360611101 15.77114400686382645 0.025298221281360611101 9.30991140226670488
0.031848573644296607199 18.04230794373576074 0.031848573644296607199 10.48783213961546501
0.040094978690177640601 20.59939677641233047 0.040094978690177640601 11.80368180462889427
0.050476587558421215363 23.47587678146427947 0.050476587558421215363 13.27446399524705534
0.063546258777961384112 26.70936024246096707 0.063546258777961384112 14.91957045293140460
0.079999999999998294697 30.34213227170023686 0.079999999999998294697 16.75999447909184070
0.100714032943542974863 34.42131606603791738 0.100714032943542974863 18.81580205201872857
0.126791455396897845276 38.99821819252198196 0.126791455396897845276 21.10196629417215064
0.159620985197506115583 44.12655439380333178 0.159620985197506115583 23.62401438675544796
0.200950914520760193227 49.85976441008007498 0.200950914520760193227 26.37561318279996669
0.252982212813478213320 56.24809408657163345 0.252982212813478213320 29.34001197384600346
0.318485736442795541734 63.33653297550215910 0.318485736442795541734 32.49304386487116147
0.400949786901833249431 71.16322523462660854 0.400949786901833249431 35.81283855525634152
0.504765875584155310207 79.76179600438307205 0.504765875584155310207 39.28307142114596928
0.635462587779443310865 89.16115701188229536 0.635462587779443310865 42.89739449019639039
0.799999999999997157829 99.38971749984439441 0.799999999999997157829 46.66584560352048072
1.007140329435344483500 110.47792566363924038 1.007140329435344483500 50.62284899093955914
1.267914553968893187630 122.46581727805363471 1.267914553968893187630 54.78242710571418428
1.596209851975103788391 135.38480485259506736 1.596209851975103788391 59.22650157616173772
2.009509145207672986544 149.30467529377003189 2.009509145207672986544 63.99133238914899380
2.529822128134711078928 164.26351199057845065 2.529822128134711078928 69.15877896720873252
3.184857364427998049905 180.35422033936325192 3.184857364427998049905 74.84227496328573181
4.009497869018190385759 197.64784234007308328 4.009497869018190385759 81.07017495155642450
5.009497869018204596614 215.59312714429879065 5.009497869018204596614 87.64835027545940704
6.009497869018204596614 231.19512676143764907 6.009497869018204596614 93.42314427586185843
7.009497869018204596614 245.06032933066097712 7.009497869018204596614 98.56639687222535429
8.009497869018204596614 257.56935523933299237 8.009497869018204596614 103.17553852931627034
9.009497869018204596614 268.97953478107513092 9.009497869018204596614 107.33633386815833433
10.009497869018190385759 279.47506898722883761 10.009497869018190385759 111.10536450651902385
11.009497869018190385759 289.19365378785965959 11.009497869018190385759 114.50575706961741673
12.009497869018190385759 298.24182907620564720 12.009497869018190385759 117.61189887429769385
13.009497869018190385759 306.70383475823666686 13.009497869018190385759 120.45663463707612095
14.009497869018190385759 314.64871195608162679 14.009497869018190385759 123.06391276743781305
15.009497869018190385759 322.13213652425326927 15.009497869018190385759 125.46234857132041896
16.009497869018204596614 329.20031904407471757 16.009497869018204596614 127.67675030793088808
17.009497869018204596614 335.89379918440602069 17.009497869018204596614 129.72998553612740125
18.009497869018204596614 342.24770220978331281 18.009497869018204596614 131.64651463516466379
19.009497869018204596614 348.29186605310235336 19.009497869018204596614 133.43144221683121486
20.009497869018204596614 354.05327143214339003 20.009497869018204596614 135.09443793259637800
21.009497869018204596614 359.55395298924065628 21.009497869018204596614 136.64328286439530302
22.009497869018190385759 364.81273485026429171 22.009497869018190385759 138.09178758496173600
23.009497869018190385759 369.84688914801597548 23.009497869018190385759 139.44454425202897596
24.009497869018190385759 374.67236737151631587 24.009497869018190385759 140.71688647128283378
25.009497869018190385759 379.30416447208108366 25.009497869018190385759 141.91536745078749959
26.009497869018190385759 383.75547220027112871 26.009497869018190385759 143.04663262722414174
27.009497869018204596614 388.03832672468934106 27.009497869018204596614 144.11924777719255530
28.009497869018190385759 392.16316001652495515 28.009497869018190385759 145.13532207735818247
29.009497869018190385759 396.13932056959657757 29.009497869018190385759 146.08982513990554253
30.009497869018190385759 399.97549031388768981 30.009497869018190385759 147.00359567638557223
31.009497869018190385759 403.67962260758963566 31.009497869018190385759 147.86907751556623225
32.009497869018190385759 407.25904242770366182 32.009497869018190385759 148.68980040081365246
33.009497869018218807469 410.72056150174074673 33.009497869018218807469 149.46343953352604217
34.009497869018190385759 414.07067697423451591 34.009497869018190385759 150.20848615803794246
35.009497869018218807469 417.31519087218777031 35.009497869018218807469 150.91541935896702853
36.009497869018190385759 420.45946839946390128 36.009497869018190385759 151.59655646375773586
37.009497869018218807469 423.50847999803721677 37.009497869018218807469 152.24987398003969474
38.009497869018190385759 426.46695678447741784 38.009497869018190385759 152.87816114336865780
39.009497869018190385759 429.33922863349766885 39.009497869018190385759 153.48424702403642073
40.009497869018190385759 432.12934965201196746 40.009497869018190385759 154.06489991207681101
41.009497869018190385759 434.84121055983717952 41.009497869018190385759 154.62898525158692564
42.009497869018190385759 437.47837543556607898 42.009497869018190385759 155.16275236938784587
43.009497869018190385759 440.04420759220738546 43.009497869018190385759 155.68801178555241904
44.009497869018218807469 442.54194634736194303 44.009497869018218807469 156.17506608869322804
46.009497869018218807469 447.34517291745225975 46.009497869018218807469 157.10510163233507797
48.009497869018218807469 451.90872695280364724 48.009497869018218807469 157.95909037503528793
50.009497869018218807469 456.24906016138589848 50.009497869018218807469 158.69617116497698817
52.009497869018190385759 460.38257755932886539 52.009497869018190385759 159.35041004436516232
54.009497869018190385759 464.32488679827287115 54.009497869018190385759 159.93537538389270480
56.009497869018190385759 468.08835577568862618 56.009497869018190385759 160.45341710022637471
58.009497869018190385759 471.68364870345419604 58.009497869018190385759 160.90735244908907475
60.009497869018190385759 475.12137978966052287 60.009497869018190385759 161.38231227924498512
62.009497869018190385759 478.41047311537914766 62.009497869018190385759 161.83578315364360378
64.009497869018190385759 481.56028207713075062 64.009497869018190385759 162.26764535552840130
66.009497869018218807469 484.58341741083631860 66.009497869018218807469 162.72379212687229710
68.009497869018218807469 487.49079616848393925 68.009497869018218807469 163.18128387807868762
70.009497869018218807469 490.28890542318725920 70.009497869018218807469 163.55877102050860117
72.009497869018218807469 492.98452815114234227 72.009497869018218807469 163.81645673739950553
74.009497869018190385759 495.58395415685242824 74.009497869018190385759 164.04998843846405521
76.009497869018190385759 498.09225026491128574 76.009497869018190385759 164.25353467117676587
78.009497869018190385759 500.51592073952480177 78.009497869018190385759 164.50367945704934414
80.009497869018190385759 502.85899089077190638 80.009497869018190385759 164.62826089747750302
82.009497869018190385759 505.12139614747798078 82.009497869018190385759 164.79673340009108529
84.009497869018190385759 507.30416151902960564 84.009497869018190385759 164.92876962763617144
86.009497869018190385759 509.40909368227704590 86.009497869018190385759 164.89407775746329321
88.009497869018218807469 511.44147850834156088 88.009497869018218807469 164.91087578708624051
91.009497869018190385759 514.35882790718892466 91.009497869018190385759 164.84756173688398917
94.009497869018218807469 517.12903205297789100 94.009497869018218807469 164.90261069326714960
97.009497869018190385759 519.77205436175063369 97.009497869018190385759 165.15502995806178888
99.504748934509109403734 521.88778943953263934 99.504748934509109403734 165.27918114410638850
nan nan nan nan

