Time Pressure difference Time.1 Pressure.1 difference.1
(hr) (psi) (hr) (psi)
0.000200000000006639311 0.44875722934036333 0.000200000000006639311 0.35438098941991258
0.000399999999999067768 0.81452202622676928 0.000399999999999067768 0.70099617299939510
0.000600000000005707079 1.13985524747795086 0.000600000000005707079 0.93886153521113702
0.000799999999998135536 1.43780564169516389 0.000799999999998135536 1.15263339049278835
0.001007140329434719206 1.72475705937442170 0.001007140329434719206 1.35461188585997405
0.001267914553963578328 2.06162101410431342 0.001267914553963578328 1.58651726069559706
0.001596209851982166583 2.45536574587015810 0.001596209851982166583 1.85016910799253265
0.002009509145224797066 2.91364141688442801 0.002009509145224797066 2.14864463103867509
0.002529822128138903281 3.44483276689611007 0.002529822128138903281 2.48528314844662246
0.003184857364431081805 4.05812691240822954 0.003184857364431081805 2.86376014178186100
0.004009497869020606231 4.76359999739883655 0.004009497869020606231 3.28817606417677233
0.005047658755842121536 5.57232574294429739 0.005047658755842121536 3.76315661705409754
0.006354625877790454069 6.49650806903220968 0.006354625877790454069 4.29396073936814204
0.008000000000009777068 7.54963908129279382 0.008000000000009777068 4.88659302895319758
0.010071403294347192059 8.74668305008219527 0.010071403294347192059 5.54791842250926504
0.012679145539706837553 10.10428662411156431 0.012679145539706837553 6.28577712561749280
0.015962098519750611558 11.64101491054290527 0.015962098519750611558 7.10909446536875045
0.020095091452091651263 13.37761111250842916 0.020095091452091651263 8.02797617034191546
0.025298221281360611101 15.33727484573964794 0.025298221281360611101 9.05379279422635719
0.031848573644296607199 17.54595834418319455 0.031848573644296607199 10.19930855943347048
0.040094978690177640601 20.03270085409011969 0.040094978690177640601 11.47895878386881563
0.050476587558421215363 22.83004798417502457 0.050476587558421215363 12.90927929111371242
0.063546258777961384112 25.97457729218693601 0.063546258777961384112 14.50912834968707266
0.079999999999998294697 29.50741061360669448 0.079999999999998294697 16.29892172863539557
0.100714032943542974863 33.47437477123632732 0.100714032943542974863 18.29817338483802303
0.126791455396897845276 37.92536487223251385 0.126791455396897845276 20.52144452541913111
0.159620985197506115583 42.91261892217187324 0.159620985197506115583 22.97411027707854458
0.200950914520760193227 48.48810651709300146 0.200950914520760193227 25.65001171972431138
0.252982212813478213320 54.70069122311712562 0.252982212813478213320 28.53285896218586970
0.318485736442795541734 61.59412491565340986 0.318485736442795541734 31.59914994836851321
0.400949786901833249431 69.20550239460936837 0.400949786901833249431 34.82761603654227400
0.504765875584155310207 77.56752376217171729 0.504765875584155310207 38.20238169841843501
0.635462587779443310865 86.70830537469159083 0.635462587779443310865 41.71727359638080657
0.799999999999997157829 96.65547492763408854 0.799999999999997157829 45.38205342735760439
1.007140329435344483500 107.43864297688163845 1.007140329435344483500 49.23019839971701828
1.267914553968893187630 119.09674390039052128 1.267914553968893187630 53.27534520459412448
1.596209851975103788391 131.66032603959382641 1.596209851975103788391 57.59716178039388268
2.009509145207672986544 145.19725644112162399 2.009509145207672986544 62.23091059027282057
2.529822128134711078928 159.74457080789403562 2.529822128134711078928 67.25619907815210752
3.184857364427998049905 175.39261867940828665 3.184857364427998049905 72.78334030129713028
4.009497869018190385759 192.21048766771895089 4.009497869018190385759 78.83990879057826362
5.009497869018204596614 209.66209200965511172 5.009497869018204596614 85.23711643019230166
6.009497869018204596614 224.83487568134307821 6.009497869018204596614 90.85304402067995966
7.009497869018204596614 238.31864214137181079 7.009497869018204596614 95.85480411095367970
8.009497869018204596614 250.48354078983280147 8.009497869018204596614 100.33714682287015307
9.009497869018204596614 261.57982268255864255 9.009497869018204596614 104.38347736559551038
10.009497869018190385759 271.78662142224317222 10.009497869018190385759 108.04882077869181956
11.009497869018190385759 281.23784488035317963 11.009497869018190385759 111.35566746660180115
12.009497869018190385759 290.03710200395789798 12.009497869018190385759 114.37635832754948240
13.009497869018190385759 298.26631523256304490 13.009497869018190385759 117.14283450950868826
14.009497869018190385759 305.99262634518527193 14.009497869018190385759 119.67838559364309958
15.009497869018190385759 313.27017953596566713 15.009497869018190385759 122.01083966977101625
16.009497869018204596614 320.14391411851562452 16.009497869018204596614 124.16432251404006593
17.009497869018204596614 326.65325450257915918 17.009497869018204596614 126.16107259152968822
18.009497869018204596614 332.83235964555262854 18.009497869018204596614 128.02487736872274127
19.009497869018204596614 338.71024662935815286 19.009497869018204596614 129.76070102792255057
20.009497869018204596614 344.31315392369373285 20.009497869018204596614 131.37794720542729010
21.009497869018204596614 349.66250999091209906 21.009497869018204596614 132.88418292314645441
22.009497869018190385759 354.77662109922539457 22.009497869018190385759 134.29283882058865629
23.009497869018190385759 359.67228421959742946 23.009497869018190385759 135.60838072377507046
24.009497869018190385759 364.36501201053920340 24.009497869018190385759 136.84572040604808763
25.009497869018190385759 368.86938690751213699 25.009497869018190385759 138.01123079464477428
26.009497869018190385759 373.19823775184551096 26.009497869018190385759 139.11137450818083039
27.009497869018204596614 377.36326959333615605 27.009497869018204596614 140.15448167603182128
28.009497869018190385759 381.37462741634544727 28.009497869018190385759 141.14260345074583824
29.009497869018190385759 385.24140253466958939 29.009497869018190385759 142.07084783206767042
30.009497869018190385759 388.97203803565150793 30.009497869018190385759 142.95948025200081588
31.009497869018190385759 392.57426847808233106 31.009497869018190385759 143.80115241197432852
32.009497869018190385759 396.05521732652886158 32.009497869018190385759 144.59929695099759783
33.009497869018218807469 399.42150891572310911 33.009497869018218807469 145.35165302641391349
34.009497869018190385759 402.67946165169718142 34.009497869018190385759 146.07620318257608005
35.009497869018218807469 405.83471794585523185 35.009497869018218807469 146.76368842749616306
36.009497869018190385759 408.89249540360520996 36.009497869018190385759 147.42608723504363866
37.009497869018218807469 411.85762772849011526 37.009497869018218807469 148.06143177976349534
38.009497869018190385759 414.73471588256609266 38.009497869018190385759 148.67243456445891070
39.009497869018190385759 417.52797062432313169 39.009497869018190385759 149.26184683080296622
40.009497869018190385759 420.24133453091121737 40.009497869018190385759 149.82652577419301565
41.009497869018190385759 422.87859128721441948 41.009497869018190385759 150.37509294755426481
42.009497869018190385759 425.44320692289574026 42.009497869018190385759 150.89417596307731628
43.009497869018190385759 427.93845222515903970 43.009497869018190385759 151.40498532652756580
44.009497869018218807469 430.36747739695306336 44.009497869018218807469 151.87864061170031960
46.009497869018218807469 435.03856568450999021 46.009497869018218807469 152.78309058330250991
48.009497869018218807469 439.47657490458345819 48.009497869018218807469 153.61358582551574159
50.009497869018218807469 443.69750417345233018 50.009497869018218807469 154.33038928973692805
52.009497869018190385759 447.71730720006257798 52.009497869018190385759 154.96662985057244555
54.009497869018190385759 451.55116226462024542 54.009497869018190385759 155.53550260854490261
56.009497869018190385759 455.21109701982373963 56.009497869018190385759 156.03929283337006950
58.009497869018190385759 458.70748230170858051 58.009497869018190385759 156.48074027717467516
60.009497869018190385759 462.05064031814305281 60.009497869018190385759 156.94263381214059905
62.009497869018190385759 465.24924964590519494 62.009497869018190385759 157.38362955932055343
64.009497869018190385759 468.31240636661823373 64.009497869018190385759 157.80361109540382358
66.009497869018218807469 471.25237429086831753 66.009497869018218807469 158.24720912475748946
68.009497869018218807469 474.07977013908958952 68.009497869018218807469 158.69211513315218554
70.009497869018218807469 476.80090252296201925 70.009497869018218807469 159.05921748486875344
72.009497869018218807469 479.42236781686057157 72.009497869018218807469 159.30981418616431711
74.009497869018190385759 481.95028279077672551 74.009497869018190385759 159.53692135625044557
76.009497869018190385759 484.38957487935670088 76.009497869018190385759 159.73486796770561114
78.009497869018190385759 486.74656941244018071 78.009497869018190385759 159.97813119138086790
80.009497869018190385759 489.02518096255261071 80.009497869018190385759 160.09928535696920449
82.009497869018190385759 491.22534673489258239 82.009497869018190385759 160.26312312773646340
84.009497869018190385759 493.34806354051431754 84.009497869018190385759 160.39152699688960979
86.009497869018190385759 495.39508835401630904 86.009497869018190385759 160.35778951104063594
88.009497869018218807469 497.37156163053293767 88.009497869018218807469 160.37412542155431083
91.009497869018190385759 500.20865382446015701 91.009497869018190385759 160.31255316090366136
94.009497869018218807469 502.90264877779293329 94.009497869018218807469 160.36608770308097860
97.009497869018190385759 505.47296070668187440 97.009497869018190385759 160.61156283404358192
99.504748934509109403734 507.53049124312184404 99.504748934509109403734 160.73229858168255646
nan nan nan nan

