Time Pressure difference Time.1 Pressure.1 difference.1
(hr) (psi) (hr) (psi)
0.000200000000006639311 0.34148711369889034 0.000200000000006639311 0.26967039930397874
0.000399999999999067768 0.61982015574257687 0.000399999999999067768 0.53343131693589041
0.000600000000005707079 0.86738631279085932 0.000600000000005707079 0.71443777361186955
0.000799999999998135536 1.09411518420367515 0.000799999999998135536 0.87710999163383330
0.001007140329434719206 1.31247425451688682 0.001007140329434719206 1.03080791314379905
0.001267914553963578328 1.56881485938913801 0.001267914553963578328 1.20727904703568778
0.001596209851982166583 1.86843956333542449 0.001596209851982166583 1.40790803408766996
0.002009509145224797066 2.21716984764331304 0.002009509145224797066 1.63503650848487614
0.002529822128138903281 2.62138617905248550 0.002529822128138903281 1.89120556416447361
0.003184857364431081805 3.08807960237005341 0.003184857364431081805 2.17921210223287298
0.004009497869020606231 3.62491767836007650 0.004009497869020606231 2.50217641092942511
0.005047658755842121536 4.24032708586143148 0.005047658755842121536 2.86361847238345746
0.006354625877790454069 4.94359454192267123 0.006354625877790454069 3.26754013830277312
0.008000000000009777068 5.74498702367117886 0.008000000000009777068 3.71851067832647786
0.010071403294347192059 6.65589176936947702 0.010071403294347192059 4.22175404711454672
0.012679145539706837553 7.68897624295901139 0.012679145539706837553 4.78323634170043999
0.015962098519750611558 8.85836778199728947 0.015962098519750611558 5.40974939514623454
0.020095091452091651263 10.17985117189467559 0.020095091452091651263 6.10898328096739807
0.025298221281360611101 11.67108043424035380 0.025298221281360611101 6.88959055628540273
0.031848573644296607199 13.35180422796401700 0.031848573644296607199 7.76128430689562610
0.040094978690177640601 15.24412031046744609 0.040094978690177640601 8.73504925844614277
0.050476587558421215363 17.37279464708085186 0.050476587558421215363 9.82346854118695489
0.063546258777961384112 19.76566136237138949 0.063546258777961384112 11.04089257727248352
0.079999999999998294697 22.45401260271626853 0.079999999999998294697 12.40285698727842068
0.100714032943542974863 25.47272083016286004 0.100714032943542974863 13.92421114716104213
0.126791455396897845276 28.85975431578655304 0.126791455396897845276 15.61603557945614362
0.159620985197506115583 32.65486418688609405 0.159620985197506115583 17.48242055030871001
0.200950914520760193227 36.89759732135223658 0.200950914520760193227 19.51867935673504917
0.252982212813478213320 41.62513702692646689 0.252982212813478213320 21.71241601365770180
0.318485736442795541734 46.87077680993144924 0.318485736442795541734 24.04574635392116022
0.400949786901833249431 52.66274439646370809 0.400949786901833249431 26.50248575340840418
0.504765875584155310207 59.02592331548568438 0.504765875584155310207 29.07055354137074588
0.635462587779443310865 65.98170904043008989 0.635462587779443310865 31.74525204363914455
0.799999999999997157829 73.55112519245705016 0.799999999999997157829 34.53400953878131929
1.007140329435344483500 81.75670427377980332 1.007140329435344483500 37.46230090388650069
1.267914553968893187630 90.62807385913733071 1.267914553968893187630 40.54050314012961564
1.596209851975103788391 100.18848006973335885 1.596209851975103788391 43.82924050615545752
2.009509145207672986544 110.48956713624245651 2.009509145207672986544 47.35534638976913158
2.529822128134711078928 121.55951781421072155 2.529822128134711078928 51.17939901562352389
3.184857364427998049905 133.46708465278874201 3.184857364427998049905 55.38534240749342530
4.009497869018190385759 146.26484068632643698 4.009497869018190385759 59.99415973031273097
5.009497869018204596614 159.54484512191575618 5.009497869018204596614 64.86219043768522852
6.009497869018204596614 171.09075405454396446 6.009497869018204596614 69.13569686439294060
7.009497869018204596614 181.35138539187838091 7.009497869018204596614 72.94184527820803510
8.009497869018204596614 190.60840869155592259 8.009497869018204596614 76.35273690340048347
9.009497869018204596614 199.05225545009412258 9.009497869018204596614 79.43183991893972973
10.009497869018190385759 206.81923949811431385 10.009497869018190385759 82.22102627855190349
11.009497869018190385759 214.01125961192366276 11.009497869018190385759 84.73741032111989568
12.009497869018190385759 220.70715824346444833 12.009497869018190385759 87.03604070752705013
13.009497869018190385759 226.96927524062084558 13.009497869018190385759 89.14122343156390116
14.009497869018190385759 232.84870293311126943 14.009497869018190385759 91.07068097507777793
15.009497869018190385759 238.38664298493569049 15.009497869018190385759 92.84558945167866284
16.009497869018204596614 243.61729249754085913 16.009497869018204596614 94.48430765566273237
17.009497869018204596614 248.57065194114224482 17.009497869018204596614 96.00375820967887819
18.009497869018204596614 253.27271497780387222 18.009497869018204596614 97.42204246728829276
19.009497869018204596614 257.74556249871949376 19.009497869018204596614 98.74293798164401892
20.009497869018204596614 262.00916097729452758 20.009497869018204596614 99.97360056084848168
21.009497869018204596614 266.07981665503638169 21.009497869018204596614 101.11978841959376041
22.009497869018190385759 269.97145990294660578 22.009497869018190385759 102.19172176163606025
23.009497869018190385759 273.69687257446025797 23.009497869018190385759 103.19279891002969407
24.009497869018190385759 277.26785921028300663 24.009497869018190385759 104.13436715481452666
25.009497869018190385759 280.69551648690452339 25.009497869018190385759 105.02127605023888179
26.009497869018190385759 283.98960666264906649 26.009497869018190385759 105.85844340226491056
27.009497869018204596614 287.15903683340150110 27.009497869018204596614 106.65220812122363725
28.009497869018190385759 290.21152694482861989 28.009497869018190385759 107.40413105587165887
29.009497869018190385759 293.15399513953633459 29.009497869018190385759 108.11048958083792115
30.009497869018190385759 295.99286628455519121 30.009497869018190385759 108.78670491594971281
31.009497869018190385759 298.73402608374584588 31.009497869018190385759 109.42718528662263111
32.009497869018190385759 301.38289522160187062 32.009497869018190385759 110.03454280005192345
33.009497869018218807469 303.94451456387417920 33.009497869018218807469 110.60705704131639493
34.009497869018190385759 306.42369217625611100 34.009497869018190385759 111.15841203992353314
35.009497869018218807469 308.82472171834530172 35.009497869018218807469 111.68156205656707414
36.009497869018190385759 311.15157358859914893 36.009497869018190385759 112.18562225240943064
37.009497869018218807469 313.40792605081708189 37.009497869018218807469 112.66909518742964735
38.009497869018190385759 315.59728026141522150 38.009497869018190385759 113.13404497267171678
39.009497869018190385759 317.72284044679747694 39.009497869018190385759 113.58256519798017337
40.009497869018190385759 319.78760675760992171 40.009497869018190385759 114.01226430907473741
41.009497869018190385759 321.79445843355210854 41.009497869018190385759 114.42970297847836036
42.009497869018190385759 323.74603299083156571 42.009497869018190385759 114.82470532975331423
43.009497869018190385759 325.64481937360051234 43.009497869018190385759 115.21341174776780747
44.009497869018218807469 327.49321476599823200 44.009497869018218807469 115.57384533110999314
46.009497869018218807469 331.04773456614765337 46.009497869018218807469 116.26209721897700433
48.009497869018218807469 334.42489009712295456 48.009497869018218807469 116.89407238207563466
50.009497869018218807469 337.63685607541350464 50.009497869018218807469 117.43953244395822821
52.009497869018190385759 340.69577266426261986 52.009497869018190385759 117.92368721302402435
54.009497869018190385759 343.61318995525556375 54.009497869018190385759 118.35657765685594711
56.009497869018190385759 346.39826053276544826 56.009497869018190385759 118.73994277843438283
58.009497869018190385759 349.05887620695784790 58.009497869018190385759 119.07586742449782946
60.009497869018190385759 351.60289178382026876 60.009497869018190385759 119.42735076510838610
62.009497869018190385759 354.03691132885006709 62.009497869018190385759 119.76293168729058891
64.009497869018190385759 356.36785661278725001 64.009497869018190385759 120.08252159735113196
66.009497869018218807469 358.60505992713882506 66.009497869018218807469 120.42008275688760932
68.009497869018218807469 360.75660019070750195 68.009497869018218807469 120.75863923852315907
70.009497869018218807469 362.82727801605875584 70.009497869018218807469 121.03799010871200892
72.009497869018218807469 364.82211299217965461 72.009497869018218807469 121.22868462822687263
74.009497869018190385759 366.74575974743692086 74.009497869018190385759 121.40150451154561040
76.009497869018190385759 368.60196787141990171 76.009497869018190385759 121.55213432337428969
78.009497869018190385759 370.39555069857539138 78.009497869018190385759 121.73724834648218973
80.009497869018190385759 372.12948706909946850 80.009497869018190385759 121.82944203967387864
82.009497869018190385759 373.80372919854630709 82.009497869018190385759 121.95411632633975785
84.009497869018190385759 375.41903562206039169 84.009497869018190385759 122.05182676708149359
86.009497869018190385759 376.97674333021325310 86.009497869018190385759 122.02615382876926731
88.009497869018218807469 378.48076401305053196 88.009497869018218807469 122.03858483280936298
91.009497869018190385759 380.63968282540253085 91.009497869018190385759 121.99173069387012447
94.009497869018218807469 382.68971010247889808 94.009497869018218807469 122.03246843600788907
97.009497869018190385759 384.64561932135052302 97.009497869018190385759 122.21926563608973026
99.504748934509109403734 386.21132148345054702 99.504748934509109403734 122.31114092920114444
nan nan nan nan

