Time Pressure difference Time.1 Pressure.1 difference.1
(hr) (psi) (hr) (psi)
0.000200000000006639311 0.66202799179914995 0.000200000000006639311 0.52279967746105915
0.000399999999999067768 1.20162160304741206 0.000399999999999067768 1.03414286907831543
0.000600000000005707079 1.68156863241796706 0.000600000000005707079 1.38505315590553879
0.000799999999998135536 2.12111921398593495 0.000799999999998135536 1.70041955627153940
0.001007140329434719206 2.54444358264147397 0.001007140329434719206 1.99838783161520883
0.001267914553963578328 3.04140129803507619 0.001267914553963578328 2.34050566181825737
0.001596209851982166583 3.62227223895696593 0.001596209851982166583 2.72945739693947909
0.002009509145224797066 4.29834228827504727 0.002009509145224797066 3.16978267351250143
0.002529822128138903281 5.08198101254970691 0.002529822128138903281 3.66640781305491803
0.003184857364431081805 5.98674168266164664 0.003184857364431081805 4.22475506064848805
0.004009497869020606231 7.02748910507353219 0.004009497869020606231 4.85087359962711950
0.005047658755842121536 8.22055975939307260 0.005047658755842121536 5.55158748456495577
0.006354625877790454069 9.58395744837424957 0.006354625877790454069 6.33465495213715979
0.008000000000009777068 11.13758636745174613 0.008000000000009777068 7.20893427043590407
0.010071403294347192059 12.90352251942818818 0.010071403294347192059 8.18455292033544879
0.012679145539706837553 14.90632383161013053 0.012679145539706837553 9.27307714571293573
0.015962098519750611558 17.17337843238507844 0.015962098519750611558 10.48767401326677096
0.020095091452091651263 19.73528768082926987 0.020095091452091651263 11.84325197406876562
0.025298221281360611101 22.62627675262581661 0.025298221281360611101 13.35658540930422866
0.031848573644296607199 25.88463161666630086 0.031848573644296607199 15.04650470649096228
0.040094978690177640601 29.55319234910324866 0.040094978690177640601 16.93430553263815241
0.050476587558421215363 33.67997177863443881 0.050476587558421215363 19.04438232055388980
0.063546258777961384112 38.31893085679062949 0.063546258777961384112 21.40455568419182342
0.079999999999998294697 43.53073446957819215 0.079999999999998294697 24.04494393630370297
0.100714032943542974863 49.38298852390308724 0.100714032943542974863 26.99433499347391319
0.126791455396897845276 55.94930065309549150 0.126791455396897845276 30.27421024046981302
0.159620985197506115583 63.30673484558028719 0.159620985197506115583 33.89249931965052554
0.200950914520760193227 71.53195911927582529 0.200950914520760193227 37.84011629939526955
0.252982212813478213320 80.69705932915297808 0.252982212813478213320 42.09302955807618218
0.318485736442795541734 90.86658032111245120 0.318485736442795541734 46.61656774561295435
0.400949786901833249431 102.09524610689898338 0.400949786901833249431 51.37935435093859837
0.504765875584155310207 114.43129743132261922 0.504765875584155310207 56.35796904024105913
0.635462587779443310865 127.91621287949550378 0.635462587779443310865 61.54330461248257933
0.799999999999997157829 142.59075014076711341 0.799999999999997157829 66.94976198689388980
1.007140329435344483500 158.49859211440954709 1.007140329435344483500 72.62672833225579438
1.267914553968893187630 175.69717664513058253 1.267914553968893187630 78.59432114341113618
1.596209851975103788391 194.23157009801465733 1.596209851975103788391 84.97007034929394820
2.009509145207672986544 214.20189316561504711 2.009509145207672986544 91.80599681139257484
2.529822128134711078928 235.66278267699220805 2.529822128134711078928 99.21954121430360374
3.184857364427998049905 258.74752656665179984 3.184857364427998049905 107.37344262270566730
4.009497869018190385759 283.55804616326855694 4.009497869018190385759 116.30838029501148867
5.009497869018204596614 309.30348227166939523 5.009497869018204596614 125.74584503067973174
6.009497869018204596614 331.68709382693185717 6.009497869018204596614 134.03072830773578517
7.009497869018204596614 351.57898692142970276 7.009497869018204596614 141.40956250031780428
8.009497869018204596614 369.52522354143650318 8.009497869018204596614 148.02212749116489476
9.009497869018204596614 385.89498593763602230 9.009497869018204596614 153.99146660865079639
10.009497869018190385759 400.95254051400229400 10.009497869018190385759 159.39875540618891137
11.009497869018190385759 414.89543452646165633 11.009497869018190385759 164.27717279726405764
12.009497869018190385759 427.87651681772013035 12.009497869018190385759 168.73343951291954568
13.009497869018190385759 440.01664326388015525 13.009497869018190385759 172.81467665264153766
14.009497869018190385759 451.41486460824359028 14.009497869018190385759 176.55524211339428575
15.009497869018190385759 462.15105693919696250 15.009497869018190385759 179.99618921580082542
16.009497869018204596614 472.29151686790913800 16.009497869018204596614 183.17310945140565082
17.009497869018204596614 481.89440515727022785 17.009497869018204596614 186.11881006077152279
18.009497869018204596614 491.01011472462721485 18.009497869018204596614 188.86838344494736930
19.009497869018204596614 499.68145294826103964 19.009497869018204596614 191.42915300158867353
20.009497869018204596614 507.94712806564723451 20.009497869018204596614 193.81499142186794415
21.009497869018204596614 515.83875236283074628 21.009497869018204596614 196.03706193612694619
22.009497869018190385759 523.38333211667907108 22.009497869018190385759 198.11517806205651482
23.009497869018190385759 530.60564701702980983 23.009497869018190385759 200.05592799844049523
24.009497869018190385759 537.52858207495387433 24.009497869018190385759 201.88131030199173210
25.009497869018190385759 544.17364999227038425 25.009497869018190385759 203.60072661784229808
26.009497869018190385759 550.55977648539578695 26.009497869018190385759 205.22371090810838723
27.009497869018204596614 556.70422940007017587 27.009497869018204596614 206.76255217553207899
28.009497869018190385759 562.62197509936117967 28.009497869018190385759 208.22027637783295972
29.009497869018190385759 568.32642552144318415 29.009497869018190385759 209.58966660374341018
30.009497869018190385759 573.83003631002054590 30.009497869018190385759 210.90061938166456912
31.009497869018190385759 579.14421785380466190 31.009497869018190385759 212.14229415231858411
32.009497869018190385759 584.27947902626533505 32.009497869018190385759 213.31975490790733829
33.009497869018218807469 589.24559236081927338 33.009497869018218807469 214.42966634589774344
34.009497869018190385759 594.05187907032552630 34.009497869018190385759 215.49855717033503311
35.009497869018218807469 598.70666310824185530 35.009497869018218807469 216.51276807620715203
36.009497869018190385759 603.21764173403141740 36.009497869018190385759 217.48997027744059096
37.009497869018218807469 607.59194585688135248 37.009497869018218807469 218.42726074440358275
38.009497869018190385759 611.83636303467676498 38.009497869018190385759 219.32864109014238352
39.009497869018190385759 615.95710517845679988 39.009497869018190385759 220.19817007712512691
40.009497869018190385759 619.95998856540359156 40.009497869018190385759 221.03121129064118122
41.009497869018190385759 623.85059506727679945 41.009497869018190385759 221.84048365530281899
42.009497869018190385759 627.63403793575707823 42.009497869018190385759 222.60625958909423616
43.009497869018190385759 631.31514239157115753 43.009497869018190385759 223.35982983814466252
44.009497869018218807469 634.89855576382183244 44.009497869018218807469 224.05858862518161345
46.009497869018218807469 641.78956719794041419 46.009497869018218807469 225.39287620705022164
48.009497869018218807469 648.33672931468242950 48.009497869018218807469 226.61806225744402354
50.009497869018218807469 654.56364477073657326 50.009497869018218807469 227.67552479377030750
52.009497869018190385759 660.49384923573586548 52.009497869018190385759 228.61413710629005891
54.009497869018190385759 666.14973442998439168 54.009497869018190385759 229.45336523438803056
56.009497869018190385759 671.54904411835377687 56.009497869018190385759 230.19658051655588338
58.009497869018190385759 676.70707785103547849 58.009497869018190385759 230.84782476533686690
60.009497869018190385759 681.63906343963662948 60.009497869018190385759 231.52923205949451813
62.009497869018190385759 686.35780393306799851 62.009497869018190385759 232.17980994394812910
64.009497869018190385759 690.87671830322892674 64.009497869018190385759 232.79938666549671211
66.009497869018218807469 695.21389870633049668 66.009497869018218807469 233.45380356028582014
68.009497869018218807469 699.38500743291444905 68.009497869018218807469 234.11015004791755700
70.009497869018218807469 703.39935124674593681 70.009497869018218807469 234.65171688361829183
72.009497869018218807469 707.26666143279430798 72.009497869018218807469 235.02140904691566448
74.009497869018190385759 710.99596174084888389 74.009497869018190385759 235.35644833743882032
76.009497869018190385759 714.59452135667470429 76.009497869018190385759 235.64846858602115276
78.009497869018190385759 718.07167170746117790 78.009497869018190385759 236.00734205461134252
80.009497869018190385759 721.43318775663703946 80.009497869018190385759 236.18607443750900643
82.009497869018190385759 724.67897686632670684 82.009497869018190385759 236.42777570329440096
84.009497869018190385759 727.81050957957063474 84.009497869018190385759 236.61720319343123720
86.009497869018190385759 730.83037786879629039 86.009497869018190385759 236.56743205094113591
88.009497869018218807469 733.74616517771698909 88.009497869018218807469 236.59153156249101357
91.009497869018190385759 737.93157841430263488 91.009497869018190385759 236.50069723737274785
94.009497869018218807469 741.90588780090229193 94.009497869018218807469 236.57967393820860025
97.009497869018190385759 745.69773411183757617 97.009497869018190385759 236.94181051754941336
99.504748934509109403734 748.73310094282339833 99.504748934509109403734 237.11992563040297455
nan nan nan nan

