Time Pressure difference Time.1 Pressure.1 difference.1
(hr) (psi) (hr) (psi)
0.000200000000006639311 0.31800194045194063 0.000200000000006639311 0.25112429377563822
0.000399999999999067768 0.57719311900935133 0.000399999999999067768 0.49674552004624734
0.000600000000005707079 0.80773335075877417 0.000600000000005707079 0.66530357728540268
0.000799999999998135536 1.01886934439784604 0.000799999999998135536 0.81678830075938746
0.001007140329434719206 1.22221115522855062 0.001007140329434719206 0.95991591911718099
0.001267914553963578328 1.46092238764676252 0.001267914553963578328 1.12425056238825216
0.001596209851982166583 1.73994093165622243 0.001596209851982166583 1.31108164512625014
0.002009509145224797066 2.06468790644851241 0.002009509145224797066 1.52258975976007971
0.002529822128138903281 2.44110497342991684 0.002529822128138903281 1.76114124097844083
0.003184857364431081805 2.87570238064571893 0.003184857364431081805 2.02934063795291708
0.004009497869020606231 3.37562036590780368 0.004009497869020606231 2.33009364660899987
0.005047658755842121536 3.94870607809772700 0.005047658755842121536 2.66667816852065487
0.006354625877790454069 4.60360755669750610 0.006354625877790454069 3.04282083511094648
0.008000000000009777068 5.34988568561200850 0.008000000000009777068 3.46277667256796562
0.010071403294347192059 6.19814456589983021 0.010071403294347192059 3.93141036729440119
0.012679145539706837553 7.16018047903803900 0.012679145539706837553 4.45427770853516858
0.015962098519750611558 8.24914917988966856 0.015962098519750611558 5.03770343302651202
0.020095091452091651263 9.47974988312124900 0.020095091452091651263 5.68884874305700095
0.025298221281360611101 10.86842248616062712 0.025298221281360611101 6.41577113141075550
0.031848573644296607199 12.43355746879177026 0.031848573644296607199 7.22751568355893692
0.040094978690177640601 14.19573285417135899 0.040094978690177640601 8.13431167003999356
0.050476587558421215363 16.17801137209573881 0.050476587558421215363 9.14787683854026845
0.063546258777961384112 18.40631290436443379 0.063546258777961384112 10.28157468627047244
0.079999999999998294697 20.90977753524321869 0.079999999999998294697 11.54987239893399398
0.100714032943542974863 23.72087943477991345 0.100714032943542974863 12.96659811287673136
0.126791455396897845276 26.87497567325104697 0.126791455396897845276 14.54207030726306371
0.159620985197506115583 30.40908356436790427 0.159620985197506115583 16.28009794740643557
0.200950914520760193227 34.36003021932615553 0.200950914520760193227 18.17631665004509500
0.252982212813478213320 38.76244172953561673 0.252982212813478213320 20.21918294208644795
0.318485736442795541734 43.64732189921124927 0.318485736442795541734 22.39204260839126448
0.400949786901833249431 49.04095714243182158 0.400949786901833249431 24.67982409378738140
0.504765875584155310207 54.96651966739466388 0.504765875584155310207 27.07127755432480143
0.635462587779443310865 61.44393351162728578 0.635462587779443310865 29.56202839008031802
0.799999999999997157829 68.49277643386800207 0.799999999999997157829 32.15899401288000092
1.007140329435344483500 76.13403130327822055 1.007140329435344483500 34.88589731012478268
1.267914553968893187630 84.39528811046059786 1.267914553968893187630 37.75240162305750147
1.596209851975103788391 93.29819426568104745 1.596209851975103788391 40.81496188398490688
2.009509145207672986544 102.89084225884289481 2.009509145207672986544 44.09856606184821004
2.529822128134711078928 113.19947662624457507 2.529822128134711078928 47.65962622086874489
3.184857364427998049905 124.28812158187206194 3.184857364427998049905 51.57631328281451744
4.009497869018190385759 136.20573454247127643 4.009497869018190385759 55.86816733250311984
5.009497869018204596614 148.57243012282489758 5.009497869018204596614 60.40140782394108498
6.009497869018204596614 159.32428955636899559 6.009497869018204596614 64.38101139230644776
7.009497869018204596614 168.87926409169347153 7.009497869018204596614 67.92539866985542574
8.009497869018204596614 177.49965195998052536 8.009497869018204596614 71.10171224647517363
9.009497869018204596614 185.36278806783857931 9.009497869018204596614 73.96905538919851608
10.009497869018190385759 192.59561150289084708 10.009497869018190385759 76.56642038207156986
11.009497869018190385759 199.29301313303670895 11.009497869018190385759 78.90974455554102462
12.009497869018190385759 205.52841315980612080 12.009497869018190385759 81.05029069604285041
13.009497869018190385759 211.35986411812461938 13.009497869018190385759 83.01069319556414428
14.009497869018190385759 216.83494455295306125 14.009497869018190385759 84.80745570355755092
15.009497869018190385759 221.99202255660370042 15.009497869018190385759 86.46029798381228204
16.009497869018204596614 226.86294338525644321 16.009497869018204596614 87.98631623696473980
17.009497869018204596614 231.47564427976260504 17.009497869018204596614 89.40126926217308778
18.009497869018204596614 235.85433123397720578 18.009497869018204596614 90.72201352437069488
19.009497869018204596614 240.01956656479271146 19.009497869018204596614 91.95206678216293028
20.009497869018204596614 243.98994358666274707 20.009497869018204596614 93.09809271558566479
21.009497869018204596614 247.78064710812867588 21.009497869018204596614 94.16545352828340754
22.009497869018190385759 251.40464946352460629 22.009497869018190385759 95.16366654754584431
23.009497869018190385759 254.87385345688585403 23.009497869018190385759 96.09589638276000301
24.009497869018190385759 258.19925179247542246 24.009497869018190385759 96.97270993413026474
25.009497869018190385759 261.39117799245201468 25.009497869018190385759 97.79862323637487975
26.009497869018190385759 264.45872293306166512 26.009497869018190385759 98.57821588203481156
27.009497869018204596614 267.41018114039803777 27.009497869018204596614 99.31739083407630631
28.009497869018190385759 270.25274163449654452 28.009497869018190385759 100.01760159663885474
29.009497869018190385759 272.99284677492141782 29.009497869018190385759 100.67538156133791460
30.009497869018190385759 275.63647956981810694 30.009497869018190385759 101.30509138083792209
31.009497869018190385759 278.18912094415736647 31.009497869018190385759 101.90152384497756088
32.009497869018190385759 280.65581878442850439 32.009497869018190385759 102.46711141789222665
33.009497869018218807469 283.04126727974158939 33.009497869018218807469 103.00025200315894836
34.009497869018190385759 285.34994382956188019 34.009497869018190385759 103.51368853531913317
35.009497869018218807469 287.58584680463007999 35.009497869018218807469 104.00085983334592754
36.009497869018190385759 289.75267354626049610 36.009497869018190385759 104.47025417928833235
37.009497869018218807469 291.85384935215495261 37.009497869018218807469 104.92047711691868983
38.009497869018190385759 293.89263459287917613 38.009497869018190385759 105.35345080168872300
39.009497869018190385759 295.87201312982443824 39.009497869018190385759 105.77112484049827401
40.009497869018190385759 297.79477878357357667 40.009497869018190385759 106.17127215398966200
41.009497869018190385759 299.66361277920003658 41.009497869018190385759 106.56000221601794919
42.009497869018190385759 301.48097124239143341 42.009497869018190385759 106.92783897807883875
43.009497869018190385759 303.24917194456105562 43.009497869018190385759 107.28981279857187303
44.009497869018218807469 304.97044720774186999 44.009497869018218807469 107.62545819867305852
46.009497869018218807469 308.28051118520437512 46.009497869018218807469 108.26637677826668948
48.009497869018218807469 311.42540880791557356 48.009497869018218807469 108.85488896546446824
50.009497869018218807469 314.41647749773636633 50.009497869018218807469 109.36283597476406726
52.009497869018190385759 317.26502249962004498 52.009497869018190385759 109.81369385450750542
54.009497869018190385759 319.98179956799822321 54.009497869018190385759 110.21681302246250311
56.009497869018190385759 322.57533183441540814 56.009497869018190385759 110.57381288475023950
58.009497869018190385759 325.05296836372838243 58.009497869018190385759 110.88663490645616605
60.009497869018190385759 327.42202376151294629 60.009497869018190385759 111.21394560096524629
62.009497869018190385759 329.68864791032319772 62.009497869018190385759 111.52644753779290454
64.009497869018190385759 331.85928654833907103 64.009497869018190385759 111.82405821612066177
66.009497869018218807469 333.94263015519806004 66.009497869018218807469 112.13840420297526634
68.009497869018218807469 335.94620203632797484 68.009497869018218807469 112.45367706040910605
70.009497869018218807469 337.87447265064207613 70.009497869018218807469 112.71381606777829631
72.009497869018218807469 339.73211637375840155 72.009497869018218807469 112.89139590844175132
74.009497869018190385759 341.52346772019677701 74.009497869018190385759 113.05233040945047662
76.009497869018190385759 343.25201840814384013 76.009497869018190385759 113.19260092195263212
78.009497869018190385759 344.92225074346890779 78.009497869018190385759 113.36498405499548880
80.009497869018190385759 346.53693870189374593 80.009497869018190385759 113.45083728973347093
82.009497869018190385759 348.09603778526337692 82.009497869018190385759 113.56693732248368178
84.009497869018190385759 349.60025436180723091 84.009497869018190385759 113.65792790020043412
86.009497869018190385759 351.05083347293094675 86.009497869018190385759 113.63402057288735136
88.009497869018218807469 352.45141778910470975 88.009497869018218807469 113.64559665657526466
91.009497869018190385759 354.46186077235438461 91.009497869018190385759 113.60196482830657772
94.009497869018218807469 356.37090104338648189 94.009497869018218807469 113.63990090416348266
97.009497869018190385759 358.19229605947322170 97.009497869018190385759 113.81385145665605307
99.504748934509109403734 359.65031982009060130 99.504748934509109403734 113.89940818871706085
nan nan nan nan

