Time Pressure difference Time.1 Pressure.1 difference.1
(hr) (psi) (hr) (psi)
0.000200000000006639311 0.44240988521956615 0.000200000000006639311 0.34936852846630706
0.000399999999999067768 0.80300120548805964 0.000399999999999067768 0.69108109275895091
0.000600000000005707079 1.12373282530711704 0.000600000000005707079 0.92558202269047030
0.000799999999998135536 1.41746892823412907 0.000799999999998135536 1.13633023079699225
0.001007140329434719206 1.70036162713433092 0.001007140329434719206 1.33545188747440147
0.001267914553963578328 2.03246088660637447 0.001267914553963578328 1.56407712970980373
0.001596209851982166583 2.42063638595686026 0.001596209851982166583 1.82399981367863573
0.002009509145224797066 2.87243008142637413 0.002009509145224797066 2.11825361786981148
0.002529822128138903281 3.39610811672784818 0.002529822128138903281 2.45013062866661357
0.003184857364431081805 4.00072766329354490 0.003184857364431081805 2.82325434062511649
0.004009497869020606231 4.69622234538470895 0.004009497869020606231 3.24166720895503602
0.005047658755842121536 5.49350925435951254 0.005047658755842121536 3.70992950790198917
0.006354625877790454069 6.40461969464702907 0.006354625877790454069 4.23322579255954068
0.008000000000009777068 7.44285493587139779 0.008000000000009777068 4.81747573009954522
0.010071403294347192059 8.62296758968499155 0.010071403294347192059 5.46944715769300949
0.012679145539706837553 9.96136885007886796 0.012679145539706837553 6.19686938692417577
0.015962098519750611558 11.47636123429760424 0.015962098519750611558 7.00854150263369036
0.020095091452091651263 13.18839454797507393 0.020095091452091651263 7.91442629523099761
0.025298221281360611101 15.12034026517756047 0.025298221281360611101 8.92573349020618068
0.031848573644296607199 17.29778354440691146 0.031848573644296607199 10.05504676934247321
0.040094978690177640601 19.74935289292901430 0.040094978690177640601 11.31659727348877631
0.050476587558421215363 22.50713358553040067 0.050476587558421215363 12.72668693904704007
0.063546258777961384112 25.60718581704992403 0.063546258777961384112 14.30390729806490846
0.079999999999998294697 29.09004978455992330 0.079999999999998294697 16.06838535340716945
0.100714032943542974863 33.00090412383552518 0.100714032943542974863 18.03935905124766848
0.126791455396897845276 37.38893821208778689 0.126791455396897845276 20.23118364104262668
0.159620985197506115583 42.30565118635614397 0.159620985197506115583 22.64915822224009290
0.200950914520760193227 47.80227757059946470 0.200950914520760193227 25.28721098818648727
0.252982212813478213320 53.92698979138986459 0.252982212813478213320 28.12928245635579927
0.318485736442795541734 60.72292088572903879 0.318485736442795541734 31.15220299011718907
0.400949786901833249431 68.22664097460075538 0.400949786901833249431 34.33500477718524024
0.504765875584155310207 76.47038764106602571 0.504765875584155310207 37.66203683705466432
0.635462587779443310865 85.48187955609623145 0.635462587779443310865 41.12721314947302176
0.799999999999997157829 95.28835364152894272 0.799999999999997157829 44.74015733927616623
1.007140329435344483500 105.91900163350283037 1.007140329435344483500 48.53387310410574429
1.267914553968893187630 117.41220721155896456 1.267914553968893187630 52.52180425403409458
1.596209851975103788391 129.79808663309319172 1.596209851975103788391 56.78249188250995161
2.009509145207672986544 143.14354701479740584 2.009509145207672986544 61.35069969083473040
2.529822128134711078928 157.48510021655181390 2.529822128134711078928 66.30490913362378080
3.184857364427998049905 172.91181784943080402 3.184857364427998049905 71.75387297030282241
4.009497869018190385759 189.49181033154187048 4.009497869018190385759 77.72477571008917607
5.009497869018204596614 206.69657444233322963 5.009497869018204596614 84.03149950755874897
6.009497869018204596614 221.65475014129577858 6.009497869018204596614 89.56799389308901027
7.009497869018204596614 234.94779854672722763 7.009497869018204596614 94.49900773031784240
8.009497869018204596614 246.94063356508269180 8.009497869018204596614 98.91795096964709444
9.009497869018204596614 257.87996663330034153 9.009497869018204596614 102.90704911431410551
10.009497869018190385759 267.94239763975036794 10.009497869018190385759 106.52054891477821741
11.009497869018190385759 277.25994042659999650 11.009497869018190385759 109.78062266509400047
12.009497869018190385759 285.93473846783405179 12.009497869018190385759 112.75858805417537667
13.009497869018190385759 294.04755546972626234 13.009497869018190385759 115.48593444572497901
14.009497869018190385759 301.66458353973712292 14.009497869018190385759 117.98562200674574285
15.009497869018190385759 308.83920104182192290 15.009497869018190385759 120.28508521899634331
16.009497869018204596614 315.61571165573599274 16.009497869018204596614 122.40810861709466906
17.009497869018204596614 322.03298216166570000 17.009497869018204596614 124.37661611923081750
18.009497869018204596614 328.12468836343737166 18.009497869018204596614 126.21405873550175158
19.009497869018204596614 333.91943691748605261 19.009497869018204596614 127.92533043346818999
20.009497869018204596614 339.44309516946896110 20.009497869018204596614 129.51970184184273194
21.009497869018204596614 344.71678849174787729 21.009497869018204596614 131.00463295252200169
22.009497869018190385759 349.75856422370594601 22.009497869018190385759 132.39336443840210222
23.009497869018190385759 354.58498175538812802 23.009497869018190385759 133.69029895964814614
24.009497869018190385759 359.21133433005070401 24.009497869018190385759 134.91013737343072876
25.009497869018190385759 363.65199812522763523 25.009497869018190385759 136.05916246657344004
26.009497869018190385759 367.91962052763273050 26.009497869018190385759 137.14374544865921735
27.009497869018204596614 372.02574102765953512 27.009497869018204596614 138.17209862545146848
28.009497869018190385759 375.98036111625566491 28.009497869018190385759 139.14624413743968034
29.009497869018190385759 379.79244351720609529 29.009497869018190385759 140.06135917814876279
30.009497869018190385759 383.47031189653336014 30.009497869018190385759 140.93742253980843770
31.009497869018190385759 387.02159141332867875 31.009497869018190385759 141.76718986017837665
32.009497869018190385759 390.45330477594148988 32.009497869018190385759 142.55404522608955631
33.009497869018218807469 393.77198262271429030 33.009497869018218807469 143.29575977285784916
34.009497869018190385759 396.98385399042848576 34.009497869018190385759 144.01006169484517727
35.009497869018218807469 400.09448148268893419 35.009497869018218807469 144.68782296176067348
36.009497869018190385759 403.10900890567580745 36.009497869018190385759 145.34085262068654743
37.009497869018218807469 406.03220159371653608 37.009497869018218807469 145.96721067962539564
38.009497869018190385759 408.86859543161040165 38.009497869018190385759 146.56957127500405136
39.009497869018190385759 411.62234161973577784 39.009497869018190385759 147.15064673418623897
40.009497869018190385759 414.29732697036081390 40.009497869018190385759 147.70733870525108955
41.009497869018190385759 416.89728165090303946 41.009497869018190385759 148.24814679553793439
42.009497869018190385759 419.42562266656057091 42.009497869018190385759 148.75988775992206570
43.009497869018190385759 421.88557454163486682 43.009497869018190385759 149.26347209701515339
44.009497869018218807469 424.28024292174865195 44.009497869018218807469 149.73042787320383695
46.009497869018218807469 428.88526206803885543 46.009497869018218807469 150.62208505878618325
48.009497869018218807469 433.26049888047339209 48.009497869018218807469 151.44083355075599684
50.009497869018218807469 437.42172617948551760 50.009497869018218807469 152.14749835211688378
52.009497869018190385759 441.38467202042949111 52.009497869018190385759 152.77473975367610137
54.009497869018190385759 445.16429999779393256 54.009497869018190385759 153.33556622087098731
56.009497869018190385759 448.77246764189129635 56.009497869018190385759 153.83223069994193111
58.009497869018190385759 452.21939910083574432 58.009497869018190385759 154.26743419121743273
60.009497869018190385759 455.51527058238423251 60.009497869018190385759 154.72279457858837759
62.009497869018190385759 458.66863791116816174 62.009497869018190385759 155.15755276215898562
64.009497869018190385759 461.68846851136197529 64.009497869018190385759 155.57159396534154894
66.009497869018218807469 464.58685273088434542 66.009497869018218807469 156.00891762370011406
68.009497869018218807469 467.37425712439238623 68.009497869018218807469 156.44753076068892028
70.009497869018218807469 470.05690107284937085 70.009497869018218807469 156.80944071704885801
72.009497869018218807469 472.64128764971968621 72.009497869018218807469 157.05649291054672290
74.009497869018190385759 475.13344710773890256 74.009497869018190385759 157.28038781514368338
76.009497869018190385759 477.53823718657935160 76.009497869018190385759 157.47553461597001956
78.009497869018190385759 479.86189374889789860 78.009497869018190385759 157.71535705854662979
80.009497869018190385759 482.10827599844299129 80.009497869018190385759 157.83479758671501259
82.009497869018190385759 484.27732202859994004 82.009497869018190385759 157.99631799155915246
84.009497869018190385759 486.37001455125670191 84.009497869018190385759 158.12290568151638581
86.009497869018190385759 488.38808568988588377 86.009497869018190385759 158.08964538782930731
88.009497869018218807469 490.33660319162873975 88.009497869018218807469 158.10575023878831757
91.009497869018190385759 493.13356678309577319 91.009497869018190385759 158.04504887291352588
94.009497869018218807469 495.78945714020034075 94.009497869018218807469 158.09782620798790731
97.009497869018190385759 498.32341387914743791 97.009497869018190385759 158.33982927203445001
99.504748934509109403734 500.35184214491636112 99.504748934509109403734 158.45885730047064044
nan nan nan nan

