Time Pressure difference Time.1 Pressure.1 difference.1
(hr) (psi) (hr) (psi)
0.000200000000006639311 0.24310327982653349 0.000200000000006639311 0.19197725452309269
0.000399999999999067768 0.44124743429257796 0.000399999999999067768 0.37974757320900748
0.000600000000005707079 0.61748876914293516 0.000600000000005707079 0.50860532954153526
0.000799999999998135536 0.77889612555763488 0.000799999999998135536 0.62441101634899288
0.001007140329434719206 0.93434505479547880 0.001007140329434719206 0.73382793816742575
0.001267914553963578328 1.11683288317107787 0.001267914553963578328 0.85945701675588926
0.001596209851982166583 1.33013448467930773 0.001596209851982166583 1.00228397222226295
0.002009509145224797066 1.57839414804347355 0.002009509145224797066 1.16397580436748616
0.002529822128138903281 1.86615410144442739 0.002529822128138903281 1.34634150757433702
0.003184857364431081805 2.19839124109243578 0.003184857364431081805 1.55137218430332791
0.004009497869020606231 2.58056407214109562 0.004009497869020606231 1.78128915499250895
0.005047658755842121536 3.01867151279726409 0.005047658755842121536 2.03859828052577008
0.006354625877790454069 3.51932473895238518 0.006354625877790454069 2.32614846276944576
0.008000000000009777068 4.08983276963951869 0.008000000000009777068 2.64719254609487198
0.010071403294347192059 4.73830213321284432 0.010071403294347192059 3.00544944246258616
0.012679145539706837553 5.47375074545223317 0.012679145539706837553 3.40516639195403048
0.015962098519750611558 6.30623580019509600 0.015962098519750611558 3.85117847275280312
0.020095091452091651263 7.24699442162762253 0.020095091452091651263 4.34896021674816691
0.025298221281360611101 8.30859443552798460 0.025298221281360611101 4.90467134397269344
0.031848573644296607199 9.50509483143163258 0.031848573644296607199 5.52522656048517558
0.040094978690177640601 10.85222691247031968 0.040094978690177640601 6.21844584755552532
0.050476587558421215363 12.36762146808915830 0.050476587558421215363 6.99328708415353795
0.063546258777961384112 14.07109349774766294 0.063546258777961384112 7.85996627712892515
0.079999999999998294697 15.98491975249132047 0.079999999999998294697 8.82954317124095667
0.100714032943542974863 18.13392579545051220 0.100714032943542974863 9.91258897651055371
0.126791455396897845276 20.54514108354321777 0.126791455396897845276 11.11699187162026625
0.159620985197506115583 23.24686428174232944 0.159620985197506115583 12.44566370031270530
0.200950914520760193227 26.26724865070243098 0.200950914520760193227 13.89526801789874355
0.252982212813478213320 29.63276483515397075 0.252982212813478213320 15.45698017329163854
0.318485736442795541734 33.36711434610361238 0.318485736442795541734 17.11806850102566102
0.400949786901833249431 37.49039238633011450 0.400949786901833249431 18.86701123337438446
0.504765875584155310207 42.02031343834761401 0.504765875584155310207 20.69520819023233216
0.635462587779443310865 46.97210885220209775 0.635462587779443310865 22.59931511656838765
0.799999999999997157829 52.36074525782723299 0.799999999999997157829 24.58462017351903839
1.007140329435344483500 58.20226345140829949 1.007140329435344483500 26.66925882191176456
1.267914553968893187630 64.51775518224832240 1.267914553968893187630 28.86061840644915222
1.596209851975103788391 71.32376926897374858 1.596209851975103788391 31.20185708895453658
2.009509145207672986544 78.65707102821723140 2.009509145207672986544 33.71207744847877308
2.529822128134711078928 86.53772364840652642 2.529822128134711078928 36.43440487543459483
3.184857364427998049905 95.01467178813771852 3.184857364427998049905 39.42859877708175276
4.009497869018190385759 104.12534197558184701 4.009497869018190385759 42.70959698273192373
5.009497869018204596614 113.57932282842700999 5.009497869018204596614 46.17512813686513340
6.009497869018204596614 121.79880818381101903 6.009497869018204596614 49.21741988673326773
7.009497869018204596614 129.10330967488741294 7.009497869018204596614 51.92700137835255703
8.009497869018204596614 135.69334670792920861 8.009497869018204596614 54.35520117844309596
9.009497869018204596614 141.70448668659116720 9.009497869018204596614 56.54720202407790453
10.009497869018190385759 147.23377086947544967 10.009497869018190385759 58.53281238789104179
11.009497869018190385759 152.35374057874864206 11.009497869018190385759 60.32421589774892823
12.009497869018190385759 157.12052343354437767 12.009497869018190385759 61.96060147022835451
13.009497869018190385759 161.57849891665014752 13.009497869018190385759 63.45927244291630842
14.009497869018190385759 165.76403944866473239 14.009497869018190385759 64.83284537816875570
15.009497869018190385759 169.70647632570700125 15.009497869018190385759 66.09639546467086291
16.009497869018204596614 173.43015432445750434 16.009497869018204596614 67.26299225300897433
17.009497869018204596614 176.95643065698416763 17.009497869018204596614 68.34468288904648148
18.009497869018204596614 180.30381010501650962 18.009497869018204596614 69.35435365236322980
19.009497869018204596614 183.48801196470179775 19.009497869018204596614 70.29469376760158639
20.009497869018204596614 186.52325028681005392 20.009497869018204596614 71.17079742528804331
21.009497869018204596614 189.42113341799057480 21.009497869018204596614 71.98676387491526896
22.009497869018190385759 192.19157833239509614 22.009497869018190385759 72.74986883774462854
23.009497869018190385759 194.84368437921611417 23.009497869018190385759 73.46253156606204016
24.009497869018190385759 197.38585516271078291 24.009497869018190385759 74.13283014924529368
25.009497869018190385759 199.82599036149525773 25.009497869018190385759 74.76421696513287429
26.009497869018190385759 202.17103968735054309 26.009497869018190385759 75.36019297967931152
27.009497869018204596614 204.42734406541404724 27.009497869018204596614 75.92527083722798409
28.009497869018190385759 206.60039929343750487 28.009497869018190385759 76.46056169962611193
29.009497869018190385759 208.69513036885209090 29.009497869018190385759 76.96341544509465393
30.009497869018190385759 210.71611112822421319 30.009497869018190385759 77.44481037696790793
31.009497869018190385759 212.66753158006440572 31.009497869018190385759 77.90076573378524927
32.009497869018190385759 214.55325068749726825 32.009497869018190385759 78.33314106397749299
33.009497869018218807469 216.37685702223754447 33.009497869018218807469 78.74071161119735507
34.009497869018190385759 218.14177342659124292 34.009497869018190385759 79.13321898009427002
35.009497869018218807469 219.85105653926811442 35.009497869018218807469 79.50564733766763936
36.009497869018190385759 221.50753287069417752 36.009497869018190385759 79.86448572987511341
37.009497869018218807469 223.11382096182703094 37.009497869018218807469 80.20866813528913042
38.009497869018190385759 224.67241327160226660 38.009497869018190385759 80.53966398612131172
39.009497869018190385759 226.18559087569411759 39.009497869018190385759 80.85896370042082992
40.009497869018190385759 227.65548956907920797 40.009497869018190385759 81.16486474047513866
41.009497869018190385759 229.08415907072577511 41.009497869018190385759 81.46203762222529576
42.009497869018190385759 230.47347701763658279 42.009497869018190385759 81.74323818084668858
43.009497869018190385759 231.82521527897580427 43.009497869018190385759 82.01995669032541514
44.009497869018218807469 233.14108040032959934 44.009497869018218807469 82.27654788441472533
46.009497869018218807469 235.67152851084486542 46.009497869018218807469 82.76651158897433902
48.009497869018218807469 238.07571172341650367 48.009497869018218807469 83.21641212329919313
50.009497869018218807469 240.36229716892819397 50.009497869018218807469 83.60472291084758467
52.009497869018190385759 242.53992737994903450 52.009497869018190385759 83.94939071113047646
54.009497869018190385759 244.61682481944774281 54.009497869018190385759 84.25756364791045883
56.009497869018190385759 246.59950517481257748 56.009497869018190385759 84.53047971029808139
58.009497869018190385759 248.49358659342908595 58.009497869018190385759 84.76962309216109759
60.009497869018190385759 250.30466087955977628 60.009497869018190385759 85.01984264504929456
62.009497869018190385759 252.03742944042670615 62.009497869018190385759 85.25874133128679944
64.009497869018190385759 253.69681985631513044 64.009497869018190385759 85.48625608138566179
66.009497869018218807469 255.28947574738694470 66.009497869018218807469 85.72656449049804905
68.009497869018218807469 256.82114846290141941 68.009497869018218807469 85.96758146534268974
70.009497869018218807469 258.29525553931324566 70.009497869018218807469 86.16645020750316064
72.009497869018218807469 259.71537040149593167 72.009497869018218807469 86.30220485615407711
74.009497869018190385759 261.08480666035006834 74.009497869018190385759 86.42523462439028492
76.009497869018190385759 262.40623363337141427 76.009497869018190385759 86.53246737147277656
78.009497869018190385759 263.68307791366987658 78.009497869018190385759 86.66424928755142787
80.009497869018190385759 264.91746012539977073 80.009497869018190385759 86.72988160073437314
82.009497869018190385759 266.10934625100975381 82.009497869018190385759 86.81863671559131035
84.009497869018190385759 267.25927628856720730 84.009497869018190385759 86.88819637879593927
86.009497869018190385759 268.36820203619271297 86.009497869018190385759 86.86991991899373033
88.009497869018218807469 269.43890821003412839 88.009497869018218807469 86.87876949993678011
91.009497869018190385759 270.97583368425495109 91.009497869018190385759 86.84541423002278293
94.009497869018218807469 272.43523971979442422 94.009497869018218807469 86.87441526206508513
97.009497869018190385759 273.82764349456738273 97.009497869018190385759 87.00739542494862633
99.504748934509109403734 274.94226046126686924 99.504748934509109403734 87.07280107041643191
nan nan nan nan

