Time Pressure difference Time.1 Pressure.1 difference.1
(hr) (psi) (hr) (psi)
0.000200000000006639311 0.46779926170275499 0.000200000000006639311 0.36941837228072927
0.000399999999999067768 0.84908448844289808 0.000399999999999067768 0.73074141372072721
0.000600000000005707079 1.18822251399045231 0.000600000000005707079 0.97870007277313720
0.000799999999998135536 1.49881578207826860 0.000799999999998135536 1.20154286958017686
0.001007140329434719206 1.79794335609469424 0.001007140329434719206 1.41209188101669136
0.001267914553963578328 2.14910139659813160 0.001267914553963578328 1.65383765365297752
0.001596209851982166583 2.55955382561005207 0.001596209851982166583 1.92867699093422429
0.002009509145224797066 3.03727542325859057 0.002009509145224797066 2.23981767054526681
0.002529822128138903281 3.59100671740089528 0.002529822128138903281 2.59074070778664867
0.003184857364431081805 4.23032465975228433 0.003184857364431081805 2.98527754525209543
0.004009497869020606231 4.96573295344122023 0.004009497869020606231 3.42770262984198171
0.005047658755842121536 5.80877520869865194 0.005047658755842121536 3.92283794451042445
0.006354625877790454069 6.77217319218774882 0.006354625877790454069 4.47616557979394702
0.008000000000009777068 7.86999151755698634 0.008000000000009777068 5.09394492551415379
0.010071403294347192059 9.11782943127380108 0.010071403294347192059 5.78333221695803168
0.012679145539706837553 10.53303994620964978 0.012679145539706837553 6.55250034169744300
0.015962098519750611558 12.13497593927881546 0.015962098519750611558 7.41075335357393161
0.020095091452091651263 13.94526080610850549 0.020095091452091651263 8.36862579567467080
0.025298221281360611101 15.98807858742591037 0.025298221281360611101 9.43797070628688139
0.031848573644296607199 18.29048274351204384 0.031848573644296607199 10.63209392970646050
0.040094978690177640601 20.88274473757343586 0.040094978690177640601 11.96604331500893359
0.050476587558421215363 23.79879118010890338 0.050476587558421215363 13.45705634731372768
0.063546258777961384112 27.07675171759797905 0.063546258777961384112 15.12479150455356880
0.079999999999998294697 30.75949310074700804 0.079999999999998294697 16.99053085432006682
0.100714032943542974863 34.89478671343871952 0.100714032943542974863 19.07461638560908668
0.126791455396897845276 39.53464485266671602 0.126791455396897845276 21.39222717854865863
0.159620985197506115583 44.73352212961905394 0.159620985197506115583 23.94896644159389965
0.200950914520760193227 50.54559335657361174 0.200950914520760193227 26.73841391433779080
0.252982212813478213320 57.02179551829889448 0.252982212813478213320 29.74358847967607389
0.318485736442795541734 64.20773700542653728 0.318485736442795541734 32.93999082312248561
0.400949786901833249431 72.14208665463523573 0.400949786901833249431 36.30544981461337528
0.504765875584155310207 80.85893212548876363 0.504765875584155310207 39.82341628250973997
0.635462587779443310865 90.38758283047765474 0.635462587779443310865 43.48745493710418231
0.799999999999997157829 100.75683878594954024 0.799999999999997157829 47.30774169160191889
1.007140329435344483500 111.99756700701806267 1.007140329435344483500 51.31917428655083313
1.267914553968893187630 124.15035396688517721 1.267914553968893187630 55.53596805627421418
1.596209851975103788391 137.24704425909570205 1.596209851975103788391 60.04117147404567589
2.009509145207672986544 151.35838472009422162 2.009509145207672986544 64.87154328858707686
2.529822128134711078928 166.52298258192064395 2.529822128134711078928 70.11006891173705924
3.184857364427998049905 182.83502116934073456 3.184857364427998049905 75.87174229428002548
4.009497869018190385759 200.36651967625016368 4.009497869018190385759 82.18530803204551205
5.009497869018204596614 218.55864471162067275 5.009497869018204596614 88.85396719809295973
6.009497869018204596614 234.37525230148492028 6.009497869018204596614 94.70819440345279361
7.009497869018204596614 248.43117292530553186 7.009497869018204596614 99.92219325286119158
8.009497869018204596614 261.11226246408313045 8.009497869018204596614 104.59473438253931477
9.009497869018204596614 272.67939083033343195 9.009497869018204596614 108.81276211943973919
10.009497869018190385759 283.31929276972164189 10.009497869018190385759 112.63363637043262599
11.009497869018190385759 293.17155824161289956 11.009497869018190385759 116.08080187112521742
12.009497869018190385759 302.34419261232955023 12.009497869018190385759 119.22966914767179958
13.009497869018190385759 310.92259452107356310 13.009497869018190385759 122.11353470085984441
14.009497869018190385759 318.97675476152977581 14.009497869018190385759 124.75667635433516978
15.009497869018190385759 326.56311501839707034 15.009497869018190385759 127.18810302209512031
16.009497869018204596614 333.72852150685429251 16.009497869018204596614 129.43296420487629916
17.009497869018204596614 340.51407152531942302 17.009497869018204596614 131.51444200842627197
18.009497869018204596614 346.95537349189862653 18.009497869018204596614 133.45733326838563926
19.009497869018204596614 353.08267576497451046 19.009497869018204596614 135.26681281128557544
20.009497869018204596614 358.92333018636816178 20.009497869018204596614 136.95268329618090775
21.009497869018204596614 364.49967448840487805 21.009497869018204596614 138.52283283501969890
22.009497869018190385759 369.83079172578379712 22.009497869018190385759 139.99126196714829007
23.009497869018190385759 374.93419161222527691 23.009497869018190385759 141.36262601615592871
24.009497869018190385759 379.82604505200481526 24.009497869018190385759 142.65246950390019265
25.009497869018190385759 384.52155325436552857 25.009497869018190385759 143.86743577885886225
26.009497869018190385759 389.03408942448390917 26.009497869018190385759 145.01426168674581163
27.009497869018204596614 393.37585529036596199 27.009497869018204596614 146.10163082777293653
28.009497869018190385759 397.55742631661468067 28.009497869018190385759 147.13168139066434037
29.009497869018190385759 401.58827958706007166 29.009497869018190385759 148.09931379382445016
30.009497869018190385759 405.47721645300589444 30.009497869018190385759 149.02565338857795041
31.009497869018190385759 409.23229967234323112 31.009497869018190385759 149.90304006736221254
32.009497869018190385759 412.86095497829109036 32.009497869018190385759 150.73505212572169398
33.009497869018218807469 416.37008779474956555 33.009497869018218807469 151.51933278708210651
34.009497869018190385759 419.76628463550326842 34.009497869018190385759 152.27462764576887366
35.009497869018218807469 423.05542733535401112 35.009497869018218807469 152.99128482470248969
36.009497869018190385759 426.24295489739324694 36.009497869018190385759 153.68179107811477024
37.009497869018218807469 429.33390613281073911 37.009497869018218807469 154.34409508017779444
38.009497869018190385759 432.33307723543310885 38.009497869018190385759 154.98102443282351715
39.009497869018190385759 435.24485763808502270 39.009497869018190385759 155.59544712065314798
40.009497869018190385759 438.07335721256237093 40.009497869018190385759 156.18408698101873711
41.009497869018190385759 440.82252019614855953 41.009497869018190385759 156.75593140360322764
42.009497869018190385759 443.49595969190124833 42.009497869018190385759 157.29704057254309646
43.009497869018190385759 446.09708527573150150 43.009497869018190385759 157.82952501506480303
44.009497869018218807469 448.62918082256635444 44.009497869018218807469 158.32327882718968226
46.009497869018218807469 453.49847653392345137 46.009497869018218807469 159.26610715685140462
48.009497869018218807469 458.12480297691371334 48.009497869018218807469 160.13184264979506111
50.009497869018218807469 462.52483815535271106 50.009497869018218807469 160.87906210259703244
52.009497869018190385759 466.71521273896200910 52.009497869018190385759 161.54230014126153492
54.009497869018190385759 470.71174906509918401 54.009497869018190385759 162.13531177156659169
56.009497869018190385759 474.52698515362106946 56.009497869018190385759 162.66047923365451311
58.009497869018190385759 478.17173190432703223 58.009497869018190385759 163.12065853504628876
60.009497869018190385759 481.65674952541922949 60.009497869018190385759 163.60215151279717816
62.009497869018190385759 484.99108485011618086 62.009497869018190385759 164.06185995080514317
64.009497869018190385759 488.18421993238700907 64.009497869018190385759 164.49966248559070436
66.009497869018218807469 491.24893897082029071 66.009497869018218807469 164.96208362792967250
68.009497869018218807469 494.19630918318108570 68.009497869018218807469 165.42586825054195288
70.009497869018218807469 497.03290687329985076 70.009497869018218807469 165.80854778832852503
72.009497869018218807469 499.76560831828328446 72.009497869018218807469 166.06977801301712816
74.009497869018190385759 502.40078983989036487 74.009497869018190385759 166.30652197957087424
76.009497869018190385759 504.94358795768863502 76.009497869018190385759 166.51286802291235745
78.009497869018190385759 507.40059640306702704 78.009497869018190385759 166.76645358988358225
80.009497869018190385759 509.77589585488163948 80.009497869018190385759 166.89274866773166650
82.009497869018190385759 512.06942085377067997 82.009497869018190385759 167.06353853626842465
84.009497869018190385759 514.28221050828722127 84.009497869018190385759 167.19739094300942384
86.009497869018190385759 516.41609634640735749 86.009497869018190385759 167.16222188067462184
88.009497869018218807469 518.47643694724581565 88.009497869018218807469 167.17925096985220534
91.009497869018190385759 521.43391494855313795 91.009497869018190385759 167.11506602487415307
94.009497869018218807469 524.24222369057054038 94.009497869018218807469 167.17087218836024931
97.009497869018190385759 526.92160118928495649 97.009497869018190385759 167.42676352007086393
99.504748934509109403734 529.06643853773812225 99.504748934509109403734 167.55262242531830452
nan nan nan nan

