Time Pressure difference Time.1 Pressure.1 difference.1
(hr) (psi) (hr) (psi)
0.000200000000006639311 0.24945062394733067 0.000200000000006639311 0.19698971547669822
0.000399999999999067768 0.45276825503128759 0.000399999999999067768 0.38966265344945156
0.000600000000005707079 0.63361119131376897 0.000600000000005707079 0.52188484206220198
0.000799999999998135536 0.79923283901866971 0.000799999999998135536 0.64071417604478897
0.001007140329434719206 0.95874048703556969 0.001007140329434719206 0.75298793655299823
0.001267914553963578328 1.14599301066901726 0.001267914553963578328 0.88189714774168271
0.001596209851982166583 1.36486384459260557 0.001596209851982166583 1.02845326653616032
0.002009509145224797066 1.61960548350152789 0.002009509145224797066 1.19436681753634999
0.002529822128138903281 1.91487875161268906 0.002529822128138903281 1.38149402735434590
0.003184857364431081805 2.25579049020712086 0.003184857364431081805 1.59187798546007286
0.004009497869020606231 2.64794172415522322 0.004009497869020606231 1.82779801021424548
0.005047658755842121536 3.09748800138204894 0.005047658755842121536 2.09182538967787890
0.006354625877790454069 3.61121311333756490 0.006354625877790454069 2.38688340957804801
0.008000000000009777068 4.19661691506091650 0.008000000000009777068 2.71630984494852390
0.010071403294347192059 4.86201759361004626 0.010071403294347192059 3.08392070727884171
0.012679145539706837553 5.61666851948492862 0.012679145539706837553 3.49407413064734751
0.015962098519750611558 6.47088947644039880 0.015962098519750611558 3.95173143548786276
0.020095091452091651263 7.43621098616098042 0.020095091452091651263 4.46251009185908476
0.025298221281360611101 8.52552901609007208 0.025298221281360611101 5.03273064799286818
0.031848573644296607199 9.75326963120791568 0.031848573644296607199 5.66948835057617284
0.040094978690177640601 11.13557487363142506 0.040094978690177640601 6.38080735793556464
0.050476587558421215363 12.69053586673378398 0.050476587558421215363 7.17587943622021029
0.063546258777961384112 14.43848497288467669 0.063546258777961384112 8.06518732875109023
0.079999999999998294697 16.40228058153808988 0.079999999999998294697 9.06007954646918101
0.100714032943542974863 18.60739644285131078 0.100714032943542974863 10.17140331010090826
0.126791455396897845276 21.08156774368794828 0.126791455396897845276 11.40725275599677424
0.159620985197506115583 23.85383201755805871 0.159620985197506115583 12.77061575515115699
0.200950914520760193227 26.95307759719596774 0.200950914520760193227 14.25806874943657121
0.252982212813478213320 30.40646626688122822 0.252982212813478213320 15.86055667912170541
0.318485736442795541734 34.23831837602799055 0.318485736442795541734 17.56501545927698160
0.400949786901833249431 38.46925380633873459 0.400949786901833249431 19.35962249273141822
0.504765875584155310207 43.11744955945329849 0.504765875584155310207 21.23555305159610285
0.635462587779443310865 48.19853467079745002 0.635462587779443310865 23.18937556347617601
0.799999999999997157829 53.72786654393238592 0.799999999999997157829 25.22651626160048011
1.007140329435344483500 59.72190479478710046 1.007140329435344483500 27.36558411752303854
1.267914553968893187630 66.20229187107987912 1.267914553968893187630 29.61415935700918212
1.596209851975103788391 73.18600867547436906 1.596209851975103788391 32.01652698683846410
2.009509145207672986544 80.71078045454143535 2.009509145207672986544 34.59228834791685614
2.529822128134711078928 88.79719423974873393 2.529822128134711078928 37.38569481996291444
3.184857364427998049905 97.49547261811521537 3.184857364427998049905 40.45806610807605352
4.009497869018190385759 106.84401931175891320 4.009497869018190385759 43.82473006322101128
5.009497869018204596614 116.54484039574886367 5.009497869018204596614 47.38074505949869319
6.009497869018204596614 124.97893372385830446 6.009497869018204596614 50.50247001432421712
7.009497869018204596614 132.47415326953199610 7.009497869018204596614 53.28279775898839432
8.009497869018204596614 139.23625393267934669 8.009497869018204596614 55.77439703166615459
9.009497869018204596614 145.40434273584943980 9.009497869018204596614 58.02363027535931650
10.009497869018190385759 151.07799465196825395 10.009497869018190385759 60.06108425180465105
11.009497869018190385759 156.33164503250185362 11.009497869018190385759 61.89926069925673602
12.009497869018190385759 161.22288696966825228 12.009497869018190385759 63.57837174360247445
13.009497869018190385759 165.79725867948695850 13.009497869018190385759 65.11617250670002477
14.009497869018190385759 170.09208225411285298 14.009497869018190385759 66.52560896506611243
15.009497869018190385759 174.13745481985080232 15.009497869018190385759 67.82214991544556426
16.009497869018204596614 177.95835678723707929 16.009497869018204596614 69.01920614995437120
17.009497869018204596614 181.57670299789759838 17.009497869018204596614 70.12913936134535220
18.009497869018204596614 185.01148138713182334 18.009497869018204596614 71.16517228558419106
19.009497869018204596614 188.27882167657389800 19.009497869018204596614 72.13006436205594696
20.009497869018204596614 191.39330904103485409 20.009497869018204596614 73.02904278887258727
21.009497869018204596614 194.36685491715482499 21.009497869018204596614 73.86631384553967905
22.009497869018190385759 197.20963520791454471 22.009497869018190385759 74.64934321993118260
23.009497869018190385759 199.93098684342544402 23.009497869018190385759 75.38061333018897869
24.009497869018190385759 202.53953284319931072 24.009497869018190385759 76.06841318186265255
25.009497869018190385759 205.04337914377973107 25.009497869018190385759 76.71628529320423695
26.009497869018190385759 207.44965691156335197 26.009497869018190385759 77.32782203920096720
27.009497869018204596614 209.76487263109066816 27.009497869018204596614 77.90765388780835110
28.009497869018190385759 211.99466559352723039 28.009497869018190385759 78.45692101293226983
29.009497869018190385759 214.14408938631561341 29.009497869018190385759 78.97290409901357577
30.009497869018190385759 216.21783726734233255 30.009497869018190385759 79.46686808916028610
31.009497869018190385759 218.22020864481802960 31.009497869018190385759 79.93472828558120113
32.009497869018190385759 220.15516323808463994 32.009497869018190385759 80.37839278888550609
33.009497869018218807469 222.02638331524636328 33.009497869018218807469 80.79660486475341941
34.009497869018190385759 223.83738108785993859 34.009497869018190385759 81.19936046782518702
35.009497869018218807469 225.59129300243435523 35.009497869018218807469 81.58151280340308631
36.009497869018190385759 227.29101936862352318 36.009497869018190385759 81.94972034423217622
37.009497869018218807469 228.93924709660058170 37.009497869018218807469 82.30288923542723012
38.009497869018190385759 230.53853372255795762 38.009497869018190385759 82.64252727557618527
39.009497869018190385759 232.09121988028144301 39.009497869018190385759 82.97016379703757138
40.009497869018190385759 233.59949712962955459 40.009497869018190385759 83.28405180941705055
41.009497869018190385759 235.06546870703715513 41.009497869018190385759 83.58898377424162618
42.009497869018190385759 236.49106127397175214 42.009497869018190385759 83.87752638400196759
43.009497869018190385759 237.87809296249997715 43.009497869018190385759 84.16146991983781334
44.009497869018218807469 239.22831487553403917 44.009497869018218807469 84.42476062291119376
46.009497869018218807469 241.82483212731600020 46.009497869018218807469 84.92751711349062305
48.009497869018218807469 244.29178774752659820 48.009497869018218807469 85.38916439805896630
50.009497869018218807469 246.63807516289497812 50.009497869018218807469 85.78761384846762894
52.009497869018190385759 248.87256255958214979 52.009497869018190385759 86.14128080802683485
54.009497869018190385759 251.00368708627405567 54.009497869018190385759 86.45750003558437413
56.009497869018190385759 253.03813455274502076 56.009497869018190385759 86.73754184372623399
58.009497869018190385759 254.98166979430195056 58.009497869018190385759 86.98292917811829739
60.009497869018190385759 256.84003061531853973 60.009497869018190385759 87.23968187860148760
62.009497869018190385759 258.61804117516368251 62.009497869018190385759 87.48481812844833883
64.009497869018190385759 260.32075771157138888 64.009497869018190385759 87.71827321144795064
66.009497869018218807469 261.95499730737094524 66.009497869018218807469 87.96485599155543866
68.009497869018218807469 263.52666147759862270 68.009497869018218807469 88.21216583780594078
70.009497869018218807469 265.03925698942583722 70.009497869018218807469 88.41622697532309871
72.009497869018218807469 266.49645056863681702 72.009497869018218807469 88.55552613177168553
74.009497869018190385759 267.90164234338794813 74.009497869018190385759 88.68176816549708974
76.009497869018190385759 269.25757132614876355 76.009497869018190385759 88.79180072320835393
78.009497869018190385759 270.56775357721215869 78.009497869018190385759 88.92702342038568020
80.009497869018190385759 271.83436508950944699 80.009497869018190385759 88.99436937098852241
82.009497869018190385759 273.05737095730245301 82.009497869018190385759 89.08544185176864971
84.009497869018190385759 274.23732527782476609 84.009497869018190385759 89.15681769416920588
86.009497869018190385759 275.37520470032308140 86.009497869018190385759 89.13806404220504476
88.009497869018218807469 276.47386664893838315 88.009497869018218807469 89.14714468270274494
91.009497869018190385759 278.05092072561927807 91.009497869018190385759 89.11291851801293262
94.009497869018218807469 279.54843135738701676 94.009497869018218807469 89.14267675715817063
97.009497869018190385759 280.97719032210181922 97.009497869018190385759 89.27912898695772981
99.504748934509109403734 282.12090955947229531 99.504748934509109403734 89.34624235162834793
nan nan nan nan

