Time Pressure difference Time.1 Pressure.1 difference.1
(hr) (psi) (hr) (psi)
0.000200000000006639311 0.45383510463700111 0.000200000000006639311 0.35839095818279704
0.000399999999999067768 0.82373868281773688 0.000399999999999067768 0.70892823719175024
0.000600000000005707079 1.15275318521461778 0.000600000000005707079 0.94948514522767036
0.000799999999998135536 1.45407501246399185 0.000799999999998135536 1.16567591824942540
0.001007140329434719206 1.74427340516649454 0.001007140329434719206 1.36993988456843185
0.001267914553963578328 2.08494911610266520 0.001267914553963578328 1.60446936548423191
0.001596209851982166583 2.48314923380079655 0.001596209851982166583 1.87110454344365040
0.002009509145224797066 2.94661048525087121 0.002009509145224797066 2.17295744157376669
0.002529822128138903281 3.48381248703071966 0.002529822128138903281 2.51340516427062921
0.003184857364431081805 4.10404631169997725 0.003184857364431081805 2.89616478270725697
0.004009497869020606231 4.81750211901013969 0.004009497869020606231 3.32538314835416138
0.005047658755842121536 5.63537893381212474 0.005047658755842121536 3.80573830437578486
0.006354625877790454069 6.57001876854035327 0.006354625877790454069 4.34254869681502331
0.008000000000009777068 7.63506639762991224 0.008000000000009777068 4.94188686803611876
0.010071403294347192059 8.84565541839995539 0.010071403294347192059 5.61069543436226947
0.012679145539706837553 10.21862084333771925 0.012679145539706837553 6.35690331657214625
0.015962098519750611558 11.77273785153914787 0.015962098519750611558 7.18953683555679834
0.020095091452091651263 13.52898436413511796 0.020095091452091651263 8.11881607043065046
0.025298221281360611101 15.51082251018931579 0.025298221281360611101 9.15624023744249627
0.031848573644296607199 17.74449818400422174 0.031848573644296607199 10.31471799150626723
0.040094978690177640601 20.25937922301900329 0.040094978690177640601 11.60884799217284780
0.050476587558421215363 23.08837950309072795 0.050476587558421215363 13.05535317276704887
0.063546258777961384112 26.26849047229654843 0.063546258777961384112 14.67330519098480579
0.079999999999998294697 29.84129927684411143 0.079999999999998294697 16.48335082881797575
0.100714032943542974863 33.85315128915696192 0.100714032943542974863 18.50522485171030596
0.126791455396897845276 38.35450620034829683 0.126791455396897845276 20.75365323292034248
0.159620985197506115583 43.39819311082445807 0.159620985197506115583 23.23407192094930451
0.200950914520760193227 49.03676967428783229 0.200950914520760193227 25.94025230495457635
0.252982212813478213320 55.31965236849892875 0.252982212813478213320 28.85572016684992036
0.318485736442795541734 62.29108813959290814 0.318485736442795541734 31.95670751496957251
0.400949786901833249431 69.98859153061627580 0.400949786901833249431 35.22170504402789959
0.504765875584155310207 78.44523265905624498 0.504765875584155310207 38.63465758750945156
0.635462587779443310865 87.68944602956787548 0.635462587779443310865 42.18932195390704720
0.799999999999997157829 97.74917195651821089 0.799999999999997157829 45.89557029782275066
1.007140329435344483500 108.65435605158468491 1.007140329435344483500 49.78725863620603320
1.267914553968893187630 120.44437325145575812 1.267914553968893187630 53.87817796504214130
1.596209851975103788391 133.15011756479432847 1.596209851975103788391 58.24889769870102896
2.009509145207672986544 146.84022398218098715 2.009509145207672986544 62.93507930982329412
2.529822128134711078928 161.55214728096780163 2.529822128134711078928 68.01723103377474899
3.184857364427998049905 177.37725934339027845 3.184857364427998049905 73.60691416609256521
4.009497869018190385759 194.38542953666060953 4.009497869018190385759 79.73201525496952513
5.009497869018204596614 212.03450606351256624 5.009497869018204596614 86.20160996829913813
6.009497869018204596614 227.37897611338092929 6.009497869018204596614 91.88108412275271064
7.009497869018204596614 241.01531701708748301 7.009497869018204596614 96.93944121546235237
8.009497869018204596614 253.31786656963285509 8.009497869018204596614 101.47250350544859998
9.009497869018204596614 264.53970752196522653 9.009497869018204596614 105.56461996662062575
10.009497869018190385759 274.86200044823743838 10.009497869018190385759 109.27143826982270980
11.009497869018190385759 284.42016844335580572 11.009497869018190385759 112.61570330780804738
12.009497869018190385759 293.31899283285702040 12.009497869018190385759 115.67057454624877266
13.009497869018190385759 301.64132304283248232 13.009497869018190385759 118.46835456053565849
14.009497869018190385759 309.45506058954379114 14.009497869018190385759 121.03259646316098497
15.009497869018190385759 316.81496233128075346 15.009497869018190385759 123.39144323039077733
16.009497869018204596614 323.76647608873923900 16.009497869018204596614 125.56929363159638058
17.009497869018204596614 330.34947237530985831 17.009497869018204596614 127.58863776936877343
18.009497869018204596614 336.59849667124490225 18.009497869018204596614 129.47353227529950459
19.009497869018204596614 342.54289439885582169 19.009497869018204596614 131.22899750348602765
20.009497869018204596614 348.20920092707353888 20.009497869018204596614 132.86454349629491389
21.009497869018204596614 353.61908719024353331 21.009497869018204596614 134.38782289964598249
22.009497869018190385759 358.79106659964094206 22.009497869018190385759 135.81241832633787681
23.009497869018190385759 363.74212619096482513 23.009497869018190385759 137.14284613507666677
24.009497869018190385759 368.48795415493003702 24.009497869018190385759 138.39418683214196903
25.009497869018190385759 373.04329793333971566 25.009497869018190385759 139.57288545710184735
26.009497869018190385759 377.42113153121579217 26.009497869018190385759 140.68547775579818904
27.009497869018204596614 381.63329244587743005 27.009497869018204596614 141.74038811649609215
28.009497869018190385759 385.69004045641725043 28.009497869018190385759 142.73969090139075888
29.009497869018190385759 389.60056974864033918 29.009497869018190385759 143.67843875520281927
30.009497869018190385759 393.37341894694600342 30.009497869018190385759 144.57712642175471274
31.009497869018190385759 397.01641012988523016 31.009497869018190385759 145.42832245341111275
32.009497869018190385759 400.53674736699883852 32.009497869018190385759 146.23549833092403105
33.009497869018218807469 403.94112995013017553 33.009497869018218807469 146.99636762925877065
34.009497869018190385759 407.23594778071208111 34.009497869018190385759 147.72911637276081365
35.009497869018218807469 410.42690711638823586 35.009497869018218807469 148.42438080008449219
36.009497869018190385759 413.51928460194864101 36.009497869018190385759 149.09427492652923775
37.009497869018218807469 416.51796863630897860 37.009497869018218807469 149.73680865987395805
38.009497869018190385759 419.42761224333065684 38.009497869018190385759 150.35472519602282659
39.009497869018190385759 422.25247382799295792 39.009497869018190385759 150.95080690809632529
40.009497869018190385759 424.99654057935151741 40.009497869018190385759 151.52187542934652242
41.009497869018190385759 427.66363899626350076 41.009497869018190385759 152.07664986916731209
42.009497869018190385759 430.25727432796384164 42.009497869018190385759 152.60160652560153949
43.009497869018190385759 432.78075437197833253 43.009497869018190385759 153.11819591013750141
44.009497869018218807469 435.23726497711663797 44.009497869018218807469 153.59721080249747160
46.009497869018218807469 439.96120857768687529 46.009497869018218807469 154.51189500291550871
48.009497869018218807469 444.44943572387154518 48.009497869018218807469 155.35178764532355444
50.009497869018218807469 448.71812656862573476 50.009497869018218807469 156.07670203983298052
52.009497869018190385759 452.78341534376909294 52.009497869018190385759 156.72014192808956068
54.009497869018190385759 456.66065207808128434 54.009497869018190385759 157.29545171868403486
56.009497869018190385759 460.36200052216969425 56.009497869018190385759 157.80494254011262001
58.009497869018190385759 463.89794886240679261 58.009497869018190385759 158.25138514594044636
60.009497869018190385759 467.27893610674999536 60.009497869018190385759 158.71850519898234211
62.009497869018190385759 470.51373903369477603 62.009497869018190385759 159.16449099704976788
64.009497869018190385759 473.61155665082321775 64.009497869018190385759 159.58922479945366035
66.009497869018218807469 476.58479153885554069 66.009497869018218807469 160.03784232560343526
68.009497869018218807469 479.44418055084730668 68.009497869018218807469 160.48778263112276932
70.009497869018218807469 482.19610368305211523 70.009497869018218807469 160.85903889912469822
72.009497869018218807469 484.84723195057330258 72.009497869018218807469 161.11247120665839816
74.009497869018190385759 487.40375133720698386 74.009497869018190385759 161.34214818913591216
76.009497869018190385759 489.87064503357851208 76.009497869018190385759 161.54233464909410145
78.009497869018190385759 492.25430994327393819 78.009497869018190385759 161.78835049764825271
80.009497869018190385759 494.55870493384037445 80.009497869018190385759 161.91087557317251822
82.009497869018190385759 496.78376649992685543 82.009497869018190385759 162.07656723667832921
84.009497869018190385759 498.93050273192045552 84.009497869018190385759 162.20642404918825719
86.009497869018190385759 501.00069048532060378 86.009497869018190385759 162.17230480960969885
88.009497869018218807469 502.99952838165637559 88.009497869018218807469 162.18882556776708270
91.009497869018190385759 505.86872345755165270 91.009497869018190385759 162.12655659129580954
94.009497869018218807469 508.59320208786692774 94.009497869018218807469 162.18069689915546405
97.009497869018190385759 511.19259816870930990 97.009497869018190385759 162.42894968365084196
99.504748934509109403734 513.27341052168617352 99.504748934509109403734 162.55105160665206654
nan nan nan nan

