Time Pressure difference Time.1 Pressure.1 difference.1
(hr) (psi) (hr) (psi)
0.000200000000006639311 0.18470771391519905 0.000200000000006639311 0.14586261374992160
0.000399999999999067768 0.33525588349644958 0.000399999999999067768 0.28852883499692211
0.000600000000005707079 0.46916248517126402 0.000600000000005707079 0.38643381435140156
0.000799999999998135536 0.59179836171611422 0.000799999999998135536 0.47442194714766822
0.001007140329434719206 0.70990707818664323 0.001007140329434719206 0.55755595302015892
0.001267914553963578328 0.84855971019003573 0.001267914553963578328 0.65300781168658950
0.001596209851982166583 1.01062437347696754 0.001596209851982166583 0.76152646453440886
0.002009509145224797066 1.19924986182937543 0.002009509145224797066 0.88437848321393853
0.002529822128138903281 1.41788731989641859 0.002529822128138903281 1.02293832559825604
0.003184857364431081805 1.67031814923733357 0.003184857364431081805 1.17871881366127518
0.004009497869020606231 1.96068967361111945 0.004009497869020606231 1.35340768695253288
0.005047658755842121536 2.29355981781724250 0.005047658755842121536 1.54890887632636831
0.006354625877790454069 2.67395169460873117 0.006354625877790454069 1.76738695213031027
0.008000000000009777068 3.10741863176266353 0.008000000000009777068 2.01131339664127351
0.010071403294347192059 3.60011989755858375 0.010071403294347192059 2.28351380615303556
0.012679145539706837553 4.15890722435143534 0.012679145539706837553 2.58721519597551719
0.015962098519750611558 4.79142197873831055 0.015962098519750611558 2.92609121559024965
0.020095091452091651263 5.50620202792072622 0.020095091452091651263 3.30430136572771938
0.025298221281360611101 6.31279629435677148 0.025298221281360611101 3.72652574698708561
0.031848573644296607199 7.22188667348983060 0.031848573644296607199 4.19801809164800499
0.040094978690177640601 8.24542566978815472 0.040094978690177640601 4.72471995205915896
0.050476587558421215363 9.39680900055860313 0.050476587558421215363 5.31343744514015626
0.063546258777961384112 10.69109192648712714 0.063546258777961384112 5.97193260220500566
0.079999999999998294697 12.14520012526102910 0.079999999999998294697 6.70860851914130141
0.100714032943542974863 13.77799583936318228 0.100714032943542974863 7.53149710747929912
0.126791455396897845276 15.61001581021168683 0.126791455396897845276 8.44659173535639063
0.159620985197506115583 17.66276111223764289 0.159620985197506115583 9.45610479579894658
0.200950914520760193227 19.95762234296190130 0.200950914520760193227 10.55750128775074259
0.252982212813478213320 22.51471166326320272 0.252982212813478213320 11.74407631965500265
0.318485736442795541734 25.35203727079935021 0.318485736442795541734 13.00615648511349143
0.400949786901833249431 28.48486732225081752 0.400949786901833249431 14.33498764728967600
0.504765875584155310207 31.92666112417534308 0.504765875584155310207 15.72403546568566490
0.635462587779443310865 35.68899132112483130 0.635462587779443310865 17.17075900501671271
0.799999999999997157829 39.78322942565986153 0.799999999999997157829 18.67917616316982077
1.007140329435344483500 44.22156309232327942 1.007140329435344483500 20.26306610228805027
1.267914553968893187630 49.02001764499807734 1.267914553968893187630 21.92804166129687360
1.596209851975103788391 54.19116672916803878 1.596209851975103788391 23.70689402842237570
2.009509145207672986544 59.76294430603449825 2.009509145207672986544 25.61413717364835918
2.529822128134711078928 65.75059420805821730 2.529822128134711078928 27.68253738577406153
3.184857364427998049905 72.19130415234485554 3.184857364427998049905 29.95749933193418002
4.009497869018190385759 79.11351048275277265 4.009497869018190385759 32.45037264223235240
5.009497869018204596614 86.29656120906595618 5.009497869018204596614 35.08345244863643586
6.009497869018204596614 92.54165321537600164 6.009497869018204596614 37.39495871289656037
7.009497869018204596614 98.09154860415726773 7.009497869018204596614 39.45367467650285676
8.009497869018204596614 103.09860024022820824 8.009497869018204596614 41.29859932879097073
9.009497869018204596614 107.66581103341522407 9.009497869018204596614 42.96406211228895700
10.009497869018190385759 111.86691207054137465 10.009497869018190385759 44.47271123988588215
11.009497869018190385759 115.75701960421892522 11.009497869018190385759 45.83380372387711787
12.009497869018190385759 119.37877890120475399 12.009497869018190385759 47.07711495518656619
13.009497869018190385759 122.76590909855141831 13.009497869018190385759 48.21579185610612228
14.009497869018190385759 125.94604563854160517 14.009497869018190385759 49.25942037871306667
15.009497869018190385759 128.94147417958419055 15.009497869018190385759 50.21945451754366019
16.009497869018204596614 131.77069166688545465 16.009497869018204596614 51.10582440111125635
17.009497869018204596614 134.44992512058067291 17.009497869018204596614 51.92768334389693763
18.009497869018204596614 136.99323430955564618 18.009497869018204596614 52.69482222673028815
19.009497869018204596614 139.41256261547840722 19.009497869018204596614 53.40928429862157856
20.009497869018204596614 141.71870974794182985 20.009497869018204596614 54.07494008031023469
21.009497869018204596614 143.92049562567953558 21.009497869018204596614 54.69490414517059662
22.009497869018190385759 146.02545507761610111 22.009497869018190385759 55.27470452162842207
23.009497869018190385759 148.04050170849058077 23.009497869018190385759 55.81617933609413029
24.009497869018190385759 149.97202050221628156 24.009497869018190385759 56.32546624916547984
25.009497869018190385759 151.82601356447810304 25.009497869018190385759 56.80518834687642027
26.009497869018190385759 153.60776122459270709 26.009497869018190385759 57.25800563208009919
27.009497869018204596614 155.32208126118928249 27.009497869018204596614 57.68734677188862747
28.009497869018190385759 156.97314933261176861 28.009497869018190385759 58.09405601720939671
29.009497869018190385759 158.56470740818789977 29.009497869018190385759 58.47611982904058436
30.009497869018190385759 160.10023064833745821 30.009497869018190385759 58.84187942479807276
31.009497869018190385759 161.58290258433092390 31.009497869018190385759 59.18831025726242245
32.009497869018190385759 163.01565522209321557 32.009497869018190385759 59.51682519482362466
33.009497869018218807469 164.40121512655647962 33.009497869018218807469 59.82649367848154043
34.009497869018190385759 165.74218294291921438 34.009497869018190385759 60.12471729296979106
35.009497869018218807469 167.04088107813842612 35.009497869018218807469 60.40768505290152035
36.009497869018190385759 168.29945708974415197 36.009497869018190385759 60.68032727779022650
37.009497869018218807469 169.51990052191035829 37.009497869018218807469 60.94183401401864586
38.009497869018190385759 170.70410512281009119 38.009497869018190385759 61.19332172313656315
39.009497869018190385759 171.85380403349083167 39.009497869018190385759 61.43592281154690227
40.009497869018190385759 172.97062001201578596 40.009497869018190385759 61.66834370620956918
41.009497869018190385759 174.05611041666108463 41.009497869018190385759 61.89413302367508862
42.009497869018190385759 175.11170185935313270 42.009497869018190385759 62.10778671181824251
43.009497869018190385759 176.13874059055342514 43.009497869018190385759 62.31803497881120535
44.009497869018218807469 177.13852322844886089 44.009497869018218807469 62.51299069024722144
46.009497869018218807469 179.06113523931031750 46.009497869018218807469 62.88526076342436255
48.009497869018218807469 180.88781230160364544 48.009497869018218807469 63.22709119550930268
50.009497869018218807469 182.62513962443367177 50.009497869018218807469 63.52212628474320866
52.009497869018190385759 184.27968372732422608 52.009497869018190385759 63.78400181968400062
54.009497869018190385759 185.85769196464568154 54.009497869018190385759 64.01814888131056591
56.009497869018190385759 187.36411489783409934 56.009497869018190385759 64.22550808275912004
58.009497869018190385759 188.80322114539913514 58.009497869018190385759 64.40720710135477134
60.009497869018190385759 190.17925931057936850 60.009497869018190385759 64.59732169636903620
62.009497869018190385759 191.49580148084640996 62.009497869018190385759 64.77883479740067685
64.009497869018190385759 192.75659158795744474 64.009497869018190385759 64.95169848481260999
66.009497869018218807469 193.96667739553419096 66.009497869018218807469 65.13428268077005612
68.009497869018218807469 195.13042872768750158 68.009497869018218807469 65.31740523868073467
70.009497869018218807469 196.25044219827714187 70.009497869018218807469 65.46850394355985259
72.009497869018218807469 197.32943286379975234 72.009497869018218807469 65.57164912047215921
74.009497869018190385759 198.36991837640175618 74.009497869018190385759 65.66512604620776017
76.009497869018190385759 199.37392685982007379 76.009497869018190385759 65.74660053550542216
78.009497869018190385759 200.34406180908075612 78.009497869018190385759 65.84672726547641730
80.009497869018190385759 201.28193445559097086 80.009497869018190385759 65.89659411439609471
82.009497869018190385759 202.18751895311706335 82.009497869018190385759 65.96402946275999568
84.009497869018190385759 203.06122558739696160 84.009497869018190385759 66.01688027736193476
86.009497869018190385759 203.90377752619340868 86.009497869018190385759 66.00299398544953533
88.009497869018218807469 204.71729057211470604 88.009497869018218807469 66.00971781848981834
91.009497869018190385759 205.88503290370283594 91.009497869018190385759 65.98437478051339156
94.009497869018218807469 206.99387665394303326 94.009497869018218807469 66.00640950720872979
97.009497869018190385759 208.05181268125093652 97.009497869018190385759 66.10744665446489421
99.504748934509109403734 208.89868875777716539 99.504748934509109403734 66.15714128326679599
nan nan nan nan

