Time Pressure difference Time.1 Pressure.1 difference.1
(hr) (psi) (hr) (psi)
0.000200000000006639311 0.62521339589852598 0.000200000000006639311 0.49372740393014691
0.000399999999999067768 1.13480084276289639 0.000399999999999067768 0.97663540368373980
0.000600000000005707079 1.58805858382713083 0.000600000000005707079 1.30803198328567172
0.000799999999998135536 2.00316627591193264 0.000799999999998135536 1.60586123003592163
0.001007140329434719206 2.40295007564894725 0.001007140329434719206 1.88725984097888877
0.001267914553963578328 2.87227255854702834 0.001267914553963578328 2.21035290210065494
0.001596209851982166583 3.42084195145983871 0.001596209851982166583 2.57767548991887541
0.002009509145224797066 4.05931654261833330 0.002009509145224797066 2.99351479713309088
0.002529822128138903281 4.79937804157378878 0.002529822128138903281 3.46252319833086686
0.003184857364431081805 5.65382603779647308 0.003184857364431081805 3.98982141393936818
0.004009497869020606231 6.63669872339159017 0.004009497869020606231 4.58112223934104712
0.005047658755842121536 7.76342412560131923 0.005047658755842121536 5.24287025148272434
0.006354625877790454069 9.05100487694020650 0.006354625877790454069 5.98239226064726992
0.008000000000009777068 10.51823832400764225 0.008000000000009777068 6.80805393708472373
0.010071403294347192059 12.18597284912441481 0.010071403294347192059 7.72941958440116839
0.012679145539706837553 14.07740074222049564 0.012679145539706837553 8.75741226129169803
0.015962098519750611558 16.21838711016232537 0.015962098519750611558 9.90446682940342171
0.020095091452091651263 18.63783160653579074 0.020095091452091651263 11.18466269842544136
0.025298221281360611101 21.36805618536570250 0.025298221281360611101 12.61384144598721413
0.031848573644296607199 24.44521777796385820 0.031848573644296607199 14.20978632396318098
0.040094978690177640601 27.90977417436883812 0.040094978690177640601 15.99260877243392187
0.050476587558421215363 31.80706826649561592 0.050476587558421215363 17.98534667856719338
0.063546258777961384112 36.18806030099594295 0.063546258777961384112 20.21427358478326397
0.079999999999998294697 41.11004166110691926 0.079999999999998294697 22.70783295998000639
0.100714032943542974863 46.63685876897847038 0.100714032943542974863 25.49321185864986106
0.126791455396897845276 52.83802602425605244 0.126791455396897845276 28.59069711108606526
0.159620985197506115583 59.78632197784907731 0.159620985197506115583 32.00777740158750362
0.200950914520760193227 67.55415122961329644 0.200950914520760193227 35.73587205647587695
0.252982212813478213320 76.20959102513488403 0.252982212813478213320 39.75228582426178292
0.318485736442795541734 85.81359694755107625 0.318485736442795541734 44.02427538775528149
0.400949786901833249431 96.41784987084898262 0.400949786901833249431 48.52220904666780399
0.504765875584155310207 108.06790792890966202 0.504765875584155310207 53.22396884433119624
0.635462587779443310865 120.80294313164246489 0.635462587779443310865 58.12095402041739334
0.799999999999997157829 134.66144668135723350 0.799999999999997157829 63.22676467602155981
1.007140329435344483500 149.68467232281247448 1.007140329435344483500 68.58804161771040242
1.267914553968893187630 165.92686384990756210 1.267914553968893187630 74.22378363016295566
1.596209851975103788391 183.43058154031106710 1.596209851975103788391 80.24498494156713946
2.009509145207672986544 202.29037849293462159 2.009509145207672986544 86.70077359465165046
2.529822128134711078928 222.55785324720739027 2.529822128134711078928 93.70205953603935711
3.184857364427998049905 244.35888175278236645 3.184857364427998049905 101.40253210293870723
4.009497869018190385759 267.78971761344149627 4.009497869018190385759 109.84060842817480363
5.009497869018204596614 292.10348038120264391 5.009497869018204596614 118.75326687940511761
6.009497869018204596614 313.24236569465762159 6.009497869018204596614 126.57743756770828725
7.009497869018204596614 332.02809407249111473 7.009497869018204596614 133.54594349262993092
8.009497869018204596614 348.97636163788581598 8.009497869018204596614 139.79079154247116890
9.009497869018204596614 364.43582085193810371 9.009497869018204596614 145.42818275121862825
10.009497869018190385759 378.65604257554383594 10.009497869018190385759 150.53477859549002460
11.009497869018190385759 391.82358869469294405 11.009497869018190385759 155.14191294851877956
12.009497869018190385759 404.08280830820166329 12.009497869018190385759 159.35037192734969835
13.009497869018190385759 415.54783663942657768 13.009497869018190385759 163.20465628269599279
14.009497869018190385759 426.31221633664421233 14.009497869018190385759 166.73721330938960250
15.009497869018190385759 436.45138167316292765 15.009497869018190385759 169.98681340130758599
16.009497869018204596614 446.02794258378759196 16.009497869018204596614 172.98706884912229498
17.009497869018204596614 455.09682557997234653 17.009497869018204596614 175.76896252143808397
18.009497869018204596614 463.70562128835837257 18.009497869018204596614 178.36563537226572862
19.009497869018204596614 471.89475661940281270 19.009497869018204596614 180.78400355375345043
20.009497869018204596614 479.70078729114328553 20.009497869018204596614 183.03716831307761481
21.009497869018204596614 487.15356766767808949 21.009497869018204596614 185.13567210650529660
22.009497869018190385759 494.27860223866622391 22.009497869018190385759 187.09822664537455239
23.009497869018190385759 501.09929272461590699 23.009497869018190385759 188.93105376650419203
24.009497869018190385759 507.63725152812043007 24.009497869018190385759 190.65492871281099951
25.009497869018190385759 513.91279505502041047 25.009497869018190385759 192.27873031502844015
26.009497869018190385759 519.94379658496166030 26.009497869018190385759 193.81146236288282125
27.009497869018204596614 525.74656371914591091 27.009497869018204596614 195.26473048216598727
28.009497869018190385759 531.33523055884052155 28.009497869018190385759 196.64139236065724958
29.009497869018190385759 536.72246322015496389 29.009497869018190385759 197.93463241101366634
30.009497869018190385759 541.92002470313536833 30.009497869018190385759 199.17268465094880980
31.009497869018190385759 546.93869087823350128 31.009497869018190385759 200.34531135190201212
32.009497869018190385759 551.78838623285855647 32.009497869018190385759 201.45729490344078272
33.009497869018218807469 556.47833986136822659 33.009497869018218807469 202.50548547527256460
34.009497869018190385759 561.01735463496709144 34.009497869018190385759 203.51493654149570034
35.009497869018218807469 565.41329162187741986 35.009497869018218807469 204.47274837494157396
36.009497869018190385759 569.67342004604120120 36.009497869018190385759 205.39560951416967782
37.009497869018218807469 573.80447427519482062 37.009497869018218807469 206.28077836360259312
38.009497869018190385759 577.81286441913380258 38.009497869018190385759 207.13203401130417092
39.009497869018190385759 581.70445695185048862 39.009497869018190385759 207.95320951674810317
40.009497869018190385759 585.48474471421150156 40.009497869018190385759 208.73992629077810079
41.009497869018190385759 589.15899917667070440 41.009497869018190385759 209.50419597360811963
42.009497869018190385759 592.73204924901313007 42.009497869018190385759 210.22738801079370319
43.009497869018190385759 596.20845182713105714 43.009497869018190385759 210.93905310697266486
44.009497869018218807469 599.59259580763614395 44.009497869018218807469 211.59895474190210507
46.009497869018218807469 606.10040622240785524 46.009497869018218807469 212.85904416485564639
48.009497869018218807469 612.28348837484406886 48.009497869018218807469 214.01609906383734483
50.009497869018218807469 618.16413240572910581 50.009497869018218807469 215.01475735557406210
52.009497869018190385759 623.76456519386374566 52.009497869018190385759 215.90117454429119448
54.009497869018190385759 629.10593328239178845 54.009497869018190385759 216.69373418587937863
56.009497869018190385759 634.20499372634571955 56.009497869018190385759 217.39562014267261247
58.009497869018190385759 639.07619528597297176 58.009497869018190385759 218.01064946678505407
60.009497869018190385759 643.73391897223598335 60.009497869018190385759 218.65416450489175304
62.009497869018190385759 648.19025587159353563 62.009497869018190385759 219.26856452041121770
64.009497869018190385759 652.45787874274242313 64.009497869018190385759 219.85368731113544527
66.009497869018218807469 656.55387365842329928 66.009497869018218807469 220.47171285415294051
68.009497869018218807469 660.49303194767082914 68.009497869018218807469 221.09156068763070380
70.009497869018218807469 664.28414283609276936 70.009497869018218807469 221.60301163026269933
72.009497869018218807469 667.93639646337726390 72.009497869018218807469 221.95214564833361237
74.009497869018190385759 671.45831477922934027 74.009497869018190385759 222.26855379901940069
76.009497869018190385759 674.85676273856620355 76.009497869018190385759 222.54433514595478982
78.009497869018190385759 678.14055285891595304 78.009497869018190385759 222.88325208417276713
80.009497869018190385759 681.31513896480100811 80.009497869018190385759 223.05204537003487530
82.009497869018190385759 684.38043356982927889 82.009497869018190385759 223.28030591346592360
84.009497869018190385759 687.33782544187636177 84.009497869018190385759 223.45919956426632780
86.009497869018190385759 690.18976241684026718 86.009497869018190385759 223.41219613631542984
88.009497869018218807469 692.94340623207210683 88.009497869018218807469 223.43495550244838910
91.009497869018190385759 696.89607357438933377 91.009497869018190385759 223.34917236702986543
94.009497869018218807469 700.64937630286556214 94.009497869018218807469 223.42375726666872993
97.009497869018190385759 704.23036251213807191 97.009497869018190385759 223.76575585789660749
99.504748934509109403734 707.09693617323193848 99.504748934509109403734 223.93396619937385594
nan nan nan nan

