Time Pressure difference Time.1 Pressure.1 difference.1
(hr) (psi) (hr) (psi)
0.000200000000006639311 0.19867187098095296 0.000200000000006639311 0.15689002784785380
0.000399999999999067768 0.36060168912161072 0.000399999999999067768 0.31034201152589908
0.000600000000005707079 0.50463181394709855 0.000600000000005707079 0.41564874189686829
0.000799999999998135536 0.63653913133039086 0.000799999999998135536 0.51028889847841974
0.001007140329434719206 0.76357702911484304 0.001007140329434719206 0.59970794946841843
0.001267914553963578328 0.91271199068550235 0.001267914553963578328 0.70237609985533511
0.001596209851982166583 1.08702896528622261 0.001596209851982166583 0.81909891202498275
0.002009509145224797066 1.28991479983709478 0.002009509145224797066 0.95123871218543909
0.002529822128138903281 1.52508155026659464 0.002529822128138903281 1.10027386911427549
0.003184857364431081805 1.79659649728964066 0.003184857364431081805 1.26783157620611386
0.004009497869020606231 2.10892050804220066 0.004009497869020606231 1.45572716844035344
0.005047658755842121536 2.46695609270376925 0.005047658755842121536 1.66600851646100789
0.006354625877790454069 2.87610611825612672 0.006354625877790454069 1.90100383510923421
0.008000000000009777068 3.34234375168973763 0.008000000000009777068 2.16337145411930809
0.010071403294347192059 3.87229391043242854 0.010071403294347192059 2.45615058874879777
0.012679145539706837553 4.47332632722336587 0.012679145539706837553 2.78281222110081394
0.015962098519750611558 5.15366006647797636 0.015962098519750611558 3.14730773360738203
0.020095091452091651263 5.92247846989411464 0.020095091452091651263 3.55411109097173927
0.025298221281360611101 6.79005237159336605 0.025298221281360611101 4.00825621583147029
0.031848573644296607199 7.76787123299765270 0.031848573644296607199 4.51539402984819827
0.040094978690177640601 8.86879118434258551 0.040094978690177640601 5.08191527489524653
0.050476587558421215363 10.10722067757678033 0.050476587558421215363 5.71514061968683418
0.063546258777961384112 11.49935317178855954 0.063546258777961384112 6.42341891577376778
0.079999999999998294697 13.06339394916392571 0.079999999999998294697 7.21578854464339337
0.100714032943542974863 14.81963126364493455 0.100714032943542974863 8.10088864137807896
0.126791455396897845276 16.79015446253009713 0.126791455396897845276 9.08516568098470856
0.159620985197506115583 18.99809013103224231 0.159620985197506115583 10.17099931644354172
0.200950914520760193227 21.46644602524768075 0.200950914520760193227 11.35566289713396060
0.252982212813478213320 24.21685481306316845 0.252982212813478213320 12.63194463248115440
0.318485736442795541734 27.26868613663297936 0.318485736442795541734 13.98943979326640097
0.400949786901833249431 30.63836244626978100 0.400949786901833249431 15.41873241787514814
0.504765875584155310207 34.34036059060784396 0.504765875584155310207 16.91279416068595509
0.635462587779443310865 38.38712812203461056 0.635462587779443310865 18.46889198821385136
0.799999999999997157829 42.79089625509118378 0.799999999999997157829 20.09134755694898189
1.007140329435344483500 47.56477404775665008 1.007140329435344483500 21.79498175263285020
1.267914553968893187630 52.72599836042748933 1.267914553968893187630 23.58583175252894293
1.596209851975103788391 58.28809342346940525 1.596209851975103788391 25.49916780376702263
2.009509145207672986544 64.28110504394774694 2.009509145207672986544 27.55060115241215257
2.529822128134711078928 70.72142950901108804 2.529822128134711078928 29.77537526373636467
3.184857364427998049905 77.64906597829532586 3.184857364427998049905 32.22232746012164029
4.009497869018190385759 85.09460062234234101 4.009497869018190385759 34.90366541930833932
5.009497869018204596614 92.82069985717404847 5.009497869018204596614 37.73580967843025746
6.009497869018204596614 99.53792940348003526 6.009497869018204596614 40.22206899359664334
7.009497869018204596614 105.50740451237535922 7.009497869018204596614 42.43642671390169596
8.009497869018204596614 110.89299613467844097 8.009497869018204596614 44.42083020588169262
9.009497869018204596614 115.80549434178338686 9.009497869018204596614 46.21220426510805623
10.009497869018190385759 120.32420439202560658 10.009497869018190385759 47.83490934049581256
11.009497869018190385759 124.50840940247601907 11.009497869018190385759 49.29890228719429501
12.009497869018190385759 128.40397868067728382 12.009497869018190385759 50.63620955660960021
13.009497869018190385759 132.04718057679241383 13.009497869018190385759 51.86097199643030109
14.009497869018190385759 135.46773981052757563 14.009497869018190385759 52.98350026988725858
15.009497869018190385759 138.68962686670050743 15.009497869018190385759 54.01611430924799606
16.009497869018204596614 141.73273708500053658 16.009497869018204596614 54.96949497439114651
17.009497869018204596614 144.61452427059020920 17.009497869018204596614 55.85348758295443616
18.009497869018204596614 147.35011113020931361 18.009497869018204596614 56.67862321981642282
19.009497869018204596614 149.95234398159703915 19.009497869018204596614 57.44709960642114766
20.009497869018204596614 152.43283900723642432 20.009497869018204596614 58.16307988019622854
21.009497869018204596614 154.80108292384085189 21.009497869018204596614 58.82991408054432014
22.009497869018190385759 157.06518020375889932 22.009497869018190385759 59.45354816243882112
23.009497869018190385759 159.23256712975103255 23.009497869018190385759 60.03595921717341355
24.009497869018190385759 161.31011139929105980 24.009497869018190385759 60.58374892092369635
25.009497869018190385759 163.30426888550394438 25.009497869018190385759 61.09973866863339964
26.009497869018190385759 165.22071911786088094 26.009497869018190385759 61.58678956302773599
27.009497869018204596614 167.06464410567781442 27.009497869018204596614 62.04858948316542921
28.009497869018190385759 168.84053519280922728 28.009497869018190385759 62.48604650648295689
29.009497869018190385759 170.55241724660760383 29.009497869018190385759 62.89699486766221526
30.009497869018190385759 172.20402815439732080 30.009497869018190385759 63.29040639162129622
31.009497869018190385759 173.79879212678889644 31.009497869018190385759 63.66302787121352935
32.009497869018190385759 175.33986283338549583 32.009497869018190385759 64.01637898962128759
33.009497869018218807469 176.83017297117586963 33.009497869018218807469 64.34945883630489050
34.009497869018190385759 178.27251979771034485 34.009497869018190385759 64.67022856597780844
35.009497869018218807469 179.66940129710422980 35.009497869018218807469 64.97458907751949653
36.009497869018190385759 181.02312738518872948 36.009497869018190385759 65.26784342937574479
37.009497869018218807469 182.33583801841217564 37.009497869018218807469 65.54912043432246094
38.009497869018190385759 183.60957011491257163 38.009497869018190385759 65.81962095993725370
39.009497869018190385759 184.84618784358292487 39.009497869018190385759 66.08056302410371075
40.009497869018190385759 186.04743664522661106 40.009497869018190385759 66.33055525788176965
41.009497869018190385759 187.21499161654611498 41.009497869018190385759 66.57341455811101127
42.009497869018190385759 188.35038722329048255 42.009497869018190385759 66.80322075875983501
43.009497869018190385759 189.45507149430662253 43.009497869018190385759 67.02936408373851407
44.009497869018218807469 190.53043907389860578 44.009497869018218807469 67.23905871493944630
46.009497869018218807469 192.59840319554683674 46.009497869018218807469 67.63947291736022294
48.009497869018218807469 194.56317955464587044 48.009497869018218807469 68.00714619998079513
50.009497869018218807469 196.43185121116064806 50.009497869018218807469 68.32448634750728900
52.009497869018190385759 198.21148112251708540 52.009497869018190385759 68.60616003285598197
54.009497869018190385759 199.90878895166355278 54.009497869018190385759 68.85800893419313695
56.009497869018190385759 201.52909952928547455 56.009497869018190385759 69.08104477630104157
58.009497869018190385759 203.07700418731934633 58.009497869018190385759 69.27648049046064216
60.009497869018190385759 204.55707272924860263 60.009497869018190385759 69.48096801018388646
62.009497869018190385759 205.97314729726778637 62.009497869018190385759 69.67620375115605214
64.009497869018190385759 207.32925486952120764 64.009497869018190385759 69.86213617094963979
66.009497869018218807469 208.63082482749896940 66.009497869018218807469 70.05852398309630757
68.009497869018218807469 209.88255736002128060 68.009497869018218807469 70.25549085809990402
70.009497869018218807469 211.08724538852490582 70.009497869018218807469 70.41801283276369361
72.009497869018218807469 212.24780923150970580 72.009497869018218807469 70.52895592683087500
74.009497869018190385759 213.36695687908505192 74.009497869018190385759 70.62949983664270803
76.009497869018190385759 214.44686978393016830 76.009497869018190385759 70.71713390932369236
78.009497869018190385759 215.49034826887378813 78.009497869018190385759 70.82483035771176105
80.009497869018190385759 216.49912537663220746 80.009497869018190385759 70.87846720895524300
82.009497869018190385759 217.47317330696097315 82.009497869018190385759 70.95100076235009112
84.009497869018190385759 218.41293336376375578 84.009497869018190385759 71.00784717118311562
86.009497869018190385759 219.31918338728021922 86.009497869018190385759 70.99291105651445832
88.009497869018218807469 220.19419913770414610 88.009497869018218807469 71.00014322057496940
91.009497869018190385759 221.45022439470443487 91.009497869018190385759 70.97288421409173509
94.009497869018218807469 222.64289825664661748 94.009497869018218807469 70.99658479641351505
97.009497869018190385759 223.78081570182661153 97.009497869018190385759 71.10526049088491618
99.504748934509109403734 224.69171677382905727 99.504748934509109403734 71.15871210193301977
nan nan nan nan

