Time Pressure difference Time.1 Pressure.1 difference.1
(hr) (psi) (hr) (psi)
0.000200000000006639311 0.57189570528382938 0.000200000000006639311 0.45162273191986035
0.000399999999999067768 1.03802594855773567 0.000399999999999067768 0.89334872966400980
0.000600000000005707079 1.45263023759212673 0.000600000000005707079 1.19648407811207136
0.000799999999998135536 1.83233788283924026 0.000799999999998135536 1.46891468859123386
0.001007140329434719206 2.19802844483218385 0.001007140329434719206 1.72631585454007985
0.001267914553963578328 2.62732748756433754 0.001267914553963578328 2.02185580181999036
0.001596209851982166583 3.12911532818813631 0.001596209851982166583 2.35785341768213863
0.002009509145224797066 3.71314132477067860 0.002009509145224797066 2.73823028651463440
0.002529822128138903281 4.39009098016038912 0.002529822128138903281 3.16724203217879285
0.003184857364431081805 5.17167234523311858 0.003184857364431081805 3.64957268422271142
0.004009497869020606231 6.07072644647291693 0.004009497869020606231 4.19044785547846121
0.005047658755842121536 7.10136562148912542 0.005047658755842121536 4.79576253460500990
0.006354625877790454069 8.27914253210469653 0.006354625877790454069 5.47221870745501526
0.008000000000009777068 9.62125150246790284 0.008000000000009777068 6.22746862671404600
0.010071403294347192059 11.14676298178791747 0.010071403294347192059 7.07026095994462178
0.012679145539706837553 12.87689144034585453 0.012679145539706837553 8.01058725626783819
0.015962098519750611558 14.83529622970177897 0.015962098519750611558 9.05982194242891659
0.020095091452091651263 17.04841246445558056 0.020095091452091651263 10.23084374749372749
0.025298221281360611101 19.54580570864415989 0.025298221281360611101 11.53814329221774670
0.031848573644296607199 22.36054945984308162 0.031848573644296607199 12.99798728719880714
0.040094978690177640601 25.52965130061555499 0.040094978690177640601 14.62877208524158767
0.050476587558421215363 29.09458731788075880 0.050476587558421215363 16.45157092120714992
0.063546258777961384112 33.10197190984501958 0.063546258777961384112 18.49041675115707761
0.079999999999998294697 37.60421069711404840 0.079999999999998294697 20.77132740806293043
0.100714032943542974863 42.65970533081177507 0.100714032943542974863 23.31917145649088852
0.126791455396897845276 48.33204207904030625 0.126791455396897845276 26.15250568232339390
0.159620985197506115583 54.68779299699696850 0.159620985197506115583 29.27818014094451016
0.200950914520760193227 61.79318807906759758 0.200950914520760193227 32.68834591155813740
0.252982212813478213320 69.71049899862592270 0.252982212813478213320 36.36224317528920125
0.318485736442795541734 78.49548309618630526 0.318485736442795541734 40.26992093844417298
0.400949786901833249431 88.19541394277659663 0.400949786901833249431 44.38427446806872467
0.504765875584155310207 98.85196451162192943 0.504765875584155310207 48.68507200887554376
0.635462587779443310865 110.50096625544146889 0.635462587779443310865 53.16444626639194837
0.799999999999997157829 123.17762787807399150 0.799999999999997157829 57.83483753613748490
1.007140329435344483500 136.91968503843048666 1.007140329435344483500 62.73890913457571372
1.267914553968893187630 151.77675566372255389 1.267914553968893187630 67.89403964545870451
1.596209851975103788391 167.78777052570586648 1.596209851975103788391 73.40175779934213551
2.009509145207672986544 185.03921931181128002 2.009509145207672986544 79.30700203937171011
2.529822128134711078928 203.57830027993284716 2.529822128134711078928 85.71122400200147240
3.184857364427998049905 223.52015478097149526 3.184857364427998049905 92.75500652258658363
4.009497869018190385759 244.95282798955412318 4.009497869018190385759 100.47349055206649382
5.009497869018204596614 267.19313281569907303 5.009497869018204596614 108.62608472928326364
6.009497869018204596614 286.52931115826038422 6.009497869018204596614 115.78301649594432376
7.009497869018204596614 303.71300787747662753 7.009497869018204596614 122.15725389528891753
8.009497869018204596614 319.21594094998494029 8.009497869018204596614 127.86954637539747637
9.009497869018204596614 333.35703003816877299 9.009497869018204596614 133.02618544045483873
10.009497869018190385759 346.36456280260409812 10.009497869018190385759 137.69729493861575520
11.009497869018190385759 358.40919128316585329 11.009497869018190385759 141.91153661585320833
12.009497869018190385759 369.62295460476110520 12.009497869018190385759 145.76110163100719319
13.009497869018190385759 380.11025463159734272 13.009497869018190385759 149.28669574691275557
14.009497869018190385759 389.95665677087964696 14.009497869018190385759 152.51799917945180596
15.009497869018190385759 399.23116232235514644 15.009497869018190385759 155.49047601480015146
16.009497869018204596614 407.99104189643918517 16.009497869018204596614 158.23487211478089876
17.009497869018204596614 416.28653791629960779 17.009497869018204596614 160.77952815412763243
18.009497869018204596614 424.16118251858972599 18.009497869018204596614 163.15475885320958582
19.009497869018204596614 431.65195503967709101 19.009497869018204596614 165.36689056033694101
20.009497869018204596614 438.79229375565500959 20.009497869018204596614 167.42790725896742288
21.009497869018204596614 445.60950707469851295 21.009497869018204596614 169.34745235326019497
22.009497869018190385759 452.12692448430277636 22.009497869018190385759 171.14264183500759486
23.009497869018190385759 458.36595202525774084 23.009497869018190385759 172.81916694783782873
24.009497869018190385759 464.34635901201676234 24.009497869018190385759 174.39603123882505997
25.009497869018190385759 470.08672928383083445 25.009497869018190385759 175.88135635922904498
26.009497869018190385759 475.60341190157402025 26.009497869018190385759 177.28337826290092494
27.009497869018204596614 480.91132376746230648 27.009497869018204596614 178.61271285729088731
28.009497869018190385759 486.02339363808664530 28.009497869018190385759 179.87197412888545500
29.009497869018190385759 490.95120747346146572 29.009497869018190385759 181.05492771809471719
30.009497869018190385759 495.70552513454305199 30.009497869018190385759 182.18739986853287860
31.009497869018190385759 500.29620353430294699 31.009497869018190385759 183.26002591681594822
32.009497869018190385759 504.73232080792433862 32.009497869018190385759 184.27718041421334760
33.009497869018218807469 509.02231900009417132 33.009497869018218807469 185.23598214540160711
34.009497869018190385759 513.17425028030993417 34.009497869018190385759 186.15934804455596918
35.009497869018218807469 517.19530533128079242 35.009497869018218807469 187.03547846276381961
36.009497869018190385759 521.09213346343460671 36.009497869018190385759 187.87963875357041843
37.009497869018218807469 524.87089474309709658 37.009497869018218807469 188.68932112244260679
38.009497869018190385759 528.53745263110613450 38.009497869018190385759 189.46798237988329561
39.009497869018190385759 532.09717331331694368 39.009497869018190385759 190.21912870516754879
40.009497869018190385759 535.55508120558840801 40.009497869018190385759 190.93875491166605229
41.009497869018190385759 538.91599823165518046 41.009497869018190385759 191.63784829667099530
42.009497869018190385759 542.18434149579775294 42.009497869018190385759 192.29936710428947322
43.009497869018190385759 545.36427928552791400 43.009497869018190385759 192.95034197906838358
44.009497869018218807469 548.45982621591895168 44.009497869018218807469 193.55396773853178161
46.009497869018218807469 554.41265584405027766 46.009497869018218807469 194.70659775891874688
48.009497869018218807469 560.06844977231924076 48.009497869018218807469 195.76497995585529566
50.009497869018218807469 565.44759725640813031 50.009497869018218807469 196.67847347956572435
52.009497869018190385759 570.57042968494533852 52.009497869018190385759 197.48929773036181246
54.009497869018190385759 575.45629024105073768 54.009497869018190385759 198.21426852941860375
56.009497869018190385759 580.12050695171319603 56.009497869018190385759 198.85629822187618743
58.009497869018190385759 584.57629639864137516 58.009497869018190385759 199.41887834474451324
60.009497869018190385759 588.83681319186257497 60.009497869018190385759 200.00751494305328038
62.009497869018190385759 592.91311729980282053 62.009497869018190385759 200.56951942425430957
64.009497869018190385759 596.81680075858980672 64.009497869018190385759 201.10474341861223024
66.009497869018218807469 600.56349255455779712 66.009497869018218807469 201.67006424527087916
68.009497869018218807469 604.16672262421457162 68.009497869018218807469 202.23705195893933251
70.009497869018218807469 607.63453065514681839 70.009497869018218807469 202.70488678057535026
72.009497869018218807469 610.97532305939375874 72.009497869018218807469 203.02424693314577553
74.009497869018190385759 614.19689504171128647 74.009497869018190385759 203.31367205372231410
76.009497869018190385759 617.30552611923667428 76.009497869018190385759 203.56593499137591152
78.009497869018190385759 620.30927728516064690 78.009497869018190385759 203.87594936836512716
80.009497869018190385759 623.21313726627988672 80.009497869018190385759 204.03034809989989640
82.009497869018190385759 626.01702603697060567 82.009497869018190385759 204.23914276957643210
84.009497869018190385759 628.72221393211236773 84.009497869018190385759 204.40278051513092805
86.009497869018190385759 631.33094003814528605 86.009497869018190385759 204.35978550134032616
88.009497869018218807469 633.84975534527609398 88.009497869018218807469 204.38060396721419920
91.009497869018190385759 637.46534242692871430 91.009497869018190385759 204.30213634791260802
94.009497869018218807469 640.89856654708819406 94.009497869018218807469 204.37036070788678899
97.009497869018190385759 644.17416916084903278 97.009497869018190385759 204.68319393702014963
99.504748934509109403734 646.79628374830667781 99.504748934509109403734 204.83705943719374432
nan nan nan nan

