Time Pressure difference Time.1 Pressure.1 difference.1
(hr) (psi) (hr) (psi)
0.000200000000006639311 0.07235972297708830 0.000200000000006639311 0.05714205487110331
0.000399999999999067768 0.13133735642128952 0.000399999999999067768 0.11303191474106228
0.000600000000005707079 0.18379561274750550 0.000600000000005707079 0.15138644273560059
0.000799999999998135536 0.23183853345579733 0.000799999999998135536 0.18585602053207623
0.001007140329434719206 0.27810792753703545 0.001007140329434719206 0.21842398159552623
0.001267914553963578328 0.33242545347650881 0.001267914553963578328 0.25581749323804537
0.001596209851982166583 0.39591470301159554 0.001596209851982166583 0.29832995517842820
0.002009509145224797066 0.46980922422181720 0.002009509145224797066 0.34645755012504809
0.002529822128138903281 0.55546101191818464 0.002529822128138903281 0.40073872549210032
0.003184857364431081805 0.65435143990740907 0.003184857364431081805 0.46176613318689130
0.004009497869020606231 0.76810523296105715 0.004009497869020606231 0.53020094952779639
0.005047658755842121536 0.89850796986654857 0.005047658755842121536 0.60678904433404113
0.006354625877790454069 1.04752746799104934 0.006354625877790454069 0.69237839361805975
0.008000000000009777068 1.21733925780393015 0.008000000000009777068 0.78793720693163294
0.010071403294347192059 1.41035624852810493 0.010071403294347192059 0.89457241890531292
0.012679145539706837553 1.62926262397272725 0.012679145539706837553 1.01354822110381071
0.015962098519750611558 1.87705190919645171 0.015962098519750611558 1.14630377517968540
0.020095091452091651263 2.15706883568028429 0.020095091452091651263 1.29446857626446743
0.025298221281360611101 2.47305421840780726 0.025298221281360611101 1.45987606582999230
0.031848573644296607199 2.82919271744962408 0.031848573644296607199 1.64458440703736297
0.040094978690177640601 3.23016675723659663 0.040094978690177640601 1.85092121833245393
0.050476587558421215363 3.68122414454873104 0.050476587558421215363 2.08155281356006094
0.063546258777961384112 4.18826281656196731 0.063546258777961384112 2.33951998849268206
0.079999999999998294697 4.75791345113318709 0.079999999999998294697 2.62811467760174722
0.100714032943542974863 5.39756538036908218 0.100714032943542974863 2.95048340293003486
0.126791455396897845276 6.11526392564993948 0.126791455396897845276 3.30897408189219400
0.159620985197506115583 6.91943218829928419 0.159620985197506115583 3.70445342515835074
0.200950914520760193227 7.81844999002631180 0.200950914520760193227 4.13592833953121897
0.252982212813478213320 8.82019632169073731 0.252982212813478213320 4.60077216646278497
0.318485736442795541734 9.93172594113789131 0.318485736442795541734 5.09519532406507825
0.400949786901833249431 11.15902018809825691 0.400949786901833249431 5.61576835667018237
0.504765875584155310207 12.50735178060477182 0.504765875584155310207 6.15993141954696100
0.635462587779443310865 13.98125433198704570 0.635462587779443310865 6.72668909474881538
0.799999999999997157829 15.58518266159870613 0.799999999999997157829 7.31761540412838318
1.007140329435344483500 17.32391131451839428 1.007140329435344483500 7.93810836996851510
1.267914553968893187630 19.20371825267966059 1.267914553968893187630 8.59036683638434084
1.596209851975103788391 21.22952923410706916 1.596209851975103788391 9.28723683587680604
2.009509145207672986544 23.41228746009598893 2.009509145207672986544 10.03440425359420196
2.529822128134711078928 25.75796474130115854 2.529822128134711078928 10.84470536762282755
3.184857364427998049905 28.28112946174334397 3.184857364427998049905 11.73592757333503833
4.009497869018190385759 30.99292163241861431 4.009497869018190385759 12.71251711757556002
5.009497869018204596614 33.80690026746913901 5.009497869018204596614 13.74403291802252269
6.009497869018204596614 36.25343115653905102 6.009497869018204596614 14.64957145453679566
7.009497869018204596614 38.42761697894821538 7.009497869018204596614 15.45607873924854125
8.009497869018204596614 40.38914236215125442 8.009497869018204596614 16.17883272674285422
9.009497869018204596614 42.17835896154410591 9.009497869018204596614 16.83128206460804321
10.009497869018190385759 43.82415112041827143 10.009497869018190385759 17.42229924861509005
11.009497869018190385759 45.34811077278679647 11.009497869018190385759 17.95551073718897683
12.009497869018190385759 46.76694431181216771 12.009497869018190385759 18.44258111646484011
13.009497869018190385759 48.09386129633972473 13.009497869018190385759 18.88866072713435784
14.009497869018190385759 49.33968798210907636 14.009497869018190385759 19.29750489062986318
15.009497869018190385759 50.51315483323917022 15.009497869018190385759 19.67360073883153859
16.009497869018204596614 51.62150807568708899 16.009497869018204596614 20.02083842517760814
17.009497869018204596614 52.67110468641304521 17.009497869018204596614 20.34280378420704594
18.009497869018204596614 53.66745261611458062 18.009497869018204596614 20.64333241871908342
19.009497869018204596614 54.61523071534205087 19.009497869018204596614 20.92322477677958759
20.009497869018204596614 55.51866979816278302 20.009497869018204596614 21.18399714486380248
21.009497869018204596614 56.38122509047239816 21.009497869018204596614 21.42686966511838165
22.009497869018190385759 57.20584838092177904 22.009497869018190385759 21.65400795692659841
23.009497869018190385759 57.99524809198600650 23.009497869018190385759 21.86613211104718602
24.009497869018190385759 58.75192555756926538 24.009497869018190385759 22.06564657183802325
25.009497869018190385759 59.47823211804297472 25.009497869018190385759 22.25357894001344405
26.009497869018190385759 60.17623635602600984 26.009497869018190385759 22.43097127854684203
27.009497869018204596614 60.84782564871331800 27.009497869018204596614 22.59916677661616191
28.009497869018190385759 61.49463582102317361 28.009497869018190385759 22.75849617169027539
29.009497869018190385759 62.11813279908391650 29.009497869018190385759 22.90817065467569336
30.009497869018190385759 62.71967798594663890 30.009497869018190385759 23.05145791899306218
31.009497869018190385759 63.30051853819148988 31.009497869018190385759 23.18717309047393726
32.009497869018190385759 63.86180307669631162 32.009497869018190385759 23.31586966395152061
33.009497869018218807469 64.40459974030048329 33.009497869018218807469 23.43718309053916116
34.009497869018190385759 64.92992733846318743 34.009497869018190385759 23.55401296013249635
35.009497869018218807469 65.43869568009547777 35.009497869018218807469 23.66486630938409874
36.009497869018190385759 65.93174607639461726 36.009497869018190385759 23.77167460367039808
37.009497869018218807469 66.40985793641849000 37.009497869018218807469 23.87412054157431385
38.009497869018190385759 66.87377314089467006 38.009497869018190385759 23.97264149978545689
39.009497869018190385759 67.32417065229537911 39.009497869018190385759 24.06768110143074324
40.009497869018190385759 67.76168619027423290 40.009497869018190385759 24.15873258593776995
41.009497869018190385759 68.18692985394970663 41.009497869018190385759 24.24718613298611913
42.009497869018190385759 68.60046052222081414 42.009497869018190385759 24.33088551597003502
43.009497869018190385759 69.00280559217557652 43.009497869018190385759 24.41325081644150430
44.009497869018218807469 69.39447301733048334 44.009497869018218807469 24.48962521885973587
46.009497869018218807469 70.14766122777105295 46.009497869018218807469 24.63546297948583330
48.009497869018218807469 70.86326667485504061 48.009497869018218807469 24.76937593226137935
50.009497869018218807469 71.54386913122145586 50.009497869018218807469 24.88495668886847412
52.009497869018190385759 72.19204104781772457 52.009497869018190385759 24.98754710461847495
54.009497869018190385759 72.81022984181994673 54.009497869018190385759 25.07927481948248527
56.009497869018190385759 73.40037490842985335 56.009497869018190385759 25.16050832108089352
58.009497869018190385759 73.96414848995017621 58.009497869018190385759 25.23168937991217931
60.009497869018190385759 74.50321498764964190 60.009497869018190385759 25.30616726249508730
62.009497869018190385759 75.01897377600168682 62.009497869018190385759 25.37727548764150143
64.009497869018190385759 75.51289154992147701 64.009497869018190385759 25.44499528271009225
66.009497869018218807469 75.98694578381751796 66.009497869018218807469 25.51652311205424795
68.009497869018218807469 76.44284836754768264 68.009497869018218807469 25.58826184608111731
70.009497869018218807469 76.88161653128383932 70.009497869018218807469 25.64745515314715618
72.009497869018218807469 77.30431390540609016 72.009497869018218807469 25.68786254204064079
74.009497869018190385759 77.71192678663162212 74.009497869018190385759 25.72448236861747262
76.009497869018190385759 78.10524969766147763 76.009497869018190385759 25.75640020978563172
78.009497869018190385759 78.48530256438215247 78.009497869018190385759 25.79562511431035077
80.009497869018190385759 78.85271659085006490 80.009497869018190385759 25.81516058089743737
82.009497869018190385759 79.20748165173657185 82.009497869018190385759 25.84157855242143498
84.009497869018190385759 79.54975847753696883 84.009497869018190385759 25.86228299525518892
86.009497869018190385759 79.87983037108607220 86.009497869018190385759 25.85684300460910023
88.009497869018218807469 80.19852620350884820 88.009497869018218807469 25.85947708353209507
91.009497869018190385759 80.65599227155368567 91.009497869018190385759 25.84954888308772070
94.009497869018218807469 81.09038466855500360 94.009497869018218807469 25.85818104406114770
97.009497869018190385759 81.50483383389212122 97.009497869018190385759 25.89776260690376830
99.504748934509109403734 81.83659971954156731 99.504748934509109403734 25.91723060581585614
nan nan nan nan

