Time Pressure difference Time.1 Pressure.1 difference.1
(hr) (psi) (hr) (psi)
0.000200000000006639311 0.16376147831656823 0.000200000000006639311 0.12932149260302325
0.000399999999999067768 0.29723717505870789 0.000399999999999067768 0.25580907020345672
0.000600000000005707079 0.41595849200751245 0.000600000000005707079 0.34261142303320136
0.000799999999998135536 0.52468720729469909 0.000799999999998135536 0.42062152015154086
0.001007140329434719206 0.62940215179434345 0.001007140329434719206 0.49432795834776988
0.001267914553963578328 0.75233128944683580 0.001267914553963578328 0.57895537943347108
0.001596209851982166583 0.89601748576308471 0.001596209851982166583 0.67516779329854804
0.002009509145224797066 1.06325245481779684 0.002009509145224797066 0.78408813975668779
0.002529822128138903281 1.25709597434115472 0.002529822128138903281 0.90693501032422708
0.003184857364431081805 1.48090062715887316 0.003184857364431081805 1.04504966984401704
0.004009497869020606231 1.73834342196449776 0.004009497869020606231 1.19992846472080239
0.005047658755842121536 2.03346540548745169 0.005047658755842121536 1.37325941612440894
0.006354625877790454069 2.37072005913763784 0.006354625877790454069 1.56696162766192448
0.008000000000009777068 2.75503095187205194 0.008000000000009777068 1.78322631042422186
0.010071403294347192059 3.19185887824781611 0.010071403294347192059 2.02455863225939225
0.012679145539706837553 3.68727857004354131 0.012679145539706837553 2.29381965828757162
0.015962098519750611558 4.24806484712881094 0.015962098519750611558 2.59426643856455108
0.020095091452091651263 4.88178736496064403 0.020095091452091651263 2.92958677786168931
0.025298221281360611101 5.59691217850187961 0.025298221281360611101 3.30393004372050880
0.031848573644296607199 6.40290983422809745 0.031848573644296607199 3.72195418434771641
0.040094978690177640601 7.31037739795650854 0.040094978690177640601 4.18892696780502760
0.050476587558421215363 8.33119148503133999 0.050476587558421215363 4.71088268332013804
0.063546258777961384112 9.47870005853497943 0.063546258777961384112 5.29470313185186026
0.079999999999998294697 10.76790938940668596 0.079999999999998294697 5.94783848088816480
0.100714032943542974863 12.21554270294055478 0.100714032943542974863 6.67740980663113071
0.126791455396897845276 13.83980783173407225 0.126791455396897845276 7.48873081691391285
0.159620985197506115583 15.65976758404574731 0.159620985197506115583 8.38376301483205744
0.200950914520760193227 17.69438681953322856 0.200950914520760193227 9.36025887367591736
0.252982212813478213320 19.96149693856325058 0.252982212813478213320 10.41227385041577591
0.318485736442795541734 22.47706397204891005 0.318485736442795541734 11.53123152288412534
0.400949786901833249431 25.25462463622237408 0.400949786901833249431 12.70937049141146602
0.504765875584155310207 28.30611192452659353 0.504765875584155310207 13.94089742318522696
0.635462587779443310865 31.64178611976015887 0.635462587779443310865 15.22355953022100294
0.799999999999997157829 35.27172918151286751 0.799999999999997157829 16.56091907250107553
1.007140329435344483500 39.20674665917321278 1.007140329435344483500 17.96519262677084683
1.267914553968893187630 43.46104657185396292 1.267914553968893187630 19.44135652444877493
1.596209851975103788391 48.04577668771599264 1.596209851975103788391 21.01848336540540529
2.009509145207672986544 52.98570319916460392 2.009509145207672986544 22.70944120550266732
2.529822128134711078928 58.29434125662893962 2.529822128134711078928 24.54328056883061393
3.184857364427998049905 64.00466141341914295 3.184857364427998049905 26.56025713965298252
4.009497869018190385759 70.14187527336844141 4.009497869018190385759 28.77043347661837558
5.009497869018204596614 76.51035323690383905 5.009497869018204596614 31.10491660394570701
6.009497869018204596614 82.04723893321995831 6.009497869018204596614 33.15429329184643592
7.009497869018204596614 86.96776474183016603 7.009497869018204596614 34.97954662040459084
8.009497869018204596614 91.40700639855285203 8.009497869018204596614 36.61525301315487724
9.009497869018204596614 95.45628607086298700 9.009497869018204596614 38.09184888306031525
10.009497869018190385759 99.18097358831504096 10.009497869018190385759 39.42941408897099365
11.009497869018190385759 102.62993490683328446 11.009497869018190385759 40.63615587890136283
12.009497869018190385759 105.84097923199595925 12.009497869018190385759 41.73847305305200450
13.009497869018190385759 108.84400188118991082 13.009497869018190385759 42.74802164561986473
14.009497869018190385759 111.66350438056265659 14.009497869018190385759 43.67330054195179656
15.009497869018190385759 114.31924514890968680 15.009497869018190385759 44.52446482998716704
16.009497869018204596614 116.82762353971290281 16.009497869018204596614 45.31031854119142110
17.009497869018204596614 119.20302639556636848 17.009497869018204596614 46.03897698531068983
18.009497869018204596614 121.45791907857508818 18.009497869018204596614 46.71912073710107904
19.009497869018204596614 123.60289056630044513 19.009497869018204596614 47.35256133692222136
20.009497869018204596614 125.64751585899999498 20.009497869018204596614 47.94273038048123681
21.009497869018204596614 127.59961467843753269 21.009497869018204596614 48.49238924211002200
22.009497869018190385759 129.46586738840190378 22.009497869018190385759 49.00643906041283060
23.009497869018190385759 131.25240357659987467 23.009497869018190385759 49.48650951447520896
24.009497869018190385759 132.96488415660414262 24.009497869018190385759 49.93804224152815863
25.009497869018190385759 134.60863058293935524 25.009497869018190385759 50.36336286424095476
26.009497869018190385759 136.18832438469041790 26.009497869018190385759 50.76482973565863688
27.009497869018204596614 137.70823699445645616 27.009497869018204596614 51.14548270497342486
28.009497869018190385759 139.17207054231559482 28.009497869018190385759 51.50607028329905290
29.009497869018190385759 140.58314265055832948 29.009497869018190385759 51.84480727110814513
30.009497869018190385759 141.94453438924765010 30.009497869018190385759 52.16908897456324468
31.009497869018190385759 143.25906827064392246 31.009497869018190385759 52.47623383633575145
32.009497869018190385759 144.52934380515480939 32.009497869018190385759 52.76749450262713026
33.009497869018218807469 145.75777835962739459 33.009497869018218807469 53.04204594174651533
34.009497869018190385759 146.94667766073249027 34.009497869018190385759 53.30645038345775077
35.009497869018218807469 148.09810074968976323 35.009497869018218807469 53.55732901597454543
36.009497869018190385759 149.21395164657727150 36.009497869018190385759 53.79905305041195618
37.009497869018218807469 150.29599427715766069 37.009497869018218807469 54.03090438356291969
38.009497869018190385759 151.34590763465635632 38.009497869018190385759 54.25387286793550601
39.009497869018190385759 152.36522831835270608 39.009497869018190385759 54.46896249271168955
40.009497869018190385759 153.35539506219956252 40.009497869018190385759 54.67502637870126847
41.009497869018190385759 154.31778861683355331 41.009497869018190385759 54.87521072202121530
42.009497869018190385759 155.25367381344710793 42.009497869018190385759 55.06463564140586442
43.009497869018190385759 156.16424423492367168 43.009497869018190385759 55.25104132142024582
44.009497869018218807469 157.05064946027425776 44.009497869018218807469 55.42388865320888414
46.009497869018218807469 158.75523330495553864 46.009497869018218807469 55.75394253252056842
48.009497869018218807469 160.37476142204033636 48.009497869018218807469 56.05700868880206400
50.009497869018218807469 161.91507224434329260 50.009497869018218807469 56.31858619059706683
52.009497869018190385759 163.38198763453485185 52.009497869018190385759 56.55076449992601795
54.009497869018190385759 164.78104648411883204 54.009497869018190385759 56.75835880198668804
56.009497869018190385759 166.11663795065703653 56.009497869018190385759 56.94220304244623065
58.009497869018190385759 167.39254658251880414 58.009497869018190385759 57.10329701769598643
60.009497869018190385759 168.61253918257551732 60.009497869018190385759 57.27185222564677503
62.009497869018190385759 169.77978275621433113 62.009497869018190385759 57.43278136676761392
64.009497869018190385759 170.89759666561172935 64.009497869018190385759 57.58604195560705108
66.009497869018218807469 171.97045624758703752 66.009497869018218807469 57.74792072728067893
68.009497869018218807469 173.00223577918686146 68.009497869018218807469 57.91027680955199486
70.009497869018218807469 173.99523741290551015 70.009497869018218807469 58.04424060975408395
72.009497869018218807469 174.95186831223483637 72.009497869018218807469 58.13568891093407842
74.009497869018190385759 175.87436062237682677 74.009497869018190385759 58.21856536055533127
76.009497869018190385759 176.76451247365488939 76.009497869018190385759 58.29080047477800974
78.009497869018190385759 177.62463211939117969 78.009497869018190385759 58.37957262712342299
80.009497869018190385759 178.45614807402910174 80.009497869018190385759 58.42378447255735807
82.009497869018190385759 179.25903742235121285 82.009497869018190385759 58.48357251337483831
84.009497869018190385759 180.03366392284678454 84.009497869018190385759 58.53042993663016347
86.009497869018190385759 180.78066873456322128 86.009497869018190385759 58.51811837885217216
88.009497869018218807469 181.50192772373054595 88.009497869018218807469 58.52407971536211306
91.009497869018190385759 182.53724566720043754 91.009497869018190385759 58.50161063014589757
94.009497869018218807469 183.52034424988764272 94.009497869018218807469 58.52114657340155190
97.009497869018190385759 184.45830815038743822 97.009497869018190385759 58.61072589983484704
99.504748934509109403734 185.20914673369935599 99.504748934509109403734 58.65478505526746744
nan nan nan nan

