Time Pressure difference Time.1 Pressure.1 difference.1
(hr) (psi) (hr) (psi)
0.000200000000006639311 0.56872203322343073 0.000200000000006639311 0.44911650144305754
0.000399999999999067768 1.03226553818838074 0.000399999999999067768 0.88839118954378771
0.000600000000005707079 1.44456902650670993 0.000600000000005707079 1.18984432185173805
0.000799999999998135536 1.82216952610872274 0.000799999999998135536 1.46076310874333593
0.001007140329434719206 2.18583072871213879 0.001007140329434719206 1.71673585534729378
0.001267914553963578328 2.61274742381536784 0.001267914553963578328 2.01063573632709369
0.001596209851982166583 3.11175064823148784 0.001596209851982166583 2.34476877052519006
0.002009509145224797066 3.69253565704165121 0.002009509145224797066 2.72303477993020238
0.002529822128138903281 4.36572865507625796 0.002529822128138903281 3.14966577228878863
0.003184857364431081805 5.14297272067577627 0.003184857364431081805 3.62931978364433849
0.004009497869020606231 6.03703762046585268 0.004009497869020606231 4.16719342786759306
0.005047658755842121536 7.06195737719673300 0.005047658755842121536 4.76914898002895526
0.006354625877790454069 8.23319834491210756 0.006354625877790454069 5.44185123405071458
0.008000000000009777068 9.56785942975720616 0.008000000000009777068 6.19290997728722026
0.010071403294347192059 11.08490525158931561 0.010071403294347192059 7.03102532753649445
0.012679145539706837553 12.80543255332950636 0.012679145539706837553 7.96613338692117967
0.015962098519750611558 14.75296939157912846 0.015962098519750611558 9.00954546106138743
0.020095091452091651263 16.95380418218890384 0.020095091452091651263 10.17406880993826945
0.025298221281360611101 19.43733841836311527 0.025298221281360611101 11.47411364020765845
0.031848573644296607199 22.23646205995494185 0.031848573644296607199 12.92585639215331028
0.040094978690177640601 25.38797732003500585 0.040094978690177640601 14.54759133005156713
0.050476587558421215363 28.93313011855844863 0.050476587558421215363 16.36027474517381464
0.063546258777961384112 32.91827617227651359 0.063546258777961384112 18.38780622534599374
0.079999999999998294697 37.39553028259066281 0.079999999999998294697 20.65605922044881737
0.100714032943542974863 42.42297000711138111 0.100714032943542974863 23.18976428969571302
0.126791455396897845276 48.06382874896793567 0.126791455396897845276 26.00737524013513990
0.159620985197506115583 54.38430912908910386 0.159620985197506115583 29.11570411352528254
0.200950914520760193227 61.45027360582083986 0.200950914520760193227 32.50694554578922180
0.252982212813478213320 69.32364828276229218 0.252982212813478213320 36.16045492237417136
0.318485736442795541734 78.05988108122411973 0.318485736442795541734 40.04644745931851446
0.400949786901833249431 87.70598323277228303 0.400949786901833249431 44.13796883839020779
0.504765875584155310207 98.30339645106909074 0.504765875584155310207 48.41489957819366197
0.635462587779443310865 109.88775334614379631 0.635462587779443310865 52.86941604293805597
0.799999999999997157829 122.49406723502141858 0.799999999999997157829 57.51388949209676582
1.007140329435344483500 136.15986436674108973 1.007140329435344483500 62.39074648677008383
1.267914553968893187630 150.93448731930681106 1.267914553968893187630 67.51726917017869312
1.596209851975103788391 166.85665082245554913 1.596209851975103788391 72.99442285040016998
2.009509145207672986544 184.01236459864918515 2.009509145207672986544 78.86689658965266858
2.529822128134711078928 202.44856498426173630 2.529822128134711078928 85.23557902973732325
3.184857364427998049905 222.27975436598276815 3.184857364427998049905 92.24027285708942259
4.009497869018190385759 243.59348932146556876 4.009497869018190385759 99.91592401182195715
5.009497869018204596614 265.71037403203814620 5.009497869018204596614 108.02327626796649440
6.009497869018204596614 284.93924838823676282 6.009497869018204596614 115.14049143214884907
7.009497869018204596614 302.02758608015437858 7.009497869018204596614 121.47935570497101310
8.009497869018204596614 317.44448733760987125 8.009497869018204596614 127.15994844878592573
9.009497869018204596614 331.50710201353967932 9.009497869018204596614 132.28797131481411498
10.009497869018190385759 344.44245091135769599 10.009497869018190385759 136.93315900665896834
11.009497869018190385759 356.42023905628923330 11.009497869018190385759 141.12401421509932220
12.009497869018190385759 367.57177283669915369 12.009497869018190385759 144.95221649432014033
13.009497869018190385759 378.00087475017892302 13.009497869018190385759 148.45824571502092226
14.009497869018190385759 387.79263536815557245 14.009497869018190385759 151.67161738600313470
15.009497869018190385759 397.01567307528330275 15.009497869018190385759 154.62759878941278657
16.009497869018204596614 405.72694066504948296 16.009497869018204596614 157.35676516630820743
17.009497869018204596614 413.97640174584290662 17.009497869018204596614 159.88729991797819707
18.009497869018204596614 421.80734687753215439 18.009497869018204596614 162.24934953659908388
19.009497869018204596614 429.25655018374101246 19.009497869018204596614 164.44920526310974651
20.009497869018204596614 436.35726437854259530 20.009497869018204596614 166.49878457717517222
21.009497869018204596614 443.13664632511637365 21.009497869018204596614 168.40767736794796861
22.009497869018190385759 449.61789604654302366 22.009497869018190385759 170.19290464391431783
23.009497869018190385759 455.82230079315314697 23.009497869018190385759 171.86012606577438078
24.009497869018190385759 461.76952017177245580 24.009497869018190385759 173.42823972251639475
25.009497869018190385759 467.47803489268858357 25.009497869018190385759 174.90532219519337787
26.009497869018190385759 472.96410328946757318 26.009497869018190385759 176.29956373314010420
27.009497869018204596614 478.24255948462399601 27.009497869018204596614 177.62152133200072512
28.009497869018190385759 483.32626048804178254 28.009497869018190385759 178.87379447223236184
29.009497869018190385759 488.22672796472971868 29.009497869018190385759 180.05018339113527759
30.009497869018190385759 492.95466206498406336 30.009497869018190385759 181.17637101243670372
31.009497869018190385759 497.51986500192606400 31.009497869018190385759 182.24304464091798650
32.009497869018190385759 501.93136453263070962 32.009497869018190385759 183.25455455175932684
33.009497869018218807469 506.19755585358967664 33.009497869018218807469 184.20803551862357494
34.009497869018190385759 510.32644644967558634 34.009497869018190385759 185.12627730069050358
35.009497869018218807469 514.32518709969770043 35.009497869018218807469 185.99754572989610324
36.009497869018190385759 518.20039021446996230 36.009497869018190385759 186.83702144639190124
37.009497869018218807469 521.95818167571019330 37.009497869018218807469 187.64221057237355694
38.009497869018190385759 525.60439240562834584 38.009497869018190385759 188.41655073515588015
39.009497869018190385759 529.14435881102338044 39.009497869018190385759 189.16352865685917095
40.009497869018190385759 532.58307742531314943 40.009497869018190385759 189.87916137719508924
41.009497869018190385759 535.92534341349949045 41.009497869018190385759 190.57437522066283009
42.009497869018190385759 539.17554936763031037 42.009497869018190385759 191.23222300271183371
43.009497869018190385759 542.33784044376591282 43.009497869018190385759 191.87958536431216316
44.009497869018218807469 545.41620897831683124 44.009497869018218807469 192.47986136928352607
46.009497869018218807469 551.33600403581453975 46.009497869018218807469 193.62609499666058355
48.009497869018218807469 556.96041176026426456 48.009497869018218807469 194.67860381847540907
50.009497869018218807469 562.30970825942472402 50.009497869018218807469 195.58702801075571642
52.009497869018190385759 567.40411209512876667 52.009497869018190385759 196.39335268191359773
54.009497869018190385759 572.26285910763749598 54.009497869018190385759 197.11430033558164610
56.009497869018190385759 576.90119226274691755 56.009497869018190385759 197.75276715516210402
58.009497869018190385759 581.33225479820487180 58.009497869018190385759 198.31222530176589203
60.009497869018190385759 585.56912832398325008 60.009497869018190385759 198.89759532627718386
62.009497869018190385759 589.62281143243421866 62.009497869018190385759 199.45648102567355409
64.009497869018190385759 593.50483183096162065 64.009497869018190385759 199.98873485358106450
66.009497869018218807469 597.23073177456581107 66.009497869018218807469 200.55091849474217724
68.009497869018218807469 600.81396611686602682 68.009497869018218807469 201.11475977270771409
70.009497869018218807469 604.26252993009052261 70.009497869018218807469 201.57999839666535991
72.009497869018218807469 607.58478297582325922 72.009497869018218807469 201.89758629533696421
74.009497869018190385759 610.78847720019234657 74.009497869018190385759 202.18540528316890459
76.009497869018190385759 613.87985727284808490 76.009497869018190385759 202.43626831550810152
78.009497869018190385759 616.86693945338947742 78.009497869018190385759 202.74456230194800810
80.009497869018190385759 619.75468478422510543 80.009497869018190385759 202.89810421477284308
82.009497869018190385759 622.54301368382436976 82.009497869018190385759 203.10574020148777663
84.009497869018190385759 625.23318943748347465 84.009497869018190385759 203.26846985744427343
86.009497869018190385759 627.82743870607998815 86.009497869018190385759 203.22571343973464764
88.009497869018218807469 630.33227612582402344 88.009497869018218807469 203.24641637583121678
91.009497869018190385759 633.92779890624660766 91.009497869018190385759 203.16838420391752607
94.009497869018218807469 637.34197072829192621 94.009497869018218807469 203.23622996034026755
97.009497869018190385759 640.59939574708187138 97.009497869018190385759 203.54732715601559789
99.504748934509109403734 643.20695919920387951 99.504748934509109403734 203.70033879658780052
nan nan nan nan

