Time Pressure difference Time.1 Pressure.1 difference.1
(hr) (psi) (hr) (psi)
0.000200000000006639311 0.07489866062540719 0.000200000000006639311 0.05914703925254552
0.000399999999999067768 0.13594568471677337 0.000399999999999067768 0.11699794683723991
0.000600000000005707079 0.19024458161583904 0.000600000000005707079 0.15669824774386729
0.000799999999998135536 0.23997321884021125 0.000799999999998135536 0.19237728441039467
0.001007140329434719206 0.28786610043307181 0.001007140329434719206 0.22608798094975519
0.001267914553963578328 0.34408950447568459 0.001267914553963578328 0.26479354563236274
0.001596209851982166583 0.40980644697691471 0.001596209851982166583 0.30879767290398707
0.002009509145224797066 0.48629375840503891 0.002009509145224797066 0.35861395539259361
0.002529822128138903281 0.57495087198548944 0.002529822128138903281 0.41479973340410387
0.003184857364431081805 0.67731113955328315 0.003184857364431081805 0.47796845364958929
0.004009497869020606231 0.79505629376670828 0.004009497869020606231 0.54880449161649092
0.005047658755842121536 0.93003456530046258 0.005047658755842121536 0.62807988799488479
0.006354625877790454069 1.08428281774512114 0.006354625877790454069 0.71667237234150039
0.008000000000009777068 1.26005291597248892 0.008000000000009777068 0.81558412647309375
0.010071403294347192059 1.45984243268698588 0.010071403294347192059 0.92596092483181514
0.012679145539706837553 1.68642973358580561 0.012679145539706837553 1.04911131658113743
0.015962098519750611558 1.94291337969457256 0.015962098519750611558 1.18652496027370935
0.020095091452091651263 2.23275546149362780 0.020095091452091651263 1.33988852630883448
0.025298221281360611101 2.55982805063264296 0.025298221281360611101 1.51109978743806228
0.031848573644296607199 2.92846263736013723 0.031848573644296607199 1.70228912307376179
0.040094978690177640601 3.34350594170103843 0.040094978690177640601 1.91586582248447002
0.050476587558421215363 3.81038990400658184 0.050476587558421215363 2.15458975438673006
0.063546258777961384112 4.33521940661677263 0.063546258777961384112 2.42160840914154818
0.079999999999998294697 4.92485778275189556 0.079999999999998294697 2.72032922769303642
0.100714032943542974863 5.58695363932940037 0.100714032943542974863 3.05400913636617632
0.126791455396897845276 6.32983458970783186 0.126791455396897845276 3.42507843564279746
0.159620985197506115583 7.16221928262557395 0.159620985197506115583 3.83443424709373115
0.200950914520760193227 8.09278156862372633 0.200950914520760193227 4.28104863214634968
0.252982212813478213320 9.12967689438164065 0.252982212813478213320 4.76220276879481208
0.318485736442795541734 10.28020755310764045 0.318485736442795541734 5.27397410736560790
0.400949786901833249431 11.55056475610170530 0.400949786901833249431 5.81281286041299605
0.504765875584155310207 12.94620622904704454 0.504765875584155310207 6.37606936409246838
0.635462587779443310865 14.47182465942518803 0.635462587779443310865 6.96271327351193126
0.799999999999997157829 16.13203117604076553 0.799999999999997157829 7.57437383936095809
1.007140329435344483500 17.93176785186991751 1.007140329435344483500 8.21663848821302345
1.267914553968893187630 19.87753292821227902 1.267914553968893187630 8.89178321660835458
1.596209851975103788391 21.97442499670731664 1.596209851975103788391 9.61310479503037918
2.009509145207672986544 24.23377123062567051 2.009509145207672986544 10.38648861336943696
2.529822128134711078928 26.66175297783804155 2.529822128134711078928 11.22522134543415540
3.184857364427998049905 29.27344979373433986 3.184857364427998049905 12.14771450573275935
4.009497869018190385759 32.08039256688944363 4.009497869018190385759 13.15857034977119433
5.009497869018204596614 34.99310729439788048 5.009497869018204596614 14.22627968707594448
6.009497869018204596614 37.52548137255796945 6.009497869018204596614 15.16359150557317648
7.009497869018204596614 39.77595441680604438 7.009497869018204596614 15.99839729150287759
8.009497869018204596614 41.80630525205130255 8.009497869018204596614 16.74651106803207767
9.009497869018204596614 43.65830138124741211 9.009497869018204596614 17.42185336512060800
10.009497869018190385759 45.36184063341540451 10.009497869018190385759 18.03360799418053162
11.009497869018190385759 46.93927255428808820 11.009497869018190385759 18.58552865779209640
12.009497869018190385759 48.40788972626172182 12.009497869018190385759 19.08968922581448169
13.009497869018190385759 49.78136520147445765 13.009497869018190385759 19.55142075264784296
14.009497869018190385759 51.07090510428834307 14.009497869018190385759 19.97461032538880588
15.009497869018190385759 52.28554623089667786 15.009497869018190385759 20.36390251914141558
16.009497869018204596614 53.43278906079891755 16.009497869018204596614 20.72332398395576547
17.009497869018204596614 54.51921362277841610 17.009497869018204596614 21.05658637312659565
18.009497869018204596614 55.55052112896069616 18.009497869018204596614 21.36765987200746864
19.009497869018204596614 56.53155460009089950 19.009497869018204596614 21.65737301456132613
20.009497869018204596614 57.46669329985270736 20.009497869018204596614 21.92729529029762148
21.009497869018204596614 58.35951369013809398 21.009497869018204596614 22.17868965336814568
22.009497869018190385759 59.21307113112955989 22.009497869018190385759 22.41379770980121933
23.009497869018190385759 60.03016907766971855 23.009497869018190385759 22.63336481669796285
24.009497869018190385759 60.81339662976467508 24.009497869018190385759 22.83987978488497106
25.009497869018190385759 61.56518763095676405 25.009497869018190385759 23.03440627124198414
26.009497869018190385759 62.28768324571113624 26.009497869018190385759 23.21802290235550359
27.009497869018204596614 62.98283707498396211 27.009497869018204596614 23.39211999684830801
28.009497869018190385759 63.65234234105907518 28.009497869018190385759 23.55703989701274637
29.009497869018190385759 64.29771640606931271 29.009497869018190385759 23.71196611624326067
30.009497869018190385759 64.92036844159387954 30.009497869018190385759 23.86028100387001061
31.009497869018190385759 65.52158936409294654 31.009497869018190385759 24.00075811119232227
32.009497869018190385759 66.10256809693126456 32.009497869018190385759 24.13397035391473722
33.009497869018218807469 66.66441025750398808 33.009497869018218807469 24.25954039196158973
34.009497869018190385759 67.20817040297066569 34.009497869018190385759 24.38046955522486314
35.009497869018218807469 67.73479026536197978 35.009497869018218807469 24.49521249567828107
36.009497869018190385759 68.24514067556636121 36.009497869018190385759 24.60576844941322250
37.009497869018218807469 68.74002839032790746 37.009497869018218807469 24.71180898162955231
38.009497869018190385759 69.22022132127693794 38.009497869018190385759 24.81378681556740418
39.009497869018190385759 69.68642225413029223 39.009497869018190385759 24.91216114007743698
40.009497869018190385759 70.13928921449438292 40.009497869018190385759 25.00640741351453045
41.009497869018190385759 70.57945370847426148 41.009497869018190385759 25.09796459379264988
42.009497869018190385759 71.00749422475487904 42.009497869018190385759 25.18460079723214307
43.009497869018190385759 71.42395666558525136 43.009497869018190385759 25.26985610824646855
44.009497869018218807469 71.82936680741225643 44.009497869018218807469 25.34891031425832608
46.009497869018218807469 72.60898267435952391 46.009497869018218807469 25.49986518929235402
48.009497869018218807469 73.34969708449908410 48.009497869018218807469 25.63847684216528577
50.009497869018218807469 74.05418032880815815 50.009497869018218807469 25.75811306391648969
52.009497869018190385759 74.72509511967098206 52.009497869018190385759 25.86430314337701830
54.009497869018190385759 75.36497474855046619 54.009497869018190385759 25.95924937455204784
56.009497869018190385759 75.97582665960283066 56.009497869018190385759 26.04333317445215101
58.009497869018190385759 76.55938177029931069 58.009497869018190385759 26.11701181429506491
60.009497869018190385759 77.11736288195314160 60.009497869018190385759 26.19410295591596949
62.009497869018190385759 77.65121846989647736 62.009497869018190385759 26.26770620650611576
64.009497869018190385759 78.16246669202398323 64.009497869018190385759 26.33780213473500709
66.009497869018218807469 78.65315440781111533 66.009497869018218807469 26.41183971247720663
68.009497869018218807469 79.12505357342655543 68.009497869018218807469 26.48609559506641986
70.009497869018218807469 79.57921711132888731 70.009497869018218807469 26.54736586027512502
72.009497869018218807469 80.01674597226245567 72.009497869018218807469 26.58919105228768132
74.009497869018190385759 80.43866105984676551 74.009497869018190385759 26.62709578506019170
76.009497869018190385759 80.84578477477239744 76.009497869018190385759 26.66013355047986266
78.009497869018190385759 81.23917282979905963 78.009497869018190385759 26.70073476744404672
80.009497869018190385759 81.61947857649393256 80.009497869018190385759 26.72095568899910134
82.009497869018190385759 81.98669153425365153 82.009497869018190385759 26.74830060689236433
84.009497869018190385759 82.34097807324000939 84.009497869018190385759 26.76973152140449486
86.009497869018190385759 82.68263143673821958 86.009497869018190385759 26.76410065389362813
88.009497869018218807469 83.01250957907056716 88.009497869018218807469 26.76682715663848455
91.009497869018190385759 83.48602708809943351 91.009497869018190385759 26.75655059828378057
94.009497869018218807469 83.93566132359201504 94.009497869018218807469 26.76548564209838332
97.009497869018190385759 84.36465256490588160 97.009497869018190385759 26.80645603170741254
99.504748934509109403734 84.70805935882373205 99.504748934509109403734 26.82660711830062539
nan nan nan nan

