Time Pressure difference Time.1 Pressure.1 difference.1
(hr) (psi) (hr) (psi)
0.000200000000006639311 0.26722318748556290 0.000200000000006639311 0.21102460614679378
0.000399999999999067768 0.48502655309967446 0.000399999999999067768 0.41742487812269491
0.000600000000005707079 0.67875397339210375 0.000600000000005707079 0.55906747712006888
0.000799999999998135536 0.85617563670956731 0.000799999999998135536 0.68636302319301823
0.001007140329434719206 1.02704769730782397 0.001007140329434719206 0.80663593203260109
0.001267914553963578328 1.22764136766324761 0.001267914553963578328 0.94472951450190434
0.001596209851982166583 1.46210605234983970 0.001596209851982166583 1.10172729061507257
0.002009509145224797066 1.73499722278407953 0.002009509145224797066 1.27946165440916881
0.002529822128138903281 2.05130777208382220 0.002529822128138903281 1.47992108273837042
0.003184857364431081805 2.41650838772823873 0.003184857364431081805 1.70529422869895830
0.004009497869020606231 2.83659914979478156 0.004009497869020606231 1.95802280483510760
0.005047658755842121536 3.31817416941944687 0.005047658755842121536 2.24086129530378386
0.006354625877790454069 3.86850056161606837 0.006354625877790454069 2.55694126064213245
0.008000000000009777068 4.49561252224082963 0.008000000000009777068 2.90983828173874981
0.010071403294347192059 5.20842088272221204 0.010071403294347192059 3.30364024876435725
0.012679145539706837553 6.01683828677647625 0.012679145539706837553 3.74301579898863457
0.015962098519750611558 6.93191976992724701 0.015962098519750611558 4.23327973114603129
0.020095091452091651263 7.96601736685438322 0.020095091452091651263 4.78044974216965546
0.025298221281360611101 9.13294584166392021 0.025298221281360611101 5.39129669924935762
0.031848573644296607199 10.44815907058150728 0.031848573644296607199 6.07342136283096323
0.040094978690177640601 11.92894916488251766 0.040094978690177640601 6.83541958699967633
0.050476587558421215363 13.59469618293873516 0.050476587558421215363 7.68713802200689322
0.063546258777961384112 15.46718110326831841 0.063546258777961384112 8.63980627329315176
0.079999999999998294697 17.57089090286904920 0.079999999999998294697 9.70558139710820633
0.100714032943542974863 19.93311425557353900 0.100714032943542974863 10.89608344415390029
0.126791455396897845276 22.58356239209319583 0.126791455396897845276 12.21998323225099803
0.159620985197506115583 25.55334167784209143 0.159620985197506115583 13.68048150869882207
0.200950914520760193227 28.87339864737787209 0.200950914520760193227 15.27391079774248261
0.252982212813478213320 32.57283027571754985 0.252982212813478213320 16.99057089544589871
0.318485736442795541734 36.67768965981623808 0.318485736442795541734 18.81646694238068562
0.400949786901833249431 41.21006578236286799 0.400949786901833249431 20.73893401893111488
0.504765875584155310207 46.18943069854920935 0.504765875584155310207 22.74851866341465367
0.635462587779443310865 51.63252696286443921 0.635462587779443310865 24.84154481481799337
0.799999999999997157829 57.55580614502680703 0.799999999999997157829 27.02382530822850271
1.007140329435344483500 63.97690055624776306 1.007140329435344483500 29.31529494523460144
1.267914553968893187630 70.91899459980821518 1.267914553968893187630 31.72407401857726583
1.596209851975103788391 78.40027901367609786 1.596209851975103788391 34.29760270091347252
2.009509145207672986544 86.46116684824922061 2.009509145207672986544 37.05687886634350292
2.529822128134711078928 95.12371189550691497 2.529822128134711078928 40.04930666464219513
3.184857364427998049905 104.44171494205217243 3.184857364427998049905 43.34057463486009709
4.009497869018190385759 114.45631585305470423 4.009497869018190385759 46.94710268859044788
5.009497869018204596614 124.84828958425005396 5.009497869018204596614 50.75647244287264925
6.009497869018204596614 133.88328523599071218 6.009497869018204596614 54.10061037157886688
7.009497869018204596614 141.91251533453683464 7.009497869018204596614 57.07902762476874159
8.009497869018204596614 149.15639416197961964 8.009497869018204596614 59.74814542069071166
9.009497869018204596614 155.76393967377254057 9.009497869018204596614 62.15762937894725582
10.009497869018190385759 161.84182124294818550 10.009497869018190385759 64.34024547076273848
11.009497869018190385759 167.46977750301090282 11.009497869018190385759 66.30938614347859072
12.009497869018190385759 172.70950487081512392 12.009497869018190385759 68.10812850904997617
13.009497869018190385759 177.60978601543004629 13.009497869018190385759 69.75549268529442770
14.009497869018190385759 182.21060210936772705 14.009497869018190385759 71.26534700837871128
15.009497869018190385759 186.54419460345340553 15.009497869018190385759 72.65426237761471384
16.009497869018204596614 190.63732368301990050 16.009497869018204596614 73.93660506140150801
17.009497869018204596614 194.51346555245518744 17.009497869018204596614 75.12561748378216464
18.009497869018204596614 198.19296097705469606 18.009497869018204596614 76.23546445860291954
19.009497869018204596614 201.69308886981582418 19.009497869018204596614 77.26910202652813098
20.009497869018204596614 205.02947355286431730 20.009497869018204596614 78.23212980690931317
21.009497869018204596614 208.21487511481473121 21.009497869018204596614 79.12905376328805573
22.009497869018190385759 211.26019445936901775 22.009497869018190385759 79.96787149005349704
23.009497869018190385759 214.17543374321147098 23.009497869018190385759 80.75124226974443786
24.009497869018190385759 216.96983034856719996 24.009497869018190385759 81.48804567319129433
25.009497869018190385759 219.65206773417622799 25.009497869018190385759 82.18207661180403534
26.009497869018190385759 222.22978513935922251 26.009497869018190385759 82.83718340586158035
27.009497869018204596614 224.70995261498515561 27.009497869018204596614 83.45832642943337021
28.009497869018190385759 227.09861123377854142 28.009497869018190385759 84.04672709018953469
29.009497869018190385759 229.40117463521343666 29.009497869018190385759 84.59947232998655409
30.009497869018190385759 231.62267045687309519 30.009497869018190385759 85.12862968329893931
31.009497869018190385759 233.76770442612823331 31.009497869018190385759 85.62982343060988910
32.009497869018190385759 235.84051837972936028 32.009497869018190385759 86.10509761862799394
33.009497869018218807469 237.84505693567106732 33.009497869018218807469 86.55310597471040523
34.009497869018190385759 239.78508253941228645 34.009497869018190385759 86.98455663347175459
35.009497869018218807469 241.66395509929992613 35.009497869018218807469 87.39393610746233776
36.009497869018190385759 243.48478156282573082 36.009497869018190385759 87.78837726443191514
37.009497869018218807469 245.25044027396651813 37.009497869018218807469 88.16670831581390644
38.009497869018190385759 246.96367098523381856 38.009497869018190385759 88.53054448604979143
39.009497869018190385759 248.62698109312592010 39.009497869018190385759 88.88152406756441337
40.009497869018190385759 250.24271829917060472 40.009497869018190385759 89.21777560245439531
41.009497869018190385759 251.81313568870902486 41.009497869018190385759 89.54443299988733429
42.009497869018190385759 253.34029719171019224 42.009497869018190385759 89.85353335283670617
43.009497869018190385759 254.82615047636770100 43.009497869018190385759 90.15770696247257376
44.009497869018218807469 256.27257140610640818 44.009497869018218807469 90.43975629070131106
46.009497869018218807469 259.05408225343518325 46.009497869018218807469 90.97833258213628937
48.009497869018218807469 261.69680061503487423 48.009497869018218807469 91.47287076738632550
50.009497869018218807469 264.21025354600203627 50.009497869018218807469 91.89970847380374153
52.009497869018190385759 266.60394106255495217 52.009497869018190385759 92.27857307933663833
54.009497869018190385759 268.88690143338777716 54.009497869018190385759 92.61732192107129435
56.009497869018190385759 271.06629681095586193 56.009497869018190385759 92.91731581732504708
58.009497869018190385759 273.14830275674580662 58.009497869018190385759 93.18018621879848240
60.009497869018190385759 275.13906587544300919 60.009497869018190385759 93.45523173254764515
62.009497869018190385759 277.04375403242727316 62.009497869018190385759 93.71783316050063206
64.009497869018190385759 278.86778370628888979 64.009497869018190385759 93.96792117562236513
66.009497869018218807469 280.61845767532611262 66.009497869018218807469 94.23207219451613526
68.009497869018218807469 282.30209791875068959 68.009497869018218807469 94.49700208070306928
70.009497869018218807469 283.92246104974117316 70.009497869018218807469 94.71560192521887700
72.009497869018218807469 285.48347503663126190 72.009497869018218807469 94.86482570350095500
74.009497869018190385759 286.98878225589396607 74.009497869018190385759 95.00006208059610913
76.009497869018190385759 288.44131686592527331 76.009497869018190385759 95.11793410806798477
78.009497869018190385759 289.84484543513053723 78.009497869018190385759 95.26279099232155545
80.009497869018190385759 291.20169898901650640 80.009497869018190385759 95.33493512770019152
82.009497869018190385759 292.51184013492195390 82.009497869018190385759 95.43249623306512319
84.009497869018190385759 293.77586244774613533 84.009497869018190385759 95.50895737721434386
86.009497869018190385759 294.99481215988805616 86.009497869018190385759 95.48886758719675072
88.009497869018218807469 296.17175027787044428 88.009497869018218807469 95.49859519444747491
91.009497869018190385759 297.86116444143948456 91.009497869018190385759 95.46193052438536597
94.009497869018218807469 299.46536794264608261 94.009497869018218807469 95.49380894341881287
97.009497869018190385759 300.99592143919807086 97.009497869018190385759 95.63998296058322524
99.504748934509109403734 302.22112703444736326 99.504748934509109403734 95.71187793902171848
nan nan nan nan

