Time Pressure difference Time.1 Pressure.1 difference.1
(hr) (psi) (hr) (psi)
0.000200000000006639311 0.65568064767835266 0.000200000000006639311 0.51778721650745363
0.000399999999999067768 1.19010078230870242 0.000399999999999067768 1.02422778883787147
0.000600000000005707079 1.66544621024713324 0.000600000000005707079 1.37177364338487195
0.000799999999998135536 2.10078250052490034 0.000799999999998135536 1.68411639657574330
0.001007140329434719206 2.52004815040138297 0.001007140329434719206 1.97922783322963669
0.001267914553963578328 3.01224117053713725 0.001267914553963578328 2.31806553083246403
0.001596209851982166583 3.58754287904366853 0.001596209851982166583 2.70328810262558195
0.002009509145224797066 4.25713095281699250 0.002009509145224797066 3.13939166034363737
0.002529822128138903281 5.03325636238144547 0.002529822128138903281 3.63125529327490915
0.003184857364431081805 5.92934243354696111 0.003184857364431081805 4.18424925949174309
0.004009497869020606231 6.96011145305940371 0.004009497869020606231 4.80436474440538319
0.005047658755842121536 8.14174327080828597 0.005047658755842121536 5.49836037541284739
0.006354625877790454069 9.49206907398906985 0.006354625877790454069 6.27392000532855842
0.008000000000009777068 11.03080222203034921 0.008000000000009777068 7.13981697158225348
0.010071403294347192059 12.77980705903098624 0.010071403294347192059 8.10608165551919591
0.012679145539706837553 14.76340605757743241 0.012679145539706837553 9.18416940701961870
0.015962098519750611558 17.00872475613977386 0.015962098519750611558 10.38712105053171086
0.020095091452091651263 19.54607111629590932 0.020095091452091651263 11.72970209895784777
0.025298221281360611101 22.40934217206372736 0.025298221281360611101 13.22852610528405393
0.031848573644296607199 25.63645681689001776 0.031848573644296607199 14.90224291639996501
0.040094978690177640601 29.26984438794214327 0.040094978690177640601 16.77194402225811132
0.050476587558421215363 33.35705737998981846 0.050476587558421215363 18.86178996848721923
0.063546258777961384112 37.95153938165361041 0.063546258777961384112 21.19933463256965567
0.079999999999998294697 43.11337364053142096 0.079999999999998294697 23.81440756107547685
0.100714032943542974863 48.90951787650229221 0.100714032943542974863 26.73552065988356219
0.126791455396897845276 55.41287399295075744 0.126791455396897845276 29.98394935609330147
0.159620985197506115583 62.69976710976455792 0.159620985197506115583 33.56754726481207740
0.200950914520760193227 70.84613017278228142 0.200950914520760193227 37.47731556785745255
0.252982212813478213320 79.92335789742573127 0.252982212813478213320 41.68945305224610820
0.318485736442795541734 89.99537629118808013 0.318485736442795541734 46.16962078736163733
0.400949786901833249431 101.11638468689035619 0.400949786901833249431 50.88674309158156461
0.504765875584155310207 113.33416131021694184 0.504765875584155310207 55.81762417887728844
0.635462587779443310865 126.68978706090015862 0.635462587779443310865 60.95324416557478742
0.799999999999997157829 141.22362885466199600 0.799999999999997157829 66.30786589881245163
1.007140329435344483500 156.97895077103072481 1.007140329435344483500 71.93040303664452040
1.267914553968893187630 174.01263995629904002 1.267914553968893187630 77.84078019285111338
1.596209851975103788391 192.36933069151405107 1.596209851975103788391 84.15540045141001713
2.009509145207672986544 212.14818373929082895 2.009509145207672986544 90.92578591195447757
2.529822128134711078928 233.40331208564998633 2.529822128134711078928 98.26825126977527702
3.184857364427998049905 256.26672573667434563 3.184857364427998049905 106.34397529171135943
4.009497869018190385759 280.83936882709150495 4.009497869018190385759 115.19324721452241533
5.009497869018204596614 306.33796470434754156 5.009497869018204596614 124.54022810804617905
6.009497869018204596614 328.50696828688461437 6.009497869018204596614 132.74567818014483578
7.009497869018204596614 348.20814332678509118 7.009497869018204596614 140.05376611968196698
8.009497869018204596614 365.98231631668636510 8.009497869018204596614 146.60293163794182192
9.009497869018204596614 382.19512988837777812 9.009497869018204596614 152.51503835736940573
10.009497869018190385759 397.10831673150948973 10.009497869018190385759 157.87048354227530922
11.009497869018190385759 410.91753007270841636 11.009497869018190385759 162.70212799575622853
12.009497869018190385759 423.77415328159622732 12.009497869018190385759 167.11566923954543995
13.009497869018190385759 435.79788350104331585 13.009497869018190385759 171.15777658885781420
14.009497869018190385759 447.08682180279544127 14.009497869018190385759 174.86247852649694323
15.009497869018190385759 457.72007844505310459 15.009497869018190385759 178.27043476502612407
16.009497869018204596614 467.76331440512950621 16.009497869018204596614 181.41689555446023974
17.009497869018204596614 477.27413281635676867 17.009497869018204596614 184.33435358847265206
18.009497869018204596614 486.30244344251190114 18.009497869018204596614 187.05756481172642225
19.009497869018204596614 494.89064323638893939 19.009497869018204596614 189.59378240713431296
20.009497869018204596614 503.07706931142234907 20.009497869018204596614 191.95674605828341441
21.009497869018204596614 510.89303086366646767 21.009497869018204596614 194.15751196550249347
22.009497869018190385759 518.36527524115956567 22.009497869018190385759 196.21570367986998917
23.009497869018190385759 525.51834455282062208 23.009497869018190385759 198.13784623431351406
24.009497869018190385759 532.37490439446537493 24.009497869018190385759 199.94572726937437324
25.009497869018190385759 538.95626120998588249 25.009497869018190385759 201.64865828977093543
26.009497869018190385759 545.28115926118300649 26.009497869018190385759 203.25608184858674576
27.009497869018204596614 551.36670083439355494 27.009497869018204596614 204.78016912495172619
28.009497869018190385759 557.22770879927134047 28.009497869018190385759 206.22391706452683025
29.009497869018190385759 562.87746650397969006 29.009497869018190385759 207.58017794982447413
30.009497869018190385759 568.32831017090234127 30.009497869018190385759 208.87856166947221936
31.009497869018190385759 573.59154078905100960 31.009497869018190385759 210.10833160052260382
32.009497869018190385759 578.67756647567796335 32.009497869018190385759 211.27450318299932519
33.009497869018218807469 583.59606606781039773 33.009497869018218807469 212.37377309234170752
34.009497869018190385759 588.35627140905671695 34.009497869018190385759 213.43241568260410190
35.009497869018218807469 592.96642664507567133 35.009497869018218807469 214.43690261047171930
36.009497869018190385759 597.43415523610201490 36.009497869018190385759 215.40473566308352815
37.009497869018218807469 601.76651972210788699 37.009497869018218807469 216.33303964426548305
38.009497869018190385759 605.97024258372107397 38.009497869018190385759 217.22577780068749576
39.009497869018190385759 610.05147617386944603 39.009497869018190385759 218.08696998050839966
40.009497869018190385759 614.01598100485330178 40.009497869018190385759 218.91202422169925512
41.009497869018190385759 617.86928543096530575 41.009497869018190385759 219.71353750328648857
42.009497869018190385759 621.61645367942185203 42.009497869018190385759 220.47197138593898558
43.009497869018190385759 625.26226470804704149 43.009497869018190385759 221.21831660863222169
44.009497869018218807469 628.81132128861747788 44.009497869018218807469 221.91037588668515923
46.009497869018218807469 635.63626358146927942 46.009497869018218807469 223.23187068253392340
48.009497869018218807469 642.12065329057247709 48.009497869018218807469 224.44530998268422195
50.009497869018218807469 648.28786677676976069 50.009497869018218807469 225.49263385615029165
52.009497869018190385759 654.16121405610272177 52.009497869018190385759 226.42224700939368631
54.009497869018190385759 659.76287216315802198 54.009497869018190385759 227.25342884671411525
56.009497869018190385759 665.11041474042133359 56.009497869018190385759 227.98951838312774498
58.009497869018190385759 670.21899465016258546 58.009497869018190385759 228.63451867937968132
60.009497869018190385759 675.10369370387797971 60.009497869018190385759 229.30939282594232509
62.009497869018190385759 679.77719219833113584 62.009497869018190385759 229.95373314678656129
64.009497869018190385759 684.25278044797266830 64.009497869018190385759 230.56736953543443747
66.009497869018218807469 688.54837714634652457 66.009497869018218807469 231.21551205922844474
68.009497869018218807469 692.67949441821724577 68.009497869018218807469 231.86556567545432017
70.009497869018218807469 696.65534979663334525 70.009497869018218807469 232.40194011579836797
72.009497869018218807469 700.48558126565342263 72.009497869018218807469 232.76808777129807027
74.009497869018190385759 704.17912605781100410 74.009497869018190385759 233.09991479633202971
76.009497869018190385759 707.74318366389741186 76.009497869018190385759 233.38913523428558960
78.009497869018190385759 711.18699604391895264 78.009497869018190385759 233.74456792177713282
80.009497869018190385759 714.51628279252736320 80.009497869018190385759 233.92158666725484295
82.009497869018190385759 717.73095216003412133 82.009497869018190385759 234.16097056711706159
84.009497869018190385759 720.83246059031296227 84.009497869018190385759 234.34858187805798480
86.009497869018190385759 723.82337520466603564 86.009497869018190385759 234.29928792772980728
88.009497869018218807469 726.71120673881273433 88.009497869018218807469 234.32315637972504874
91.009497869018190385759 730.85649137293819422 91.009497869018190385759 234.23319294938258395
94.009497869018218807469 734.79269616330975623 94.009497869018218807469 234.31141244311552896
97.009497869018190385759 738.54818728430313968 97.009497869018190385759 234.67007695554030988
99.504748934509109403734 741.55445184461791541 99.504748934509109403734 234.84648434919108695
nan nan nan nan

