Time Pressure difference Time.1 Pressure.1 difference.1
(hr) (psi) (hr) (psi)
0.000200000000006639311 0.65695011650251212 0.000200000000006639311 0.51878970869817476
0.000399999999999067768 1.19240494645644435 0.000399999999999067768 1.02621080488596017
0.000600000000005707079 1.66867069468130014 0.000600000000005707079 1.37442954588900546
0.000799999999998135536 2.10484984321710744 0.000799999999998135536 1.68737702851490234
0.001007140329434719206 2.52492723684940135 0.001007140329434719206 1.98305983290675125
0.001267914553963578328 3.01807319603672486 0.001267914553963578328 2.32255355702962252
0.001596209851982166583 3.59448875102632792 0.001596209851982166583 2.70852196148836111
0.002009509145224797066 4.26537321990860363 0.002009509145224797066 3.14546986297741027
0.002529822128138903281 5.04300129241509687 0.002529822128138903281 3.63828579723091083
0.003184857364431081805 5.94082228336989804 0.003184857364431081805 4.19235041972309208
0.004009497869020606231 6.97358698346222905 0.004009497869020606231 4.81366651544973045
0.005047658755842121536 8.15750656852524436 0.005047658755842121536 5.50900579724326889
0.006354625877790454069 9.51044674886610508 0.006354625877790454069 6.28606699469027852
0.008000000000009777068 11.05215905111462860 0.008000000000009777068 7.15364043135298289
0.010071403294347192059 12.80455015111042627 0.010071403294347192059 8.12177590848244613
0.012679145539706837553 14.79198961238397203 0.012679145539706837553 9.20195095475828317
0.015962098519750611558 17.04165549138883762 0.015962098519750611558 10.40723164307872217
0.020095091452091651263 19.58391442920258285 0.020095091452091651263 11.75241207398003063
0.025298221281360611101 22.45272908817614521 0.025298221281360611101 13.25413796608808958
0.031848573644296607199 25.68609177684527367 0.031848573644296607199 14.93109527441816375
0.040094978690177640601 29.32651398017436151 0.040094978690177640601 16.80441632433412025
0.050476587558421215363 33.42164025971874253 0.050476587558421215363 18.89830843890055334
0.063546258777961384112 38.02501767668101706 0.063546258777961384112 21.24037884289409206
0.079999999999998294697 43.19684580634078230 0.079999999999998294697 23.86051483612112634
0.100714032943542974863 49.00421200598245264 0.100714032943542974863 26.78728352660163026
0.126791455396897845276 55.52015932497970852 0.126791455396897845276 30.04200153296860165
0.159620985197506115583 62.82116065692770945 0.159620985197506115583 33.63253767577975850
0.200950914520760193227 70.98329596208098735 0.200950914520760193227 37.54987571416501879
0.252982212813478213320 80.07809818377117494 0.252982212813478213320 41.77016835341212442
0.318485736442795541734 90.16961709717296003 0.318485736442795541734 46.25901017901190215
0.400949786901833249431 101.31215697089209016 0.400949786901833249431 50.98526534345297279
0.504765875584155310207 113.55358853443807732 0.504765875584155310207 55.92569315115003548
0.635462587779443310865 126.93507222461924755 0.635462587779443310865 61.07125625495635290
0.799999999999997157829 141.49705311188299106 0.799999999999997157829 66.43624511642873642
1.007140329435344483500 157.28287903970650063 1.007140329435344483500 72.06966809576677235
1.267914553968893187630 174.34954729406533147 1.267914553968893187630 77.99148838296309805
1.596209851975103788391 192.74177857281418369 1.596209851975103788391 84.31833443098679481
2.009509145207672986544 212.55892562455568395 2.009509145207672986544 91.10182809184210839
2.529822128134711078928 233.85520620391844204 2.529822128134711078928 98.45850925868094805
3.184857364427998049905 256.76288590266983647 3.184857364427998049905 106.54986875791021816
4.009497869018190385759 281.38310429432692672 4.009497869018190385759 115.41627383062022716
5.009497869018204596614 306.93106821781191229 5.009497869018204596614 124.78135149257289527
6.009497869018204596614 329.14299339489400609 6.009497869018204596614 133.00268820566299155
7.009497869018204596614 348.88231204571400212 7.009497869018204596614 140.32492539580911739
8.009497869018204596614 366.69089776163639272 8.009497869018204596614 146.88677080858641943
9.009497869018204596614 382.93510109822943832 9.009497869018204596614 152.81032400762569523
10.009497869018190385759 397.87716148800802785 10.009497869018190385759 158.17613791505806375
11.009497869018190385759 411.71311096345908709 11.009497869018190385759 163.01713695605781140
12.009497869018190385759 424.59462598882100792 12.009497869018190385759 167.43922329422025541
13.009497869018190385759 436.64163545361071783 13.009497869018190385759 171.48915660161455321
14.009497869018190385759 447.95243036388507107 14.009497869018190385759 175.20103124387637195
15.009497869018190385759 458.60627414388187617 15.009497869018190385759 178.61558565518109276
16.009497869018204596614 468.66895489768546668 16.009497869018204596614 181.76813833384929353
17.009497869018204596614 478.19818728453947188 17.009497869018204596614 184.69124488293240915
18.009497869018204596614 487.24397769893499799 18.009497869018204596614 187.41972853837060597
19.009497869018204596614 495.84880517876331396 19.009497869018204596614 189.96085652602519644
20.009497869018204596614 504.05108106226737164 20.009497869018204596614 192.32839513100032036
21.009497869018204596614 511.88217516349936886 21.009497869018204596614 194.53342195962741812
22.009497869018190385759 519.36888661626346675 22.009497869018190385759 196.59559855630729430
23.009497869018190385759 526.53580504566241416 23.009497869018190385759 198.52146258713895577
24.009497869018190385759 533.40563993056298386 24.009497869018190385759 200.33284387589785069
25.009497869018190385759 539.99973896644269189 25.009497869018190385759 202.03907195538522501
26.009497869018190385759 546.33688270602567627 26.009497869018190385759 203.64960766049105700
27.009497869018204596614 552.43420654752878818 27.009497869018204596614 205.17664573506780812
28.009497869018190385759 558.30656205928937652 28.009497869018190385759 206.62318892718803909
29.009497869018190385759 563.96725830747243435 29.009497869018190385759 207.98207568060828976
30.009497869018190385759 569.42865539872593672 30.009497869018190385759 209.28297321191067226
31.009497869018190385759 574.70207620200176279 31.009497869018190385759 210.51512411088179988
32.009497869018190385759 579.79794898579552864 32.009497869018190385759 211.68355352798093350
33.009497869018218807469 584.72597132641215012 33.009497869018218807469 212.78495174305291471
34.009497869018190385759 589.49539294131056977 34.009497869018190385759 213.84564398015027109
35.009497869018218807469 594.11447393770879444 35.009497869018218807469 214.85207570361882290
36.009497869018190385759 598.59085253568798635 36.009497869018190385759 215.82178258595493503
37.009497869018218807469 602.93160494906260283 37.009497869018218807469 216.75188386429309162
38.009497869018190385759 607.14346667391214396 38.009497869018190385759 217.64635045857849605
39.009497869018190385759 611.23260197478691680 39.009497869018190385759 218.50920999983176785
40.009497869018190385759 615.20478251696340521 40.009497869018190385759 219.33586163548764603
41.009497869018190385759 619.06554735822760449 41.009497869018190385759 220.13892673368977171
42.009497869018190385759 622.81997053068892001 42.009497869018190385759 220.89882902657004138
43.009497869018190385759 626.47284024475186470 43.009497869018190385759 221.64661925453472691
44.009497869018218807469 630.02876818365825784 44.009497869018218807469 222.34001843438446144
46.009497869018218807469 636.86692430476352911 46.009497869018218807469 223.66407178743716599
48.009497869018218807469 643.36386849539439936 48.009497869018218807469 224.87986043763618227
50.009497869018218807469 649.54302237556316868 50.009497869018218807469 225.92921204367428345
52.009497869018190385759 655.42774109202946420 52.009497869018190385759 226.86062502877300062
54.009497869018190385759 661.04024461652329592 54.009497869018190385759 227.69341612424889831
56.009497869018190385759 666.39814061600782225 56.009497869018190385759 228.43093080981336129
58.009497869018190385759 671.51661129033709585 58.009497869018190385759 229.07717989657112412
60.009497869018190385759 676.41076765102968693 60.009497869018190385759 229.75336067265277507
62.009497869018190385759 681.09331454527841743 62.009497869018190385759 230.39894850621888622
64.009497869018190385759 685.57756801902382904 64.009497869018190385759 231.01377296144687534
66.009497869018218807469 689.88148145834327352 66.009497869018218807469 231.66317035943990277
68.009497869018218807469 694.02059702115661821 68.009497869018218807469 232.31448254994697322
70.009497869018218807469 698.00415008665584082 70.009497869018218807469 232.85189546936231864
72.009497869018218807469 701.84179729908157697 72.009497869018218807469 233.21875202642158342
74.009497869018190385759 705.54249319441862554 74.009497869018190385759 233.55122150455338215
76.009497869018190385759 709.11345120245289309 76.009497869018190385759 233.84100190463271929
78.009497869018190385759 712.56393117662730674 78.009497869018190385759 234.19712274834395771
80.009497869018190385759 715.89966378534927571 80.009497869018190385759 234.37448422130569270
82.009497869018190385759 719.12055710129266117 82.009497869018190385759 234.61433159435253515
84.009497869018190385759 722.22807038816449676 84.009497869018190385759 234.80230614113261822
86.009497869018190385759 725.22477573749199564 86.009497869018190385759 234.75291675237207301
88.009497869018218807469 728.11819842659349433 88.009497869018218807469 234.77683141627824170
91.009497869018190385759 732.27150878121119604 91.009497869018190385759 234.68669380698062810
94.009497869018218807469 736.21533449082824063 94.009497869018218807469 234.76506474213414322
97.009497869018190385759 739.97809664981002697 97.009497869018190385759 235.12442366794212489
99.504748934509109403734 742.99018166425901200 99.504748934509109403734 235.30117260543343605
nan nan nan nan

