Time Pressure difference Time.1 Pressure.1 difference.1
(hr) (psi) (hr) (psi)
0.000200000000006639311 0.19042032362391656 0.000200000000006639311 0.15037382860816659
0.000399999999999067768 0.34562462216128820 0.000399999999999067768 0.29745240721332178
0.000600000000005707079 0.48367266512501456 0.000600000000005707079 0.39838537562000154
0.000799999999998135536 0.61010140383104550 0.000799999999998135536 0.48909479087388469
0.001007140329434719206 0.73186296720272492 0.001007140329434719206 0.57479995156717423
0.001267914553963578328 0.87480382493818110 0.001267914553963578328 0.67320392957380359
0.001596209851982166583 1.04188079739893569 0.001596209851982166583 0.78507882941691631
0.002009509145224797066 1.23634006374162442 0.002009509145224797066 0.91173039506591602
0.002529822128138903281 1.46173950504785433 0.002529822128138903281 1.05457559340026408
0.003184857364431081805 1.72197747344055019 0.003184857364431081805 1.21517403470234564
0.004009497869020606231 2.02132956042383460 0.004009497869020606231 1.39526565665209579
0.005047658755842121536 2.36449465754354859 0.005047658755842121536 1.59681327456326616
0.006354625877790454069 2.75665123155539282 0.006354625877790454069 1.82204840425805181
0.008000000000009777068 3.20352436264192120 0.008000000000009777068 2.07351896560956028
0.010071403294347192059 3.71146381191606523 0.010071403294347192059 2.35413794448766511
0.012679145539706837553 4.28753322098086187 0.012679145539706837553 2.66723216079950198
0.015962098519750611558 4.93961028735908236 0.015962098519750611558 3.01658888205180409
0.020095091452091651263 5.67649693600074823 0.020095091452091651263 3.40649625332754535
0.025298221281360611101 6.50803741686265091 0.025298221281360611101 3.84177912060524296
0.031848573644296607199 7.44524399328848485 0.031848573644296607199 4.32785370272990288
0.040094978690177640601 8.50043883483314922 0.040094978690177640601 4.87084531140119470
0.050476587558421215363 9.68743195933876677 0.050476587558421215363 5.47777056200016066
0.063546258777961384112 11.02174425411043934 0.063546258777961384112 6.15663154866495343
0.079999999999998294697 12.52082487140312317 0.079999999999998294697 6.91609125684670278
0.100714032943542974863 14.20411942202390065 0.100714032943542974863 7.76443000771061875
0.126791455396897845276 16.09279980434194712 0.126791455396897845276 8.70782653129524853
0.159620985197506115583 18.20903207447179994 0.159620985197506115583 9.74856164515355417
0.200950914520760193227 20.57486839480608154 0.200950914520760193227 10.88402194613478713
0.252982212813478213320 23.21104295181773125 0.252982212813478213320 12.10729517490206675
0.318485736442795541734 26.13612089773128844 0.318485736442795541734 13.40840874753967960
0.400949786901833249431 29.36584260025857418 0.400949786901833249431 14.77833778071100745
0.504765875584155310207 32.91408363317044916 0.504765875584155310207 16.21034584091305675
0.635462587779443310865 36.79277455786064621 0.635462587779443310865 17.70181340723372543
0.799999999999997157829 41.01363858315449562 0.799999999999997157829 19.25688264244311654
1.007140329435344483500 45.58924030136420669 1.007140329435344483500 20.88975886833819828
1.267914553968893187630 50.53610066494646702 1.267914553968893187630 22.60622851680090051
1.596209851975103788391 55.86718219501860005 1.596209851975103788391 24.44009693651791082
2.009509145207672986544 61.61128278972628891 2.009509145207672986544 26.40632698314263749
2.529822128134711078928 67.78411774026621117 2.529822128134711078928 28.53869833584954918
3.184857364427998049905 74.42402489932459275 3.184857364427998049905 30.88401992982904787
4.009497869018190385759 81.56032008531214217 4.009497869018190385759 33.45399241467252693
5.009497869018204596614 88.96552701965563870 5.009497869018204596614 36.16850767900663755
6.009497869018204596614 95.40376620141856279 6.009497869018204596614 38.55150382772841056
7.009497869018204596614 101.12530783933740963 7.009497869018204596614 40.67389141907511174
8.009497869018204596614 106.28721674250330409 8.009497869018204596614 42.57587559669171640
9.009497869018204596614 110.99568147774765237 9.009497869018204596614 44.29284753844222422
10.009497869018190385759 115.32671347478493828 10.009497869018190385759 45.84815591740812835
11.009497869018190385759 119.33713361259684405 11.009497869018190385759 47.25134404523414844
12.009497869018190385759 123.07090608371625251 12.009497869018190385759 48.53310820122325708
13.009497869018190385759 126.56279288510454251 13.009497869018190385759 49.70700191351146913
14.009497869018190385759 129.84128416344495349 14.009497869018190385759 50.78290760692069483
15.009497869018190385759 132.92935482431360583 15.009497869018190385759 51.77263352324089141
16.009497869018204596614 135.84607388338707779 16.009497869018204596614 52.68641690836211922
17.009497869018204596614 138.60817022740275206 17.009497869018204596614 53.53369416896591559
18.009497869018204596614 141.23013846345941147 18.009497869018204596614 54.32455899662915755
19.009497869018204596614 143.72429135616329177 19.009497869018204596614 55.06111783363049739
20.009497869018204596614 146.10176262674414716 20.009497869018204596614 55.74736090753632567
21.009497869018204596614 148.37164497492733517 21.009497869018204596614 56.38649911873257281
22.009497869018190385759 150.54170626558359913 22.009497869018190385759 56.98423146559631647
23.009497869018190385759 152.61907392627895774 23.009497869018190385759 57.54245292380838350
24.009497869018190385759 154.61033041465597648 24.009497869018190385759 58.06749097852110708
25.009497869018190385759 156.52166346853411483 25.009497869018190385759 58.56204984214064524
26.009497869018190385759 158.35851672638423793 26.009497869018190385759 59.02887178564957793
27.009497869018204596614 160.12585697029822995 27.009497869018204596614 59.47149151741095352
28.009497869018190385759 161.82798900269256137 28.009497869018190385759 59.89077939918494309
29.009497869018190385759 163.46877052390505014 29.009497869018190385759 60.28465961756761260
30.009497869018190385759 165.05178417354375142 30.009497869018190385759 60.66173136577121028
31.009497869018190385759 166.58031194260919960 31.009497869018190385759 61.01887655387878340
32.009497869018190385759 168.05737651762188989 32.009497869018190385759 61.35755174724085492
33.009497869018218807469 169.48578879026442223 33.009497869018218807469 61.67679760668199407
34.009497869018190385759 170.86822983806101206 34.009497869018190385759 61.98424463192762346
35.009497869018218807469 172.20709389498807695 35.009497869018218807469 62.27596397206342971
36.009497869018190385759 173.50459493788056875 36.009497869018190385759 62.55703843071157166
37.009497869018218807469 174.76278404320655113 37.009497869018218807469 62.82663300414291996
38.009497869018190385759 175.98361352867019036 38.009497869018190385759 63.08589868364593656
39.009497869018190385759 177.16887013761942171 39.009497869018190385759 63.33600289850196674
40.009497869018190385759 178.32022681651113771 40.009497869018190385759 63.57561206825728561
41.009497869018190385759 179.43928908934134370 41.009497869018190385759 63.80838456048978458
42.009497869018190385759 180.52752769005476807 42.009497869018190385759 64.02864609465798651
43.009497869018190385759 181.58633050572518641 43.009497869018190385759 64.24539688537238646
44.009497869018218807469 182.61703425613285390 44.009497869018218807469 64.44638215489403876
46.009497869018218807469 184.59910849413435585 46.009497869018218807469 64.83016573548903239
48.009497869018218807469 186.48228072330275040 48.009497869018218807469 65.18256824279309569
50.009497869018218807469 188.27333981900380877 50.009497869018218807469 65.48672812860124282
52.009497869018190385759 189.97905538899402700 52.009497869018190385759 65.75670290689072317
54.009497869018190385759 191.60586800478935743 54.009497869018190385759 65.99809163021707548
56.009497869018190385759 193.15888133797329829 56.009497869018190385759 66.21186400284445028
58.009497869018190385759 194.64249602618468771 58.009497869018190385759 66.39918257871626395
60.009497869018190385759 196.06109207276224993 60.009497869018190385759 66.59517700656601846
62.009497869018190385759 197.41835204210968868 62.009497869018190385759 66.78230391484605377
64.009497869018190385759 198.71813565768806598 64.009497869018190385759 66.96051390186866570
66.009497869018218807469 199.96564679951978860 66.009497869018218807469 67.14874503172170250
68.009497869018218807469 201.16539044091496180 68.009497869018218807469 67.33753117389767340
70.009497869018218807469 202.32004350337851406 70.009497869018218807469 67.49330303459778690
72.009497869018218807469 203.43240501422656052 72.009497869018218807469 67.59963826852799684
74.009497869018190385759 204.50507049113582525 74.009497869018190385759 67.69600623320387456
76.009497869018190385759 205.54013078331965403 76.009497869018190385759 67.78000055206744889
78.009497869018190385759 206.54026990626880433 78.009497869018190385759 67.88322398502724297
80.009497869018190385759 207.50714892328966243 80.009497869018190385759 67.93463310762483331
82.009497869018190385759 208.44074118878046420 82.009497869018190385759 68.00415408531956984
84.009497869018190385759 209.34146967772883841 84.009497869018190385759 68.05863946119787045
86.009497869018190385759 210.21007992391074026 86.009497869018190385759 68.04432369633974531
88.009497869018218807469 211.04875316712858080 88.009497869018218807469 68.05125548297920091
91.009497869018190385759 212.25261124093074727 91.009497869018190385759 68.02512863970451917
94.009497869018218807469 213.39574912777632676 94.009497869018218807469 68.04784485279250816
97.009497869018190385759 214.48640482603190094 97.009497869018190385759 68.15200686027307597
99.504748934509109403734 215.35947294616201475 99.504748934509109403734 68.20323843635752326
nan nan nan nan

