Time Pressure difference Time.1 Pressure.1 difference.1
(hr) (psi) (hr) (psi)
0.000200000000006639311 0.15043205566289405 0.000200000000006639311 0.11879532460045160
0.000399999999999067768 0.27304345150741771 0.000399999999999067768 0.23498740169852420
0.000600000000005707079 0.38210140544876142 0.000600000000005707079 0.31472444673980121
0.000799999999998135536 0.48198010902652605 0.000799999999998135536 0.38638488479036898
0.001007140329434719206 0.57817174409015282 0.001007140329434719206 0.45409196173806765
0.001267914553963578328 0.69109502170116310 0.001267914553963578328 0.53183110436330494
0.001596209851982166583 0.82308582994515911 0.001596209851982166583 0.62021227523936384
0.002009509145224797066 0.97670865035588328 0.002009509145224797066 0.72026701210207367
0.002529822128138903281 1.15477420898780503 0.002529822128138903281 0.83311471878620869
0.003184857364431081805 1.36036220401803454 0.003184857364431081805 0.95998748741485285
0.004009497869020606231 1.59685035273482945 0.004009497869020606231 1.10225986875515547
0.005047658755842121536 1.86795077945940369 0.005047658755842121536 1.26148248690498033
0.006354625877790454069 2.17775447292876034 0.006354625877790454069 1.43941823936386082
0.008000000000009777068 2.53078424648711753 0.008000000000009777068 1.63807998283155265
0.010071403294347192059 2.93205641141369178 0.010071403294347192059 1.85976897614525560
0.012679145539706837553 3.38715124457488059 0.012679145539706837553 2.10711340703160666
0.015962098519750611558 3.90229212701367567 0.015962098519750611558 2.38310521682092524
0.020095091452091651263 4.48443257944059148 0.020095091452091651263 2.69113204012876084
0.025298221281360611101 5.14134955932149396 0.025298221281360611101 3.03500550527814195
0.031848573644296607199 5.88174275469790331 0.031848573644296607199 3.41900442515662339
0.040094978690177640601 6.71534667951818776 0.040094978690177640601 3.84796779600694316
0.050476587558421215363 7.65307124787762572 0.050476587558421215363 4.32743874398012718
0.063546258777961384112 8.70717796074724681 0.063546258777961384112 4.86373892344531367
0.079999999999998294697 9.89145164840846824 0.079999999999998294697 5.46371209290889492
0.100714032943542974863 11.22125434339888272 0.100714032943542974863 6.13389970609138846
0.126791455396897845276 12.71331184543013748 0.126791455396897845276 6.87918295972324501
0.159620985197506115583 14.38513533883272011 0.159620985197506115583 7.70136369967130907
0.200950914520760193227 16.25414603189680562 0.200950914520760193227 8.59837733744648247
0.252982212813478213320 18.33672393193601025 0.252982212813478213320 9.56476318817263227
0.318485736442795541734 20.64753550920772085 0.318485736442795541734 10.59264291055634821
0.400949786901833249431 23.19901565420427403 0.400949786901833249431 11.67488684676169441
0.504765875584155310207 26.00212607020466038 0.504765875584155310207 12.80617321432131384
0.635462587779443310865 29.06629190070990987 0.635462587779443310865 13.98443259171464170
0.799999999999997157829 32.40077448069204991 0.799999999999997157829 15.21293728753005858
1.007140329435344483500 36.01549983807771582 1.007140329435344483500 16.50290950598717288
1.267914553968893187630 39.92351952530771086 1.267914553968893187630 17.85892052827271215
1.596209851975103788391 44.13507393406469248 1.596209851975103788391 19.30767657984915076
2.009509145207672986544 48.67291340388376142 2.009509145207672986544 20.86099831668268578
2.529822128134711078928 53.54945301481030384 2.529822128134711078928 22.54557168532114275
3.184857364427998049905 58.79497967046642515 3.184857364427998049905 24.39837574456495162
4.009497869018190385759 64.43265286739659814 4.009497869018190385759 26.42865400759129457
5.009497869018204596614 70.28276634552794633 5.009497869018204596614 28.57312106641524352
6.009497869018204596614 75.36897529912066318 6.009497869018204596614 30.45568802390544505
7.009497869018204596614 79.88899319307654423 7.009497869018204596614 32.13237422106933394
8.009497869018204596614 83.96690122657761890 8.009497869018204596614 33.63494172138645411
9.009497869018204596614 87.68658836742064011 9.009497869018204596614 34.99134955536936076
10.009497869018190385759 91.10810364508009229 10.009497869018190385759 36.22004317475241919
11.009497869018190385759 94.27633555395149756 11.009497869018190385759 37.32856179573497712
12.009497869018190385759 97.22601580613583394 12.009497869018190385759 38.34115547896637821
13.009497869018190385759 99.98460637923260208 13.009497869018190385759 39.26853151167406253
14.009497869018190385759 102.57461448912150104 14.009497869018190385759 40.11849700946734743
15.009497869018190385759 105.01419031120774150 15.009497869018190385759 40.90038048336030130
16.009497869018204596614 107.31839836787580111 16.009497869018204596614 41.62226935760607205
17.009497869018204596614 109.50045447964816958 17.009497869018204596614 42.29161839348307694
18.009497869018204596614 111.57180938613294074 18.009497869018204596614 42.91640160733703624
19.009497869018204596614 113.54219017136900050 19.009497869018204596614 43.49828308856809400
20.009497869018204596614 115.42039247512789757 20.009497869018204596614 44.04041511695369593
21.009497869018204596614 117.21359953019261013 21.009497869018204596614 44.54533430379873948
22.009497869018190385759 118.92794794981105611 22.009497869018190385759 45.01754285782109122
23.009497869018190385759 120.56906840176037576 23.009497869018190385759 45.45853780980862524
24.009497869018190385759 122.14216102757819726 24.009497869018190385759 45.87331787303167374
25.009497869018190385759 123.65211414014196123 25.009497869018190385759 46.26401937529110597
26.009497869018190385759 125.10322821384355052 26.009497869018190385759 46.63280871066316990
27.009497869018204596614 126.49942700653558347 27.009497869018204596614 46.98247829875465698
28.009497869018190385759 127.84411131212712576 28.009497869018190385759 47.31371572535610426
29.009497869018190385759 129.14032871388496915 29.009497869018190385759 47.62488109787841495
30.009497869018190385759 130.39090949709958522 30.009497869018190385759 47.92276777895925477
31.009497869018190385759 131.59844643466126968 31.009497869018190385759 48.20491247756424258
32.009497869018190385759 132.76532744892128335 32.009497869018190385759 48.47246588032027148
33.009497869018218807469 133.89377314430888077 33.009497869018218807469 48.72467010927878306
34.009497869018190385759 134.98590157206822937 34.009497869018190385759 48.96755325922282509
35.009497869018218807469 136.04360417704057795 35.009497869018218807469 49.19801153793009973
36.009497869018190385759 137.06863000092565130 36.009497869018190385759 49.42006036026214844
37.009497869018218807469 138.06259939413317284 37.009497869018218807469 49.63304007327291600
38.009497869018190385759 139.02705468764943930 38.009497869018190385759 49.83785996008028718
39.009497869018190385759 139.96340740871931985 39.009497869018190385759 50.03544228981655095
40.009497869018190385759 140.87297918504378913 40.009497869018190385759 50.22473353392325635
41.009497869018190385759 141.75703838057967232 41.009497869018190385759 50.40862380278693422
42.009497869018190385759 142.61674687514326365 42.009497869018190385759 50.58263041477980693
43.009497869018190385759 143.45320109952288590 43.009497869018190385759 50.75386353944417550
44.009497869018218807469 144.26745706234495970 44.009497869018218807469 50.91264190236629616
46.009497869018218807469 145.83329571036614425 46.009497869018218807469 51.21583093103633644
48.009497869018218807469 147.32100177140915775 48.009497869018218807469 51.49422891180654460
50.009497869018218807469 148.73593845701302030 50.009497869018218807469 51.73451522159498239
52.009497869018190385759 150.08345375730527849 52.009497869018190385759 51.94779529644366534
54.009497869018190385759 151.36863572378359777 54.009497869018190385759 52.13849238787148721
56.009497869018190385759 152.59551625699890565 56.009497869018190385759 52.30737256224711729
58.009497869018190385759 153.76757186068590499 58.009497869018190385759 52.45535423718585122
60.009497869018190385759 154.88826273748216522 60.009497869018190385759 52.61018983518715686
62.009497869018190385759 155.96049811326665235 62.009497869018190385759 52.75802009272837978
64.009497869018190385759 156.98732716957357525 64.009497869018190385759 52.89880598247624732
66.009497869018218807469 157.97286097162063356 66.009497869018218807469 53.04750857506014938
68.009497869018218807469 158.92065844832282551 68.009497869018218807469 53.19664962737916625
70.009497869018218807469 159.83283436766902241 70.009497869018218807469 53.31970939733224668
72.009497869018218807469 160.71159996123896008 72.009497869018218807469 53.40371423213711921
74.009497869018190385759 161.55900568799731332 74.009497869018190385759 53.47984492423106673
76.009497869018190385759 162.37670331882250707 76.009497869018190385759 53.54620043613328306
78.009497869018190385759 163.16681322595235315 78.009497869018190385759 53.62774694817152010
80.009497869018190385759 163.93064764939882139 80.009497869018190385759 53.66836015502362045
82.009497869018190385759 164.66818553913657297 82.009497869018190385759 53.72328172740246544
84.009497869018190385759 165.37976104540578604 84.009497869018190385759 53.76632517434631353
86.009497869018190385759 166.06596313988947600 86.009497869018190385759 53.75501572010838913
88.009497869018218807469 166.72851500203157116 88.009497869018218807469 53.76049183155356559
91.009497869018190385759 167.67956288033528267 91.009497869018190385759 53.73985162536657612
94.009497869018218807469 168.58264181094330070 94.009497869018218807469 53.75779743370607378
97.009497869018190385759 169.44425981256517844 97.009497869018190385759 53.84008541961573258
99.504748934509109403734 170.13398362746801240 99.504748934509109403734 53.88055836472243953
nan nan nan nan

