Time Pressure difference Time.1 Pressure.1 difference.1
(hr) (psi) (hr) (psi)
0.000200000000006639311 0.42717625932965281 0.000200000000006639311 0.33733862217765370
0.000399999999999067768 0.77535123571515652 0.000399999999999067768 0.66728490018188524
0.000600000000005707079 1.08503901209711584 0.000600000000005707079 0.89371119264087018
0.000799999999998135536 1.36866081592764544 0.000799999999998135536 1.09720264752708152
0.001007140329434719206 1.64181258975811306 0.001007140329434719206 1.28946789134902762
0.001267914553963578328 1.96247658061131958 0.001267914553963578328 1.51022081534389940
0.001596209851982166583 2.33728592216494535 0.001596209851982166583 1.76119350732528224
0.002009509145224797066 2.77352287632704364 0.002009509145224797066 2.04531518626453801
0.002529822128138903281 3.27916895632401983 0.002529822128138903281 2.36576458119459243
0.003184857364431081805 3.86296946541830044 0.003184857364431081805 2.72604041784892859
0.004009497869020606231 4.53451598055080218 0.004009497869020606231 3.13004595642286798
0.005047658755842121536 5.30434968175602783 0.005047658755842121536 3.58218444593692720
0.006354625877790454069 6.18408759612259828 0.006354625877790454069 4.08746192021889687
0.008000000000009777068 7.18657298686004342 0.008000000000009777068 4.65159421285078079
0.010071403294347192059 8.32605048473170761 0.010071403294347192059 5.28111612213399617
0.012679145539706837553 9.61836619240039958 0.012679145539706837553 5.98349081406021632
0.015962098519750611558 11.08119241130887644 0.015962098519750611558 6.76721439206954667
0.020095091452091651263 12.73427479309501287 0.020095091452091651263 7.64190659496479263
0.025298221281360611101 14.59969727182854626 0.025298221281360611101 8.61839116055776167
0.031848573644296607199 16.70216402494383701 0.031848573644296607199 9.70881847312408119
0.040094978690177640601 19.06931778614236350 0.040094978690177640601 10.92692964857667803
0.050476587558421215363 21.73213902878330117 0.050476587558421215363 12.28846529408702715
0.063546258777961384112 24.72544627672108675 0.063546258777961384112 13.81137677417171261
0.079999999999998294697 28.08838379484767245 0.079999999999998294697 15.51509805285943600
0.100714032943542974863 31.86457457007361782 0.100714032943542974863 17.41820465063081969
0.126791455396897845276 36.10151422774043084 0.126791455396897845276 19.53455751853900679
0.159620985197506115583 40.84892862039840367 0.159620985197506115583 21.86927329062780956
0.200950914520760193227 46.15628809901497931 0.200950914520760193227 24.41648923249570657
0.252982212813478213320 52.07010635524444098 0.252982212813478213320 27.16069884236363663
0.318485736442795541734 58.63203121391052974 0.318485736442795541734 30.07953029031401826
0.400949786901833249431 65.87737356658007570 0.400949786901833249431 33.15273775472835638
0.504765875584155310207 73.83726095041238580 0.504765875584155310207 36.36520916978162177
0.635462587779443310865 82.53845759146739169 0.635462587779443310865 39.71106807689432117
0.799999999999997157829 92.00726255487657568 0.799999999999997157829 43.19960672788072031
1.007140329435344483500 102.27186240939370521 1.007140329435344483500 46.86269239463868530
1.267914553968893187630 113.36931915836325402 1.267914553968893187630 50.71330597269002283
1.596209851975103788391 125.32871205749171395 1.596209851975103788391 54.82728412758851277
2.009509145207672986544 138.21464439161928794 2.009509145207672986544 59.23819353218331685
2.529822128134711078928 152.06237079733051587 2.529822128134711078928 64.02181326675582795
3.184857364427998049905 166.95789585748482864 3.184857364427998049905 69.28315137591650341
4.009497869018190385759 182.96698472471692298 4.009497869018190385759 75.04845631691536312
5.009497869018204596614 199.57933228076080923 5.009497869018204596614 81.13801889323821115
6.009497869018204596614 214.02244884518231061 6.009497869018204596614 86.48387358687074311
7.009497869018204596614 226.85777391958021099 7.009497869018204596614 91.24509641679183858
8.009497869018204596614 238.43765622568241724 8.009497869018204596614 95.51188092191176793
9.009497869018204596614 249.00031211508056117 9.009497869018204596614 99.36362131123873098
10.009497869018190385759 258.71626056176756947 10.009497869018190385759 102.85269644138557510
11.009497869018190385759 267.71296973759223192 11.009497869018190385759 106.00051514147527598
12.009497869018190385759 276.08906598113674136 12.009497869018190385759 108.87593939807750587
13.009497869018190385759 283.92253203891789326 13.009497869018190385759 111.50937429264405409
14.009497869018190385759 291.27728080666150845 14.009497869018190385759 113.92298939819208670
15.009497869018190385759 298.20485265587677759 15.009497869018190385759 116.14327453713706007
16.009497869018204596614 304.74802574506503561 16.009497869018204596614 118.19319526442568247
17.009497869018204596614 310.94432854347348893 17.009497869018204596614 120.09392058571354767
18.009497869018204596614 316.82627728636060738 18.009497869018204596614 121.86809401577141898
19.009497869018204596614 322.42149360899298927 19.009497869018204596614 123.52044100677774452
20.009497869018204596614 327.75495415932942933 20.009497869018204596614 125.05991296923983214
21.009497869018204596614 332.84705689375368820 21.009497869018204596614 126.49371302302343167
22.009497869018190385759 337.71522772245924671 22.009497869018190385759 127.83462592115438383
23.009497869018190385759 342.37545584128577048 23.009497869018190385759 129.08690272574347091
24.009497869018190385759 346.84250789687820316 24.009497869018190385759 130.26473809514902769
25.009497869018190385759 351.13026504774495606 25.009497869018190385759 131.37419847920216398
26.009497869018190385759 355.25093918952194372 26.009497869018190385759 132.42143570580725509
27.009497869018204596614 359.21567247003565626 27.009497869018204596614 133.41437930405857060
28.009497869018190385759 363.03412199604031230 28.009497869018190385759 134.35498178550489001
29.009497869018190385759 366.71494187529361852 29.009497869018190385759 135.23858640874334469
30.009497869018190385759 370.26616916264987367 30.009497869018190385759 136.08448403054674714
31.009497869018190385759 373.69516645791998144 31.009497869018190385759 136.88567973586808080
32.009497869018190385759 377.00871465453172959 32.009497869018190385759 137.64544108631031349
33.009497869018218807469 380.21311951949314789 33.009497869018218807469 138.36161596432327769
34.009497869018190385759 383.31439560338355932 34.009497869018190385759 139.05132212429097649
35.009497869018218807469 386.31791397108992214 35.009497869018218807469 139.70574584399560081
36.009497869018190385759 389.22864131064540061 36.009497869018190385759 140.33628954622963647
37.009497869018218807469 392.05117887026005974 37.009497869018218807469 140.94108003929397910
38.009497869018190385759 394.78990634931682280 38.009497869018190385759 141.52269938031238894
39.009497869018190385759 397.44883200872624229 39.009497869018190385759 142.08376650230607652
40.009497869018190385759 400.03170882503997063 40.009497869018190385759 142.62128973979051239
41.009497869018190385759 402.54213852375573879 41.009497869018190385759 143.14347603069873571
42.009497869018190385759 404.98342045135620992 42.009497869018190385759 143.63759607234939608
43.009497869018190385759 407.35866810117681780 43.009497869018190385759 144.12384034618537498
44.009497869018218807469 409.67088018125804183 44.009497869018218807469 144.57471730081229566
46.009497869018218807469 414.11733338850808650 46.009497869018218807469 145.43567179994707317
48.009497869018218807469 418.34191642260913113 48.009497869018218807469 146.22622809133252986
50.009497869018218807469 422.35985899396524701 50.009497869018218807469 146.90856010182878322
52.009497869018190385759 426.18634758930994622 52.009497869018190385759 147.51420352112484125
54.009497869018190385759 429.83583055741081580 54.009497869018190385759 148.05571889045361900
56.009497869018190385759 433.31975713485343249 56.009497869018190385759 148.53528157971439327
58.009497869018190385759 436.64799941874093747 58.009497869018190385759 148.95549958492014753
60.009497869018190385759 439.83038321656329117 60.009497869018190385759 149.39518041806311999
62.009497869018190385759 442.87516974779947532 62.009497869018190385759 149.81496844897134224
64.009497869018190385759 445.79101765874690955 64.009497869018190385759 150.21475285319203863
66.009497869018218807469 448.58960098692273277 66.009497869018218807469 150.63701802116236195
68.009497869018218807469 451.28102588911923476 68.009497869018218807469 151.06052826677711209
70.009497869018218807469 453.87129759257913975 70.009497869018218807469 151.40997647428099526
72.009497869018218807469 456.36669524858160685 72.009497869018218807469 151.64852184906447974
74.009497869018190385759 458.77304146844801380 74.009497869018190385759 151.86470731648736887
76.009497869018190385759 461.09502672391374745 76.009497869018190385759 152.05313457180463388
78.009497869018190385759 463.33867215639634196 78.009497869018190385759 152.28469913974444694
80.009497869018190385759 465.50770408457975691 80.009497869018190385759 152.40002693810504297
82.009497869018190385759 467.60206273349751882 82.009497869018190385759 152.55598566473358346
84.009497869018190385759 469.62269697703840166 84.009497869018190385759 152.67821452462052889
86.009497869018190385759 471.57127929597311322 86.009497869018190385759 152.64609949212211859
88.009497869018218807469 473.45270293825836916 88.009497869018218807469 152.66164980015000197
91.009497869018190385759 476.15335788382128612 91.009497869018190385759 152.60303858173716662
94.009497869018218807469 478.71779720997818686 94.009497869018218807469 152.65399861976450779
97.009497869018190385759 481.16450149306490403 97.009497869018190385759 152.88766872321261303
99.504748934509109403734 483.12308430922348634 99.504748934509109403734 153.00259822556202494
nan nan nan nan

