Time Pressure difference Time.1 Pressure.1 difference.1
(hr) (psi) (hr) (psi)
0.000200000000006639311 0.34783445781968758 0.000200000000006639311 0.27468286025758432
0.000399999999999067768 0.63134097648128640 0.000399999999999067768 0.54334639717633448
0.000600000000005707079 0.88350873496169313 0.000600000000005707079 0.72771728613253628
0.000799999999998135536 1.11445189766470976 0.000799999999998135536 0.89341315132962951
0.001007140329434719206 1.33686968675697782 0.001007140329434719206 1.04996791152937163
0.001267914553963578328 1.59797498688707740 0.001267914553963578328 1.22971917802148134
0.001596209851982166583 1.90316892324872233 0.001596209851982166583 1.43407732840156710
0.002009509145224797066 2.25838118310136693 0.002009509145224797066 1.66542752165373997
0.002529822128138903281 2.67011082922074738 0.002529822128138903281 1.92635808394448227
0.003184857364431081805 3.14547885148473849 0.003184857364431081805 2.21971790338961794
0.004009497869020606231 3.69229533037420454 0.004009497869020606231 2.54868526615116142
0.005047658755842121536 4.31914357444621633 0.005047658755842121536 2.91684558153556672
0.006354625877790454069 5.03548291630785094 0.006354625877790454069 3.32827508511137449
0.008000000000009777068 5.85177116909257666 0.008000000000009777068 3.78762797718013022
0.010071403294347192059 6.77960722976667984 0.010071403294347192059 4.30022531193080226
0.012679145539706837553 7.83189401699170684 0.012679145539706837553 4.87214408039375702
0.015962098519750611558 9.02302145824259227 0.015962098519750611558 5.51030235788129463
0.020095091452091651263 10.36906773642803259 0.020095091452091651263 6.22253315607831592
0.025298221281360611101 11.88801501480244305 0.025298221281360611101 7.01764986030557747
0.031848573644296607199 13.59997902774029832 0.031848573644296607199 7.90554609698662247
0.040094978690177640601 15.52746827162855325 0.040094978690177640601 8.89741076882618209
0.050476587558421215363 17.69570904572547931 0.050476587558421215363 10.00606089325362724
0.063546258777961384112 20.13305283750840502 0.063546258777961384112 11.24611362889464772
0.079999999999998294697 22.87137343176303617 0.079999999999998294697 12.63339336250664502
0.100714032943542974863 25.94619147756365862 0.100714032943542974863 14.18302548075139491
0.126791455396897845276 29.39618097593128709 0.126791455396897845276 15.90629646383264983
0.159620985197506115583 33.26183192270182332 0.159620985197506115583 17.80737260514716169
0.200950914520760193227 37.58342626784577334 0.200950914520760193227 19.88148008827287327
0.252982212813478213320 42.39883845865372791 0.252982212813478213320 22.11599251948777223
0.318485736442795541734 47.74198083985582741 0.318485736442795541734 24.49269331217248080
0.400949786901833249431 53.64160581647233528 0.400949786901833249431 26.99509701276543794
0.504765875584155310207 60.12305943659136886 0.504765875584155310207 29.61089840273451657
0.635462587779443310865 67.20813485902544926 0.635462587779443310865 32.33531249054694001
0.799999999999997157829 74.91824647856221020 0.799999999999997157829 35.17590562686275035
1.007140329435344483500 83.27634561715861139 1.007140329435344483500 38.15862619949777468
1.267914553968893187630 92.31261054796888743 1.267914553968893187630 41.29404409068964554
1.596209851975103788391 102.05071947623396511 1.596209851975103788391 44.64391040403938149
2.009509145207672986544 112.54327656256667467 2.009509145207672986544 48.23555728920722174
2.529822128134711078928 123.81898840555295749 2.529822128134711078928 52.13068896015184350
3.184857364427998049905 135.94788548276625306 3.184857364427998049905 56.41480973848773317
4.009497869018190385759 148.98351802250351739 4.009497869018190385759 61.10929281080181852
5.009497869018204596614 162.51036268923760986 5.009497869018204596614 66.06780736031878121
6.009497869018204596614 174.27087959459123567 6.009497869018204596614 70.42074699198390419
7.009497869018204596614 184.72222898652299250 7.009497869018204596614 74.29764165884387239
8.009497869018204596614 194.15131591630603225 8.009497869018204596614 77.77193275662354210
9.009497869018204596614 202.75211149935239519 9.009497869018204596614 80.90826817022113460
10.009497869018190385759 210.66346328060714654 10.009497869018190385759 83.74929814246551985
11.009497869018190385759 217.98916406567690274 11.009497869018190385759 86.31245512262771058
12.009497869018190385759 224.80952177958832294 12.009497869018190385759 88.65381098090114165
13.009497869018190385759 231.18803500345762814 13.009497869018190385759 90.79812349534761040
14.009497869018190385759 237.17674573855944686 14.009497869018190385759 92.76344456197513466
15.009497869018190385759 242.81762147907946314 15.009497869018190385759 94.57134390245336419
16.009497869018204596614 248.14549496032043407 16.009497869018204596614 96.24052155260812924
17.009497869018204596614 253.19092428205567558 17.009497869018204596614 97.78821468197773470
18.009497869018204596614 257.98038625991921435 18.009497869018204596614 99.23286110050926823
19.009497869018204596614 262.53637221059165086 19.009497869018204596614 100.57830857609836528
20.009497869018204596614 266.87921973151929933 20.009497869018204596614 101.83184592443301142
21.009497869018204596614 271.02553815420060346 21.009497869018204596614 102.99933839021818471
22.009497869018190385759 274.98951677846605435 22.009497869018190385759 104.09119614382260011
23.009497869018190385759 278.78417503866955940 23.009497869018190385759 105.11088067415664682
24.009497869018190385759 282.42153689077156287 24.009497869018190385759 106.06995018743189974
25.009497869018190385759 285.91290526918902515 25.009497869018190385759 106.97334437831024445
26.009497869018190385759 289.26822388686190379 26.009497869018190385759 107.82607246178656624
27.009497869018204596614 292.49656539907806518 27.009497869018204596614 108.63459117180400426
28.009497869018190385759 295.60579324491840225 28.009497869018190385759 109.40049036917781677
29.009497869018190385759 298.60295415699982868 29.009497869018190385759 110.11997823475684299
30.009497869018190385759 301.49459242367328216 30.009497869018190385759 110.80876262814207678
31.009497869018190385759 304.28670314849944134 31.009497869018190385759 111.46114783841858298
32.009497869018190385759 306.98480777218929916 32.009497869018190385759 112.07979452495995076
33.009497869018218807469 309.59404085688299801 33.009497869018218807469 112.66295029487245927
34.009497869018190385759 312.11929983752480666 34.009497869018190385759 113.22455352765445014
35.009497869018218807469 314.56495818151154253 35.009497869018218807469 113.75742752230252108
36.009497869018190385759 316.93506008652849459 36.009497869018190385759 114.27085686676647924
37.009497869018218807469 319.23335218559060422 37.009497869018218807469 114.76331628756776126
38.009497869018190385759 321.46340071237091252 38.009497869018190385759 115.23690826212659033
39.009497869018190385759 323.62846945138483079 39.009497869018190385759 115.69376529459690062
40.009497869018190385759 325.73161431816032518 40.009497869018190385759 116.13145137801663509
41.009497869018190385759 327.77576806986354541 41.009497869018190385759 116.55664913049467657
42.009497869018190385759 329.76361724716673507 42.009497869018190385759 116.95899353290859324
43.009497869018190385759 331.69769705712468522 43.009497869018190385759 117.35492497728021988
44.009497869018218807469 333.58044924120264341 44.009497869018218807469 117.72205806960646157
46.009497869018218807469 337.20103818261878814 46.009497869018218807469 118.42310274349330257
48.009497869018218807469 340.64096612123302066 48.009497869018218807469 119.06682465683540784
50.009497869018218807469 343.91263406938026037 50.009497869018218807469 119.62242338157827248
52.009497869018190385759 347.02840784389576356 52.009497869018190385759 120.11557730992038273
54.009497869018190385759 350.00005222208187661 54.009497869018190385759 120.55651404452986242
56.009497869018190385759 352.83688991069789154 56.009497869018190385759 120.94700491186253544
58.009497869018190385759 355.54695940783068409 58.009497869018190385759 121.28917351045504347
60.009497869018190385759 358.13826151957903221 60.009497869018190385759 121.64718999866060756
62.009497869018190385759 360.61752306358704345 62.009497869018190385759 121.98900848445212830
64.009497869018190385759 362.99179446804350846 64.009497869018190385759 122.31453872741342082
66.009497869018218807469 365.27058148712285401 66.009497869018218807469 122.65837425794498472
68.009497869018218807469 367.46211320540464840 68.009497869018218807469 123.00322361098642432
70.009497869018218807469 369.57127946617140424 70.009497869018218807469 123.28776687653193278
72.009497869018218807469 371.60319315932053996 72.009497869018218807469 123.48200590384448105
74.009497869018190385759 373.56259543047480065 74.009497869018190385759 123.65803805265241522
76.009497869018190385759 375.45330556419725099 76.009497869018190385759 123.81146767510988127
78.009497869018190385759 377.28022636211767349 78.009497869018190385759 124.00002247931641364
80.009497869018190385759 379.04639203320908791 80.009497869018190385759 124.09392980992804212
82.009497869018190385759 380.75175390483900628 82.009497869018190385759 124.22092146251708300
84.009497869018190385759 382.39708461131800732 84.009497869018190385759 124.32044808245477441
86.009497869018190385759 383.98374599434362153 86.009497869018190385759 124.29429795198056752
88.009497869018218807469 385.51572245195484356 88.009497869018218807469 124.30696001557532782
91.009497869018190385759 387.71476986676685783 91.009497869018190385759 124.25923498186025995
94.009497869018218807469 389.80290174007143378 94.009497869018218807469 124.30072993110096036
97.009497869018190385759 391.79516614888490267 97.009497869018190385759 124.49099919809881953
99.504748934509109403734 393.38997058165591625 99.504748934509109403734 124.58458221041307468
nan nan nan nan

