Time Pressure difference Time.1 Pressure.1 difference.1
(hr) (psi) (hr) (psi)
0.000200000000006639311 0.39036166342902895 0.000200000000006639311 0.30826634864674152
0.000399999999999067768 0.70853047543064085 0.000399999999999067768 0.60977743478730961
0.000600000000005707079 0.99152896350627984 0.000600000000005707079 0.81669002002100322
0.000799999999998135536 1.25070787785364357 0.000799999999998135536 1.00264432129146375
0.001007140329434719206 1.50031908276558612 0.001007140329434719206 1.17833990071270711
0.001267914553963578328 1.79334784112327150 0.001267914553963578328 1.38006805562629742
0.001596209851982166583 2.13585563466781814 0.001596209851982166583 1.60941160030467834
0.002009509145224797066 2.53449713067032967 0.002009509145224797066 1.86904730988512768
0.002529822128138903281 2.99656598534810126 0.002529822128138903281 2.16187996647054126
0.003184857364431081805 3.53005382055312777 0.003184857364431081805 2.49110677113980827
0.004009497869020606231 4.14372559886886105 0.004009497869020606231 2.86029459613679604
0.005047658755842121536 4.84721404796427535 0.005047658755842121536 3.27346721285469622
0.006354625877790454069 5.65113502468855522 0.006354625877790454069 3.73519922872900612
0.008000000000009777068 6.56722494341593865 0.008000000000009777068 4.25071387949959867
0.010071403294347192059 7.60850081442793424 0.010071403294347192059 4.82598278619971399
0.012679145539706837553 8.78944310301076648 0.012679145539706837553 5.46782592963897862
0.015962098519750611558 10.12620108908612160 0.015962098519750611558 6.18400720820619743
0.020095091452091651263 11.63681871880153373 0.020095091452091651263 6.98331731932146837
0.025298221281360611101 13.34147670456843571 0.025298221281360611101 7.87564719724074802
0.031848573644296607199 15.26275018624139435 0.031848573644296607199 8.87210009059629989
0.040094978690177640601 17.42589961140795296 0.040094978690177640601 9.98523288837244749
0.050476587558421215363 19.85923551664447118 0.050476587558421215363 11.22942965210032895
0.063546258777961384112 22.59457572092640376 0.063546258777961384112 12.62109467476315317
0.079999999999998294697 25.66769098637640312 0.079999999999998294697 14.17798707653574120
0.100714032943542974863 29.11844481514899741 0.100714032943542974863 15.91708151580676578
0.126791455396897845276 32.99023959890098467 0.126791455396897845276 17.85104438915525904
0.159620985197506115583 37.32851575266718669 0.159620985197506115583 19.98455137256478764
0.200950914520760193227 42.17848020935246467 0.200950914520760193227 22.31224498957631397
0.252982212813478213320 47.58263805122634693 0.252982212813478213320 24.81995510854923381
0.318485736442795541734 53.57904784034914769 0.318485736442795541734 27.48723793245634539
0.400949786901833249431 60.19997733053008204 0.400949786901833249431 30.29559245045756555
0.504765875584155310207 67.47387144799942860 0.504765875584155310207 33.23120897387176598
0.635462587779443310865 75.42518784361432438 0.635462587779443310865 36.28871748482913517
0.799999999999997157829 84.07795909546670998 0.799999999999997157829 39.47660941700838322
1.007140329435344483500 93.45794261779661838 1.007140329435344483500 42.82400568009330755
1.267914553968893187630 103.59900636314026201 1.267914553968893187630 46.34276845944184942
1.596209851975103788391 114.52772349978812372 1.596209851975103788391 50.10219871986172535
2.009509145207672986544 126.30312971893889085 2.009509145207672986544 54.13297031544240667
2.529822128134711078928 138.95744136754572651 2.529822128134711078928 58.50433158849157422
3.184857364427998049905 152.56925104361539525 3.184857364427998049905 63.31224085614955754
4.009497869018190385759 167.19865617488989074 4.009497869018190385759 68.58068445007867808
5.009497869018204596614 182.37933039029402948 5.009497869018204596614 74.14544074196359702
6.009497869018204596614 195.57772071290804661 6.009497869018204596614 79.03058284684324519
7.009497869018204596614 207.30688107064167980 7.009497869018204596614 83.38147740910397943
8.009497869018204596614 217.88879432213178688 8.009497869018204596614 87.28054497321801364
9.009497869018204596614 227.54114702938269943 9.009497869018204596614 90.80033745380656285
10.009497869018190385759 236.41976262330911140 10.009497869018190385759 93.98871963068665991
11.009497869018190385759 244.64112390582351964 11.009497869018190385759 96.86525529272999790
12.009497869018190385759 252.29535747161830272 12.009497869018190385759 99.49287181250768697
13.009497869018190385759 259.45372541446437253 13.009497869018190385759 101.89935392269850922
14.009497869018190385759 266.17463253506213050 14.009497869018190385759 104.10496059418741766
15.009497869018190385759 272.50517738984285643 15.009497869018190385759 106.13389872264383484
16.009497869018204596614 278.48445146094354641 16.009497869018204596614 108.00715466214234084
17.009497869018204596614 284.14674896617560762 17.009497869018204596614 109.74407304638012306
18.009497869018204596614 289.52178385009182193 18.009497869018204596614 111.36534594308977830
19.009497869018204596614 294.63479728013476233 19.009497869018204596614 112.87529155894250721
20.009497869018204596614 299.50861338482553720 20.009497869018204596614 114.28208986044946016
21.009497869018204596614 304.16187219860103141 21.009497869018204596614 115.59232319340179629
22.009497869018190385759 308.61049784444645638 22.009497869018190385759 116.81767450447244983
23.009497869018190385759 312.86910154887181079 23.009497869018190385759 117.96202849380718192
24.009497869018190385759 316.95117735004470205 24.009497869018190385759 119.03835650596829510
25.009497869018190385759 320.86941011049498229 25.009497869018190385759 120.05220217638830604
26.009497869018190385759 324.63495928908764654 26.009497869018190385759 121.00918716058164648
27.009497869018204596614 328.25800678911133446 27.009497869018204596614 121.91655761069245045
28.009497869018190385759 331.74737745551976786 28.009497869018190385759 122.77609776832913724
29.009497869018190385759 335.11097957400534142 29.009497869018190385759 123.58355221601361507
30.009497869018190385759 338.35615755576475294 30.009497869018190385759 124.35654929983098782
31.009497869018190385759 341.48963948234887766 31.009497869018190385759 125.08869693545150881
32.009497869018190385759 344.51762186112483732 32.009497869018190385759 125.78298108184374371
33.009497869018218807469 347.44586702004204426 33.009497869018218807469 126.43743509369809885
34.009497869018190385759 350.27987116802512446 34.009497869018190385759 127.06770149545161530
35.009497869018218807469 353.02454248472554355 35.009497869018218807469 127.66572614273003694
36.009497869018190385759 355.68441962265512757 36.009497869018190385759 128.24192878295875175
37.009497869018218807469 358.26370728857347103 37.009497869018218807469 128.79459765849301789
38.009497869018190385759 360.76640773377391724 38.009497869018190385759 129.32609230147417634
39.009497869018190385759 363.19618378211981735 39.009497869018190385759 129.83880594192902436
40.009497869018190385759 365.55646497384782379 40.009497869018190385759 130.33000473992743196
41.009497869018190385759 367.85054263314975742 41.009497869018190385759 130.80718834900406478
42.009497869018190385759 370.08143176461226176 42.009497869018190385759 131.25872449404886311
43.009497869018190385759 372.25197753673660372 43.009497869018190385759 131.70306361501337733
44.009497869018218807469 374.36492022507235333 44.009497869018218807469 132.11508341753278728
46.009497869018218807469 378.42817241297547071 46.009497869018218807469 132.90183975775252634
48.009497869018218807469 382.28867548277059996 48.009497869018218807469 133.62426489772587956
50.009497869018218807469 385.96034662895783640 50.009497869018218807469 134.24779266363253782
52.009497869018190385759 389.45706354743776956 52.009497869018190385759 134.80124095912597681
54.009497869018190385759 392.79202940981821257 54.009497869018190385759 135.29608784194499549
56.009497869018190385759 395.97570674284526149 56.009497869018190385759 135.73432120583112237
58.009497869018190385759 399.01711685367860127 58.009497869018190385759 136.11832428636833470
60.009497869018190385759 401.92523874916258819 60.009497869018190385759 136.52011286346035490
62.009497869018190385759 404.70762168632489875 62.009497869018190385759 136.90372302543440242
64.009497869018190385759 407.37217809826051962 64.009497869018190385759 137.26905349883077179
66.009497869018218807469 409.92957593901559221 66.009497869018218807469 137.65492731502951074
68.009497869018218807469 412.38905040387567169 68.009497869018218807469 138.04193890649023047
70.009497869018218807469 414.75608918192591545 70.009497869018218807469 138.36127122092543118
72.009497869018218807469 417.03643027916444908 72.009497869018218807469 138.57925845048239921
74.009497869018190385759 419.23539450682841334 74.009497869018190385759 138.77681277806794924
76.009497869018190385759 421.35726810580530355 76.009497869018190385759 138.94900113173827094
78.009497869018190385759 423.40755330785106025 78.009497869018190385759 139.16060916930581470
80.009497869018190385759 425.38965529274378241 80.009497869018190385759 139.26599787063091185
82.009497869018190385759 427.30351943699997719 82.009497869018190385759 139.40851587490513452
84.009497869018190385759 429.15001283934412868 84.009497869018190385759 139.52021089545561949
86.009497869018190385759 430.93066384401703317 86.009497869018190385759 139.49086357749644094
88.009497869018218807469 432.64994399261354374 88.009497869018218807469 139.50507374010734907
91.009497869018190385759 435.11785304390804185 91.009497869018190385759 139.45151371139428420
94.009497869018218807469 437.46128571194145707 94.009497869018218807469 139.49808194822463747
97.009497869018190385759 439.69712989336539977 97.009497869018190385759 139.71161406355980716
99.504748934509109403734 441.48691953963214019 99.504748934509109403734 139.81663879453293475
nan nan nan nan

