Time Pressure difference Time.1 Pressure.1 difference.1
(hr) (psi) (hr) (psi)
0.000200000000006639311 0.06601237885629108 0.000200000000006639311 0.05212959391749775
0.000399999999999067768 0.11981653568257992 0.000399999999999067768 0.10311683450061822
0.000600000000005707079 0.16767319057667171 0.000600000000005707079 0.13810693021493387
0.000799999999998135536 0.21150181999476247 0.000799999999998135536 0.16955286083628004
0.001007140329434719206 0.25371249529694467 0.001007140329434719206 0.19926398320995373
0.001267914553963578328 0.30326532597856942 0.001267914553963578328 0.23337736225225189
0.001596209851982166583 0.36118534309829764 0.001596209851982166583 0.27216066086453100
0.002009509145224797066 0.42859788876376309 0.002009509145224797066 0.31606653695618420
0.002529822128138903281 0.50673636174992276 0.002529822128138903281 0.36558620571209155
0.003184857364431081805 0.59695219079272410 0.003184857364431081805 0.42126033203014646
0.004009497869020606231 0.70072758094692933 0.004009497869020606231 0.48369209430605992
0.005047658755842121536 0.81969148128176361 0.005047658755842121536 0.55356193518193231
0.006354625877790454069 0.95563909360586952 0.006354625877790454069 0.63164344680945794
0.008000000000009777068 1.11055511238253257 0.008000000000009777068 0.71881990807798091
0.010071403294347192059 1.28664078813090277 0.010071403294347192059 0.81610115408905737
0.012679145539706837553 1.48634484994003202 0.012679145539706837553 0.92464048241049401
0.015962098519750611558 1.71239823295114890 0.015962098519750611558 1.04575081244462531
0.020095091452091651263 1.96785227114692596 0.020095091452091651263 1.18091870115354891
0.025298221281360611101 2.25611963784571934 0.025298221281360611101 1.33181676180981756
0.031848573644296607199 2.58101791767334143 0.031848573644296607199 1.50032261694636615
0.040094978690177640601 2.94681879607549169 0.040094978690177640601 1.68855970795241395
0.050476587558421215363 3.35830974590410580 0.050476587558421215363 1.89896046149338882
0.063546258777961384112 3.82087134142495266 0.063546258777961384112 2.13429893687051742
0.079999999999998294697 4.34055262208641590 0.079999999999998294697 2.39757830237352332
0.100714032943542974863 4.92409473296828537 0.100714032943542974863 2.69166906933968075
0.126791455396897845276 5.57883726550520809 0.126791455396897845276 3.01871319751568601
0.159620985197506115583 6.31246445248355670 0.159620985197506115583 3.37950137031989906
0.200950914520760193227 7.13262104353277593 0.200950914520760193227 3.77312760799339264
0.252982212813478213320 8.04649488996348161 0.252982212813478213320 4.19719566063271632
0.318485736442795541734 9.06052191121351314 0.318485736442795541734 4.64824836581375589
0.400949786901833249431 10.18015876808963860 0.400949786901833249431 5.12315709731314950
0.504765875584155310207 11.41021565949909267 0.504765875584155310207 5.61958655818319297
0.635462587779443310865 12.75482851339169166 0.635462587779443310865 6.13662864784102435
0.799999999999997157829 14.21806137549355675 0.799999999999997157829 6.67571931604694591
1.007140329435344483500 15.80426997113959153 1.007140329435344483500 7.24178307435724111
1.267914553968893187630 17.51918156384811098 1.267914553968893187630 7.83682588582431272
1.596209851975103788391 19.36728982760644868 1.596209851975103788391 8.47256693799287497
2.009509145207672986544 21.35857803377177788 2.009509145207672986544 9.15419335415611535
2.529822128134711078928 23.49849414995895103 2.529822128134711078928 9.89341542309451150
3.184857364427998049905 25.80032863176585778 3.184857364427998049905 10.70646024234073757
4.009497869018190385759 28.27424429624154101 4.009497869018190385759 11.59738403708647603
5.009497869018204596614 30.84138270014728178 5.009497869018204596614 12.53841599538896823
6.009497869018204596614 33.07330561649176559 6.009497869018204596614 13.36452132694584982
7.009497869018204596614 35.05677338430363221 7.009497869018204596614 14.10028235861270574
8.009497869018204596614 36.84623513740114475 8.009497869018204596614 14.75963687351979559
9.009497869018204596614 38.47850291228585462 9.009497869018204596614 15.35485381332663835
10.009497869018190385759 39.97992733792544584 10.009497869018190385759 15.89402738470148257
11.009497869018190385759 41.37020631903357071 11.009497869018190385759 16.38046593568116904
12.009497869018190385759 42.66458077568829310 12.009497869018190385759 16.82481084309072727
13.009497869018190385759 43.87510153350291375 13.009497869018190385759 17.23176066335064149
14.009497869018190385759 45.01164517666091314 14.009497869018190385759 17.60474130373251000
15.009497869018190385759 46.08217633909537625 15.009497869018190385759 17.94784628805684434
16.009497869018204596614 47.09330561290752826 16.009497869018204596614 18.26462452823220062
17.009497869018204596614 48.05083234549961446 17.009497869018204596614 18.55834731190818587
18.009497869018204596614 48.95978133399925980 18.009497869018204596614 18.83251378549810795
19.009497869018204596614 49.82442100346993641 19.009497869018204596614 19.08785418232523767
20.009497869018204596614 50.64861104393797575 20.009497869018204596614 19.32575178127925852
21.009497869018204596614 51.43550359130814087 21.009497869018204596614 19.54731969449396090
22.009497869018190385759 52.18779150540231626 22.009497869018190385759 19.75453357474005500
23.009497869018190385759 52.90794562777670507 23.009497869018190385759 19.94805034692024037
24.009497869018190385759 53.59824787708073046 24.009497869018190385759 20.13006353922065372
25.009497869018190385759 54.26084333575850138 25.009497869018190385759 20.30151061194208850
26.009497869018190385759 54.89761913181320097 26.009497869018190385759 20.46334221902518991
27.009497869018204596614 55.51029708303671839 27.009497869018204596614 20.61678372603579845
28.009497869018190385759 56.10036952093341966 28.009497869018190385759 20.76213685838411394
29.009497869018190385759 56.66917378162041530 29.009497869018190385759 20.89868200075677507
30.009497869018190385759 57.21795184682851243 30.009497869018190385759 21.02940020680068756
31.009497869018190385759 57.74784147343785889 31.009497869018190385759 21.15321053867797829
32.009497869018190385759 58.25989052610891861 32.009497869018190385759 21.27061793904349685
33.009497869018218807469 58.75507344729165737 33.009497869018218807469 21.38128983698309327
34.009497869018190385759 59.23431967719449176 34.009497869018190385759 21.48787147240157580
35.009497869018218807469 59.69845921692920143 35.009497869018218807469 21.58900084364865535
36.009497869018190385759 60.14825957846525739 36.009497869018190385759 21.68643998931334949
37.009497869018218807469 60.58443180164493924 37.009497869018218807469 21.77989944143621415
38.009497869018190385759 61.00765268993899326 38.009497869018190385759 21.86977821033059044
39.009497869018190385759 61.41854164770806079 39.009497869018190385759 21.95648100481401244
40.009497869018190385759 61.81767862972386496 40.009497869018190385759 22.03954551699585807
41.009497869018190385759 62.20562021763832661 41.009497869018190385759 22.12023998096979227
42.009497869018190385759 62.58287626588565189 42.009497869018190385759 22.19659731281476667
43.009497869018190385759 62.94992790865140364 43.009497869018190385759 22.27173758692909189
44.009497869018218807469 63.30723854212605772 44.009497869018218807469 22.34141248036326743
46.009497869018218807469 63.99435761129991107 46.009497869018218807469 22.47445745496953151
48.009497869018218807469 64.64719065074494608 48.009497869018218807469 22.59662365750160617
50.009497869018218807469 65.26809113725465750 50.009497869018218807469 22.70206575124842985
52.009497869018190385759 65.85940586818459508 52.009497869018190385759 22.79565700772211656
54.009497869018190385759 66.42336757499364808 54.009497869018190385759 22.87933843180858418
56.009497869018190385759 66.96174553049741007 56.009497869018190385759 22.95344618765274447
58.009497869018190385759 67.47606528907735424 58.009497869018190385759 23.01838329395497240
60.009497869018190385759 67.96784525189092108 60.009497869018190385759 23.08632802894288716
62.009497869018190385759 68.43836204126469624 62.009497869018190385759 23.15119869047996559
64.009497869018190385759 68.88895369466519014 64.009497869018190385759 23.21297815264780340
66.009497869018218807469 69.32142422383353164 66.009497869018218807469 23.27823161099685834
68.009497869018218807469 69.73733535285052199 68.009497869018218807469 23.34367747361786272
70.009497869018218807469 70.13761508117121934 70.009497869018218807469 23.39767838532722877
72.009497869018218807469 70.52323373826520481 72.009497869018218807469 23.43454126642303947
74.009497869018190385759 70.89509110359374233 74.009497869018190385759 23.46794882751067490
76.009497869018190385759 71.25391200488415677 76.009497869018190385759 23.49706685805004724
78.009497869018190385759 71.60062690083985615 78.009497869018190385759 23.53285098147610910
80.009497869018190385759 71.93581162674041707 80.009497869018190385759 23.55067281064327744
82.009497869018190385759 72.25945694544390108 82.009497869018190385759 23.57477341624412048
84.009497869018190385759 72.57170948827933898 84.009497869018190385759 23.59366167988192586
86.009497869018190385759 72.87282770695571799 86.009497869018190385759 23.58869888139777515
88.009497869018218807469 73.16356776460456501 88.009497869018218807469 23.59110190076611957
91.009497869018190385759 73.58090523018933027 91.009497869018190385759 23.58204459509757100
94.009497869018218807469 73.97719303096245369 94.009497869018218807469 23.58991954896806575
97.009497869018190385759 74.35528700635772736 97.009497869018190385759 23.62602904489466837
99.504748934509109403734 74.65795062133616966 99.504748934509109403734 23.64378932460394012
nan nan nan nan

