Time Pressure difference Time.1 Pressure.1 difference.1
(hr) (psi) (hr) (psi)
0.000200000000006639311 0.62140498942604772 0.000200000000006639311 0.49071992735798370
0.000399999999999067768 1.12788835031967061 0.000399999999999067768 0.97068635553947347
0.000600000000005707079 1.57838513052463059 0.000600000000005707079 1.30006427577327166
0.000799999999998135536 1.99096424783531223 0.000799999999998135536 1.59607933421844383
0.001007140329434719206 2.38831281630489256 0.001007140329434719206 1.87576384194754531
0.001267914553963578328 2.85477648204826462 0.001267914553963578328 2.19688882350917902
0.001596209851982166583 3.40000433551186010 0.001596209851982166583 2.56197391333053703
0.002009509145224797066 4.03458974134350079 0.002009509145224797066 2.97528018923177262
0.002529822128138903281 4.77014325147283191 0.002529822128138903281 3.44143168646286179
0.003184857364431081805 5.61938648832766230 0.003184857364431081805 3.96551793324532120
0.004009497869020606231 6.59627213218311326 0.004009497869020606231 4.55321692620800622
0.005047658755842121536 7.71613423245044849 0.005047658755842121536 5.21093398599145896
0.006354625877790454069 8.99587185230909903 0.006354625877790454069 5.94595129256210964
0.008000000000009777068 10.45416783675480232 0.008000000000009777068 6.76658355777253195
0.010071403294347192059 12.11174357288609293 0.010071403294347192059 7.68233682551141506
0.012679145539706837553 13.99165007780087855 0.012679145539706837553 8.70406761807570817
0.015962098519750611558 16.11959490441514120 0.015962098519750611558 9.84413505176238601
0.020095091452091651263 18.52430166781577725 0.020095091452091651263 11.11653277335889101
0.025298221281360611101 21.23789543702844895 0.025298221281360611101 12.53700586357511071
0.031848573644296607199 24.29631289809809047 0.031848573644296607199 14.12322924990858297
0.040094978690177640601 27.73976539767217631 0.040094978690177640601 15.89519186620589686
0.050476587558421215363 31.61331962730884015 0.050476587558421215363 17.87579126732719104
0.063546258777961384112 35.96762541591373719 0.063546258777961384112 20.09114095380996545
0.079999999999998294697 40.85962516367886366 0.079999999999998294697 22.56951113484307214
0.100714032943542974863 46.35277638053799620 0.100714032943542974863 25.33792325849564975
0.126791455396897845276 52.51617002816921342 0.126791455396897845276 28.41654058046015763
0.159620985197506115583 59.42214133635963691 0.159620985197506115583 31.81280616868443190
0.200950914520760193227 67.14265386171719285 0.200950914520760193227 35.51819161755319243
0.252982212813478213320 75.74537016609853879 0.252982212813478213320 39.51013992076374137
0.318485736442795541734 85.29087452959645077 0.318485736442795541734 43.75610721280448701
0.400949786901833249431 95.83053301884382336 0.400949786901833249431 48.22664229105358658
0.504765875584155310207 107.40962625624625559 0.504765875584155310207 52.89976192751294093
0.635462587779443310865 120.06708764048524074 0.635462587779443310865 57.76691775227271819
0.799999999999997157829 133.84117390969416306 0.799999999999997157829 62.84162702317269122
1.007140329435344483500 148.77288751678520384 1.007140329435344483500 68.17024644034364655
1.267914553968893187630 164.91614183660865933 1.267914553968893187630 73.77165905982694483
1.596209851975103788391 182.31323789641069766 1.596209851975103788391 79.75618300283677797
2.009509145207672986544 201.05815283714011343 2.009509145207672986544 86.17264705498881483
2.529822128134711078928 221.20217089240207997 2.529822128134711078928 93.13128556932235824
3.184857364427998049905 242.87040125479592234 3.184857364427998049905 100.78485170434213103
4.009497869018190385759 266.15851121173528782 4.009497869018190385759 109.17152857988135395
5.009497869018204596614 290.32416984080953171 5.009497869018204596614 118.02989672582498315
6.009497869018204596614 311.33429037062927591 6.009497869018204596614 125.80640749115372046
7.009497869018204596614 330.00558791570438189 7.009497869018204596614 132.73246566424845128
8.009497869018204596614 346.85061730303578997 8.009497869018204596614 138.93927403053729108
9.009497869018204596614 362.21590722238317994 9.009497869018204596614 144.54232580044978818
10.009497869018190385759 376.34950830604816474 10.009497869018190385759 149.61781547714184626
11.009497869018190385759 389.43684602244098869 11.009497869018190385759 154.19688606761411620
12.009497869018190385759 401.62139018652732148 12.009497869018190385759 158.37970976332525197
13.009497869018190385759 413.01658078172448540 13.009497869018190385759 162.21051624442574735
14.009497869018190385759 423.71539065337532293 14.009497869018190385759 165.72155515725120267
15.009497869018190385759 433.79279457667666975 15.009497869018190385759 168.95136073084279360
16.009497869018204596614 443.31102110611988110 16.009497869018204596614 171.93334051095504833
17.009497869018204596614 452.32466217542429376 17.009497869018204596614 174.69828863805875585
18.009497869018204596614 460.88101851908919571 18.009497869018204596614 177.27914419233314902
19.009497869018204596614 469.02027079227951845 19.009497869018204596614 179.68278119708085683
20.009497869018204596614 476.77875203860844522 20.009497869018204596614 181.92222109492686855
21.009497869018204596614 484.18613476817961327 21.009497869018204596614 184.00794212413066475
22.009497869018190385759 491.26776811335457751 22.009497869018190385759 185.95854201606263700
23.009497869018190385759 498.04691124609024655 23.009497869018190385759 187.78020470802803743
24.009497869018190385759 504.54504491982731906 24.009497869018190385759 189.49357889324056714
25.009497869018190385759 510.78236178564969805 25.009497869018190385759 191.10748931818562824
26.009497869018190385759 516.77662625043387834 26.009497869018190385759 192.63088492716980227
27.009497869018204596614 522.54404657973987014 27.009497869018204596614 194.07530065181776990
28.009497869018190385759 528.09867077878675445 28.009497869018190385759 195.44357677267353779
29.009497869018190385759 533.45308780967684470 29.009497869018190385759 196.72893921866233313
30.009497869018190385759 538.61898901966446829 30.009497869018190385759 197.95945002363339427
31.009497869018190385759 543.60708463938135537 31.009497869018190385759 199.12493382082445237
32.009497869018190385759 548.42723870250608798 32.009497869018190385759 200.23014386849598623
33.009497869018218807469 553.08862408556285573 33.009497869018218807469 201.27194952313891463
34.009497869018190385759 557.59999003820587404 34.009497869018190385759 202.27525164885713593
35.009497869018218807469 561.96914974397770948 35.009497869018218807469 203.22722909550032000
36.009497869018190385759 566.20332814728362791 36.009497869018190385759 204.14446874555542877
37.009497869018218807469 570.30921859433078680 37.009497869018218807469 205.02424570351976740
38.009497869018190385759 574.29319214856047893 38.009497869018190385759 205.87031603763125531
39.009497869018190385759 578.16107954909807631 39.009497869018190385759 206.68648945877805545
40.009497869018190385759 581.91834017788130495 40.009497869018190385759 207.46841404941292808
41.009497869018190385759 585.57021339488392186 41.009497869018190385759 208.22802828239832706
42.009497869018190385759 589.12149869521203982 42.009497869018190385759 208.94681508890053578
43.009497869018190385759 592.57672521701647383 43.009497869018190385759 209.65414516926520605
44.009497869018218807469 595.94025512251357668 44.009497869018218807469 210.31002709880422685
46.009497869018218807469 602.40842405252521985 46.009497869018218807469 211.56244085014589018
48.009497869018218807469 608.55384276037796099 48.009497869018218807469 212.71244769898146387
50.009497869018218807469 614.39866560934910922 50.009497869018218807469 213.70502279300202986
52.009497869018190385759 619.96498408608385944 52.009497869018190385759 214.58604048615339366
54.009497869018190385759 625.27381592229596663 54.009497869018190385759 215.37377235327505787
56.009497869018190385759 630.34181609958613990 56.009497869018190385759 216.07138286261573512
58.009497869018190385759 635.18334536544932689 58.009497869018190385759 216.68266581521075409
60.009497869018190385759 639.81269713078074801 60.009497869018190385759 217.32226096476043153
62.009497869018190385759 644.24188883075123613 62.009497869018190385759 217.93291844211429975
64.009497869018190385759 648.48351602958871354 64.009497869018190385759 218.51447703309807480
66.009497869018218807469 652.55456072243293875 66.009497869018218807469 219.12873795351850958
68.009497869018218807469 656.46972413885248443 68.009497869018218807469 219.74481006415274464
70.009497869018218807469 660.23774196602516895 70.009497869018218807469 220.25314556957076206
72.009497869018218807469 663.86774836309268721 72.009497869018218807469 220.60015288296304448
74.009497869018190385759 667.36821336940658966 74.009497869018190385759 220.91463367435531495
76.009497869018190385759 670.74596012289987357 76.009497869018190385759 221.18873513491342919
78.009497869018190385759 674.00974746079054967 78.009497869018190385759 221.52558760447223563
80.009497869018190385759 677.16499598633527057 80.009497869018190385759 221.69335270788235448
82.009497869018190385759 680.21161874605365938 82.009497869018190385759 221.92022283175953135
84.009497869018190385759 683.15099604832187197 84.009497869018190385759 222.09802677504237067
86.009497869018190385759 685.98556081836204612 86.009497869018190385759 222.05130966238866108
88.009497869018218807469 688.72243116872948576 88.009497869018218807469 222.07393039278878177
91.009497869018190385759 692.65102134957078306 91.009497869018190385759 221.98866979423578982
94.009497869018218807469 696.38146132031010893 94.009497869018218807469 222.06280036961288715
97.009497869018190385759 699.94063441561741001 97.009497869018190385759 222.40271572069116246
99.504748934509109403734 702.78974671430876242 99.504748934509109403734 222.56990143064669496
nan nan nan nan

