Time Pressure difference Time.1 Pressure.1 difference.1
(hr) (psi) (hr) (psi)
0.000200000000006639311 0.14091103948169825 0.000200000000006639311 0.11127663317004327
0.000399999999999067768 0.25576222039935326 0.000399999999999067768 0.22011478133785814
0.000600000000005707079 0.35791777219251075 0.000600000000005707079 0.29480517795880118
0.000799999999998135536 0.45147503883497370 0.000799999999998135536 0.36193014524667472
0.001007140329434719206 0.54157859573001654 0.001007140329434719206 0.42535196415970894
0.001267914553963578328 0.64735483045425402 0.001267914553963578328 0.49817090788461466
0.001596209851982166583 0.77099179007521235 0.001596209851982166583 0.58095833376851813
0.002009509145224797066 0.91489164716880200 0.002009509145224797066 0.67468049234877780
0.002529822128138903281 1.08168723373541220 0.002529822128138903281 0.78038593911619547
0.003184857364431081805 1.27426333034600714 0.003184857364431081805 0.89922878567973574
0.004009497869020606231 1.49578387471363761 0.004009497869020606231 1.03249658592255078
0.005047658755842121536 1.74972604658222619 0.005047658755842121536 1.18164182317681710
0.006354625877790454069 2.03992191135099077 0.006354625877790454069 1.34831581915095833
0.008000000000009777068 2.37060802835502171 0.008000000000009777068 1.53440403455107477
0.010071403294347192059 2.74648322081788843 0.010071403294347192059 1.74206207892087250
0.012679145539706837553 3.17277458352583785 0.012679145539706837553 1.97375179899163156
0.015962098519750611558 3.65531161264572146 0.015962098519750611558 2.23227577271833466
0.020095091452091651263 4.20060773264055332 0.020095091452091651263 2.52080722746238362
0.025298221281360611101 4.81594768847836185 0.025298221281360611101 2.84291654924787984
0.031848573644296607199 5.50948055503347867 0.031848573644296607199 3.20261174002012794
0.040094978690177640601 6.29032473777652967 0.040094978690177640601 3.60442553043688418
0.050476587558421215363 7.16869964991068720 0.050476587558421215363 4.05355021588011866
0.063546258777961384112 8.15609074804172529 0.063546258777961384112 4.55590734601206560
0.079999999999998294697 9.26541040483831146 0.079999999999998294697 5.11790753006656018
0.100714032943542974863 10.51104837229768485 0.100714032943542974863 5.74567820570585752
0.126791455396897845276 11.90867185521303817 0.126791455396897845276 6.44379163315848391
0.159620985197506115583 13.47468373510913153 0.159620985197506115583 7.21393561741362976
0.200950914520760193227 15.22540261215650048 0.200950914520760193227 8.05417624013974276
0.252982212813478213320 17.17617178434512226 0.252982212813478213320 8.95939842942752840
0.318485736442795541734 19.34072946432115359 0.318485736442795541734 9.92222247317936379
0.400949786901833249431 21.73072352419134390 0.400949786901833249431 10.93596995772614555
0.504765875584155310207 24.35642188854613721 0.504765875584155310207 11.99565592227565958
0.635462587779443310865 27.22665317281687791 0.635462587779443310865 13.09934192135295561
0.799999999999997157829 30.35009255153432051 0.799999999999997157829 14.25009315540790489
1.007140329435344483500 33.73603782300951082 1.007140329435344483500 15.45842156257026367
1.267914553968893187630 37.39671449206038290 1.267914553968893187630 16.72860910243266730
1.596209851975103788391 41.34171482431376177 1.596209851975103788391 18.08567173302325415
2.009509145207672986544 45.59234926439744839 2.009509145207672986544 19.54068196752555409
2.529822128134711078928 50.16024712779699257 2.529822128134711078928 21.11863676852866334
3.184857364427998049905 55.07377842550020119 3.184857364427998049905 22.85417474807349691
4.009497869018190385759 60.35463686313098464 4.009497869018190385759 24.75595438685767036
5.009497869018204596614 65.83448999454516581 5.009497869018204596614 26.76469568246491093
6.009497869018204596614 70.59878698904974215 6.009497869018204596614 28.52811283251902452
7.009497869018204596614 74.83272780110966949 7.009497869018204596614 30.09867965011558155
8.009497869018204596614 78.65254038945244019 8.009497869018204596614 31.50614794155187326
9.009497869018204596614 82.13680429353327384 9.009497869018204596614 32.77670717844724635
10.009497869018190385759 85.34176797134085746 10.009497869018190385759 33.92763537888201597
11.009497869018190385759 88.30947887332165180 11.009497869018190385759 34.96599459347326899
12.009497869018190385759 91.07247050195000782 12.009497869018190385759 35.91450006890520541
13.009497869018190385759 93.65646673497737140 13.009497869018190385759 36.78318141599848445
14.009497869018190385759 96.08255028094924910 14.009497869018190385759 37.57935162912131233
15.009497869018190385759 98.36772256999205410 15.009497869018190385759 38.31174880719826348
16.009497869018204596614 100.52609467370645291 16.009497869018204596614 38.98794851218796254
17.009497869018204596614 102.57004596827803766 17.009497869018204596614 39.61493368503477797
18.009497869018204596614 104.51030246295997017 18.009497869018204596614 40.20017365750558014
19.009497869018204596614 106.35597560356083591 19.009497869018204596614 40.74522719688656736
20.009497869018204596614 108.11530434379068311 20.009497869018204596614 41.25304707157688000
21.009497869018204596614 109.79501728144623485 21.009497869018204596614 41.72600934786211013
22.009497869018190385759 111.40086263653188325 22.009497869018190385759 42.16833128454127433
23.009497869018190385759 112.93811470544642361 23.009497869018190385759 42.58141516361820322
24.009497869018190385759 114.41164450684541976 24.009497869018190385759 42.96994332410562123
25.009497869018190385759 115.82603096671525122 25.009497869018190385759 43.33591688318407620
26.009497869018190385759 117.18530237752433720 26.009497869018190385759 43.68136512138068639
27.009497869018204596614 118.49313415802068050 27.009497869018204596614 44.00890372288410646
28.009497869018190385759 119.75271186199249485 28.009497869018190385759 44.31917675539685320
29.009497869018190385759 120.96689018768972801 29.009497869018190385759 44.61064811700003929
30.009497869018190385759 122.13832028842239197 30.009497869018190385759 44.88968121067069461
31.009497869018190385759 123.26943083753080543 31.009497869018190385759 45.15396864987030057
32.009497869018190385759 124.36245862304018317 32.009497869018190385759 45.40458829295823051
33.009497869018218807469 125.41948370479566677 33.009497869018218807469 45.64083022894467945
34.009497869018190385759 126.44249008016515745 34.009497869018190385759 45.86834102762643539
35.009497869018218807469 127.43324948229117410 35.009497869018218807469 46.08421333932692932
36.009497869018190385759 128.39340025403160439 36.009497869018190385759 46.29220843872656843
37.009497869018218807469 129.32446019197286091 37.009497869018218807469 46.49170842306576645
38.009497869018190385759 130.22787401121593120 38.009497869018190385759 46.68356502589799106
39.009497869018190385759 131.10496390183837434 39.009497869018190385759 46.86864214489145297
40.009497869018190385759 131.95696784421824077 40.009497869018190385759 47.04595293051038851
41.009497869018190385759 132.78507392611260229 41.009497869018190385759 47.21820457476243860
42.009497869018190385759 133.59037049064053804 42.009497869018190385759 47.38119811004690263
43.009497869018190385759 134.37388457423662658 43.009497869018190385759 47.54159369517556399
44.009497869018218807469 135.13660534953831416 44.009497869018218807469 47.69032279462159352
46.009497869018218807469 136.60334028565944209 46.009497869018218807469 47.97432264426188198
48.009497869018218807469 137.99688773524403018 48.009497869018218807469 48.23510049966689195
50.009497869018218807469 139.32227146606280144 50.009497869018218807469 48.46017881516491599
52.009497869018190385759 140.58450098785559135 52.009497869018190385759 48.65996015109913486
54.009497869018190385759 141.78834232354412848 54.009497869018190385759 48.83858780636063557
56.009497869018190385759 142.93757219010024073 56.009497869018190385759 48.99677936210489548
58.009497869018190385759 144.03544705937667914 58.009497869018190385759 49.13539510825003731
60.009497869018190385759 145.08520813384404846 60.009497869018190385759 49.28043098485885309
62.009497869018190385759 146.08958051116115939 62.009497869018190385759 49.41890489698607780
64.009497869018190385759 147.05142038668915916 64.009497869018190385759 49.55078028738281404
66.009497869018218807469 147.97457863164464698 66.009497869018218807469 49.69007132347406497
68.009497869018218807469 148.86238892627707742 68.009497869018218807469 49.82977306868428258
70.009497869018218807469 149.71683219250007824 70.009497869018218807469 49.94504424560236089
72.009497869018218807469 150.53997971052766047 72.009497869018218807469 50.02373231871072079
74.009497869018190385759 151.33375216344052205 74.009497869018190385759 50.09504461257086660
76.009497869018190385759 152.09969677965656842 76.009497869018190385759 50.15720040852991701
78.009497869018190385759 152.83979973063892999 78.009497869018190385759 50.23358574892015582
80.009497869018190385759 153.55529020323433542 80.009497869018190385759 50.27162849964237523
82.009497869018190385759 154.24614847969755260 82.009497869018190385759 50.32307402313647771
84.009497869018190385759 154.91268756151933417 84.009497869018190385759 50.36339320128642072
86.009497869018190385759 155.55545914369395177 86.009497869018190385759 50.35279953529140329
88.009497869018218807469 156.17607734367513217 88.009497869018218807469 50.35792905740460412
91.009497869018190385759 157.06693231828876378 91.009497869018190385759 50.33859519338135158
94.009497869018218807469 157.91285435455446873 94.009497869018218807469 50.35540519106644552
97.009497869018190385759 158.71993957126358055 97.009497869018190385759 50.43248507660207736
99.504748934509109403734 159.36600998015990172 99.504748934509109403734 50.47039644290456550
nan nan nan nan

