Time Pressure difference Time.1 Pressure.1 difference.1
(hr) (psi) (hr) (psi)
0.000200000000006639311 0.58268619028918467 0.000200000000006639311 0.46014391554098977
0.000399999999999067768 1.05761134381354194 0.000399999999999067768 0.91020436607276467
0.000600000000005707079 1.48003835528254424 0.000600000000005707079 1.21905924939720478
0.000799999999998135536 1.86691029572299949 0.000799999999998135536 1.49663006007408739
0.001007140329434719206 2.23950067964033872 0.001007140329434719206 1.75888785179555307
0.001267914553963578328 2.67689970431083424 0.001267914553963578328 2.06000402449583930
0.001596209851982166583 3.18815524004074291 0.001596209851982166583 2.40234121801576395
0.002009509145224797066 3.78320059504937012 0.002009509145224797066 2.78989500890170294
0.002529822128138903281 4.47292288544643402 0.002529822128138903281 3.22700131580480809
0.003184857364431081805 5.26925106872808335 0.003184857364431081805 3.71843254618917740
0.004009497869020606231 6.18526845489693411 0.004009497869020606231 4.26951290935541294
0.005047658755842121536 7.23535365208326020 0.005047658755842121536 4.88624862016359529
0.006354625877790454069 8.43535276855950222 0.006354625877790454069 5.57546811702963829
0.008000000000009777068 9.80278454968427937 0.008000000000009777068 6.34496803476525439
0.010071403294347192059 11.35707926446316129 0.010071403294347192059 7.20366211013225666
0.012679145539706837553 13.11985165620143690 0.012679145539706837553 8.16173041204647554
0.015962098519750611558 15.11520747931879427 0.015962098519750611558 9.23076197907851892
0.020095091452091651263 17.37008062416228782 0.020095091452091651263 10.42387853518228980
0.025298221281360611101 19.91459449559971162 0.025298221281360611101 11.75584410905204358
0.031848573644296607199 22.78244661946276395 0.031848573644296607199 13.24323233035350356
0.040094978690177640601 26.01134283458943486 0.040094978690177640601 14.90478665288765470
0.050476587558421215363 29.64354179557662405 0.050476587558421215363 16.76197791972049345
0.063546258777961384112 33.72653741757795132 0.063546258777961384112 18.83929253891475852
0.079999999999998294697 38.31372410649355942 0.079999999999998294697 21.16323924595090844
0.100714032943542974863 43.46460543139313870 0.100714032943542974863 23.75915582359449019
0.126791455396897845276 49.24396740128635486 0.126791455396897845276 26.64594918576345606
0.159620985197506115583 55.71963814788370684 0.159620985197506115583 29.83059863416987767
0.200950914520760193227 62.95909728810660511 0.200950914520760193227 33.30510715517245046
0.252982212813478213320 71.02579143256225791 0.252982212813478213320 37.04832323520031423
0.318485736442795541734 79.97652994705775598 0.318485736442795541734 41.02973076747142045
0.400949786901833249431 89.85947835679124296 0.400949786901833249431 45.22171360897567638
0.504765875584155310207 100.71709591750159518 0.504765875584155310207 49.60365827319395038
0.635462587779443310865 112.58589014705357556 0.635462587779443310865 54.16754902613519818
0.799999999999997157829 125.50173406445273372 0.799999999999997157829 58.92606088587592694
1.007140329435344483500 139.50307532217448170 1.007140329435344483500 63.92266213711487666
1.267914553968893187630 154.64046803473618752 1.267914553968893187630 69.17505926141075179
1.596209851975103788391 170.95357751675692271 1.596209851975103788391 74.78669662574480981
2.009509145207672986544 188.53052533656244805 2.009509145207672986544 80.80336056841647974
2.529822128134711078928 207.41940028521457862 2.529822128134711078928 87.32841690769961929
3.184857364427998049905 227.73751619193325268 3.184857364427998049905 94.50510098527689706
4.009497869018190385759 249.57457946105515134 4.009497869018190385759 102.36921678889792986
5.009497869018204596614 272.23451268014622428 5.009497869018204596614 110.67563349776030179
6.009497869018204596614 291.93552457634081065 6.009497869018204596614 117.96760171284893204
7.009497869018204596614 309.44344198837245585 7.009497869018204596614 124.46210774236983809
8.009497869018204596614 325.23888323206011819 8.009497869018204596614 130.28217932587665473
9.009497869018204596614 339.64678532190782789 9.009497869018204596614 135.53611346763318579
10.009497869018190385759 352.89974323284189950 10.009497869018190385759 140.29535710726887032
11.009497869018190385759 365.17162885454632715 11.009497869018190385759 144.58911277841647802
12.009497869018190385759 376.59697261617168351 12.009497869018190385759 148.51131109574316724
13.009497869018190385759 387.28214622841989012 13.009497869018190385759 152.10342585534507975
14.009497869018190385759 397.31432954014150027 14.009497869018190385759 155.39569727717730530
15.009497869018190385759 406.76382576239956279 15.009497869018190385759 158.42425858111710113
16.009497869018204596614 415.68898608316453647 16.009497869018204596614 161.22043573958808338
17.009497869018204596614 424.14100089585241449 17.009497869018204596614 163.81310415703569561
18.009497869018204596614 432.16422369818576499 18.009497869018204596614 166.23315052968524697
19.009497869018204596614 439.79633154985970123 19.009497869018204596614 168.48702057090929429
20.009497869018204596614 447.07139363783716135 20.009497869018204596614 170.58692437706116607
21.009497869018204596614 454.01723362327766154 21.009497869018204596614 172.54268730332168502
22.009497869018190385759 460.65762117268587872 22.009497869018190385759 174.37174828472473109
23.009497869018190385759 467.01436621441359875 23.009497869018190385759 176.07990594685364272
24.009497869018190385759 473.10761106884723404 24.009497869018190385759 177.68652239427458994
25.009497869018190385759 478.95629021371445333 25.009497869018190385759 179.19987251695036434
26.009497869018190385759 484.57706118273574702 26.009497869018190385759 180.62834766408772680
27.009497869018204596614 489.98512232911252795 27.009497869018204596614 181.98276404327751266
28.009497869018190385759 495.19364634823921278 28.009497869018190385759 183.26578496150591491
29.009497869018190385759 500.21443780314939431 29.009497869018190385759 184.47105842975690848
30.009497869018190385759 505.05845957104389754 30.009497869018190385759 185.62489797925991297
31.009497869018190385759 509.73575454438406496 31.009497869018190385759 186.71776225486908629
32.009497869018190385759 514.25557214392290462 32.009497869018190385759 187.75410834655701819
33.009497869018218807469 518.62651369820912350 33.009497869018218807469 188.73100067644691080
34.009497869018190385759 522.85678330446671680 34.009497869018190385759 189.67178857369850675
35.009497869018218807469 526.95370731866353253 35.009497869018218807469 190.56444975451407231
36.009497869018190385759 530.92406050991451139 36.009497869018190385759 191.42453759797743373
37.009497869018218807469 534.77411917221206750 37.009497869018218807469 192.24949699267736491
38.009497869018190385759 538.50985739773079786 38.009497869018190385759 193.04284997195657070
39.009497869018190385759 542.13674262111544522 39.009497869018190385759 193.80816886941599364
40.009497869018190385759 545.65989405852405980 40.009497869018190385759 194.54137292886730393
41.009497869018190385759 549.08422461338443554 41.009497869018190385759 195.25365675509874563
42.009497869018190385759 552.41423473156760338 42.009497869018190385759 195.92765704965341911
43.009497869018190385759 555.65417134751908179 43.009497869018190385759 196.59091446923949320
44.009497869018218807469 558.80812482376654771 44.009497869018218807469 197.20592939397579357
46.009497869018218807469 564.87327199205105899 46.009497869018218807469 198.38030715059645104
48.009497869018218807469 570.63577901330643272 48.009497869018218807469 199.45865882294688731
50.009497869018218807469 576.11641984615164347 50.009497869018218807469 200.38938807351979676
52.009497869018190385759 581.33590949032168282 52.009497869018190385759 201.21551089508560040
54.009497869018190385759 586.31395609465539565 54.009497869018190385759 201.95416038846425977
56.009497869018190385759 591.06617689419829276 56.009497869018190385759 202.60830384870402554
58.009497869018190385759 595.60603784012516826 58.009497869018190385759 203.18149869087176285
60.009497869018190385759 599.94694174265248421 60.009497869018190385759 203.78124164009201991
62.009497869018190385759 604.10015724885568034 62.009497869018190385759 204.35384997942892937
64.009497869018190385759 608.07749511252552566 64.009497869018190385759 204.89917253971810851
66.009497869018218807469 611.89487920653061792 66.009497869018218807469 205.47515979706844291
68.009497869018218807469 615.56609474919980585 68.009497869018218807469 206.05284539212689765
70.009497869018218807469 619.09933312033831498 70.009497869018218807469 206.52950728586921514
72.009497869018218807469 622.50315934353329794 72.009497869018218807469 206.85489310169566579
74.009497869018190385759 625.78551570287561390 74.009497869018190385759 207.14977907360383824
76.009497869018190385759 628.95280019695815099 76.009497869018190385759 207.40680168932638594
78.009497869018190385759 632.01322591318250943 78.009497869018190385759 207.72266539418333764
80.009497869018190385759 634.97187570526637046 80.009497869018190385759 207.87997730933199136
82.009497869018190385759 637.82866803766819430 82.009497869018190385759 208.09271150107790049
84.009497869018190385759 640.58489721385024041 84.009497869018190385759 208.25943675126546850
86.009497869018190385759 643.24284456716691238 86.009497869018190385759 208.21563051079957063
88.009497869018218807469 645.80918469141340665 88.009497869018218807469 208.23684177791633942
91.009497869018190385759 649.49299039724814975 91.009497869018190385759 208.15689363749586960
94.009497869018218807469 652.99099233099548201 94.009497869018218807469 208.22640524954505281
97.009497869018190385759 656.32839876765763165 97.009497869018190385759 208.54514099243561986
99.504748934509109403734 658.99998721525582823 99.504748934509109403734 208.70190961525401008
nan nan nan nan

