Time Pressure difference Time.1 Pressure.1 difference.1
(hr) (psi) (hr) (psi)
0.000200000000006639311 0.18724665156351794 0.000200000000006639311 0.14786759813136380
0.000399999999999067768 0.33986421179193338 0.000399999999999067768 0.29249486709309980
0.000600000000005707079 0.47561145403959765 0.000600000000005707079 0.39174561935966823
0.000799999999998135536 0.59993304710052808 0.000799999999998135536 0.48094321102598664
0.001007140329434719206 0.71966525108267954 0.001007140329434719206 0.56521995237438805
0.001267914553963578328 0.86022376118921140 0.001267914553963578328 0.66198386408090681
0.001596209851982166583 1.02451611744228677 0.001596209851982166583 0.77199418225996774
0.002009509145224797066 1.21573439601259703 0.002009509145224797066 0.89653488848148399
0.002529822128138903281 1.43737717996372338 0.002529822128138903281 1.03699933351025964
0.003184857364431081805 1.69327784888320765 0.003184857364431081805 1.19492113412397316
0.004009497869020606231 1.98764073441677058 0.004009497869020606231 1.37201122904122741
0.005047658755842121536 2.32508641325115617 0.005047658755842121536 1.57019971998721197
0.006354625877790454069 2.71070704436280296 0.006354625877790454069 1.79168093085375091
0.008000000000009777068 3.15013228993122230 0.008000000000009777068 2.03896031618273410
0.010071403294347192059 3.64960608171746470 0.010071403294347192059 2.31490231207953778
0.012679145539706837553 4.21607433396451370 0.012679145539706837553 2.62277829145284347
0.015962098519750611558 4.85728344923643185 0.015962098519750611558 2.96631240068427360
0.020095091452091651263 5.58188865373406884 0.020095091452091651263 3.34972131577208643
0.025298221281360611101 6.39957012658160629 0.025298221281360611101 3.77774946859515559
0.031848573644296607199 7.32115659340034330 0.031848573644296607199 4.25572280768440425
0.040094978690177640601 8.35876485425259474 0.040094978690177640601 4.78966455621117415
0.050476587558421215363 9.52597476001645305 0.050476587558421215363 5.38647438596682449
0.063546258777961384112 10.83804851654193335 0.063546258777961384112 6.05402102285387134
0.079999999999998294697 12.31214445687973758 0.079999999999998294697 6.80082306923259061
0.100714032943542974863 13.96738409832350136 0.100714032943542974863 7.63502284091544059
0.126791455396897845276 15.82458647426958009 0.126791455396897845276 8.56269608910699453
0.159620985197506115583 17.90554820656393531 0.159620985197506115583 9.58608561773432832
0.200950914520760193227 20.23195392155931316 0.200950914520760193227 10.70262158036587330
0.252982212813478213320 22.82419223595410429 0.252982212813478213320 11.90550692198703153
0.318485736442795541734 25.70051888276910290 0.318485736442795541734 13.18493526841401930
0.400949786901833249431 28.87641189025426414 0.400949786901833249431 14.53203215103249057
0.504765875584155310207 32.36551557261761047 0.504765875584155310207 15.94017341023117140
0.635462587779443310865 36.17956164856297363 0.635462587779443310865 17.40678318377982947
0.799999999999997157829 40.33007794010191560 0.799999999999997157829 18.93593459840239390
1.007140329435344483500 44.82941962967479554 1.007140329435344483500 20.54159622053256129
1.267914553968893187630 49.69383232053069577 1.267914553968893187630 22.22945804152088556
1.596209851975103788391 54.93606249176828982 1.596209851975103788391 24.03276198757594884
2.009509145207672986544 60.58442807656417273 2.009509145207672986544 25.96622153342359596
2.529822128134711078928 66.65438244459510031 2.529822128134711078928 28.06305336358538938
3.184857364427998049905 73.18362448433583722 3.184857364427998049905 30.36928626433190459
4.009497869018190385759 80.20098141722360197 4.009497869018190385759 32.89642587442798316
5.009497869018204596614 87.48276823599469765 5.009497869018204596614 35.56569921768986120
6.009497869018204596614 93.81370343139491297 6.009497869018204596614 37.90897876393293586
7.009497869018204596614 99.43988604201510384 7.009497869018204596614 39.99599322875719309
8.009497869018204596614 104.51576313012824926 8.009497869018204596614 41.86627767008019418
9.009497869018204596614 109.14575345311853027 9.009497869018204596614 43.55463341280152179
10.009497869018190385759 113.40460158353852194 10.009497869018190385759 45.08401998545132727
11.009497869018190385759 117.34818138572022406 11.009497869018190385759 46.46382164448024099
12.009497869018190385759 121.01972431565430099 12.009497869018190385759 47.72422306453620422
13.009497869018190385759 124.45341300368613702 13.009497869018190385759 48.87855188161960740
14.009497869018190385759 127.67726276072086478 14.009497869018190385759 49.93652581347201647
15.009497869018190385759 130.71386557724170530 15.009497869018190385759 50.90975629785354073
16.009497869018204596614 133.58197265199729031 16.009497869018204596614 51.80830995988941368
17.009497869018204596614 136.29803405694605090 17.009497869018204596614 52.64146593281648734
18.009497869018204596614 138.87630282240175461 18.009497869018204596614 53.41914968001867692
19.009497869018204596614 141.32888650022724164 19.009497869018204596614 54.14343253640331710
20.009497869018204596614 143.66673324963176128 20.009497869018204596614 54.81823822574405369
21.009497869018204596614 145.89878422534522429 21.009497869018204596614 55.44672413342036776
22.009497869018190385759 148.03267782782387485 22.009497869018190385759 56.03449427450303943
23.009497869018190385759 150.07542269417430703 23.009497869018190385759 56.58341204174491423
24.009497869018190385759 152.03349157441169837 24.009497869018190385759 57.09969946221242765
25.009497869018190385759 153.91296907739189237 25.009497869018190385759 57.58601567810496391
26.009497869018190385759 155.71920811427781928 26.009497869018190385759 58.04505725588875720
27.009497869018204596614 157.45709268745991949 27.009497869018204596614 58.48029999212077001
28.009497869018190385759 159.13085585264767019 28.009497869018190385759 58.89259974253185703
29.009497869018190385759 160.74429101517330309 29.009497869018190385759 59.27991529060815168
30.009497869018190385759 162.30092110398470595 30.009497869018190385759 59.65070250967502119
31.009497869018190385759 163.80397341023237345 31.009497869018190385759 60.00189527798080746
32.009497869018190385759 165.25642024232817562 32.009497869018190385759 60.33492588478683416
33.009497869018218807469 166.66102564376001283 33.009497869018218807469 60.64885097990396901
34.009497869018190385759 168.02042600742666423 34.009497869018190385759 60.95117388806216496
35.009497869018218807469 169.33697566340492813 35.009497869018218807469 61.23803123919569913
36.009497869018190385759 170.61285168891589592 36.009497869018190385759 61.51442112353304736
37.009497869018218807469 171.85007097581978996 37.009497869018218807469 61.77952245407387721
38.009497869018190385759 173.05055330319237328 38.009497869018190385759 62.03446703891851399
39.009497869018190385759 174.21605563532574479 39.009497869018190385759 62.28040285019359601
40.009497869018190385759 175.34822303623593598 40.009497869018190385759 62.51601853378633677
41.009497869018190385759 176.44863427118565369 41.009497869018190385759 62.74491148448161937
42.009497869018190385759 177.51873556188718339 42.009497869018190385759 62.96150199308034701
43.009497869018190385759 178.55989166396309997 43.009497869018190385759 63.17464027061617315
44.009497869018218807469 179.57341701853064819 44.009497869018218807469 63.37227578564581876
46.009497869018218807469 181.52245668589878846 46.009497869018218807469 63.74966297323089037
48.009497869018218807469 183.37424271124768893 48.009497869018218807469 64.09619210541322332
50.009497869018218807469 185.13545082202040248 50.009497869018218807469 64.39528265979122068
52.009497869018190385759 186.81273779917745514 52.009497869018190385759 64.66075785844253687
54.009497869018190385759 188.41243687137620100 54.009497869018190385759 64.89812343638013203
56.009497869018190385759 189.93956664900707665 56.009497869018190385759 65.10833293613036687
58.009497869018190385759 191.39845442574826961 58.009497869018190385759 65.29252953573765694
60.009497869018190385759 192.79340720488289662 60.009497869018190385759 65.48525738978992194
62.009497869018190385759 194.12804617474122892 62.009497869018190385759 65.66926551626528408
64.009497869018190385759 195.40616673005993675 64.009497869018190385759 65.84450533683752838
66.009497869018218807469 196.63288601952780255 66.009497869018218807469 66.02959928119302901
68.009497869018218807469 197.81263393356636016 68.009497869018218807469 66.21523898766605498
70.009497869018218807469 198.94804277832218986 70.009497869018218807469 66.36841465068781076
72.009497869018218807469 200.04186493065611785 72.009497869018218807469 66.47297763071919974
74.009497869018190385759 201.09665264961688536 74.009497869018190385759 66.56773946265047925
76.009497869018190385759 202.11446193693100781 76.009497869018190385759 66.65033387619965310
78.009497869018190385759 203.09793207449766328 78.009497869018190385759 66.75183691861010971
80.009497869018190385759 204.04869644123482431 80.009497869018190385759 66.80238922249775158
82.009497869018190385759 204.96672883563411460 82.009497869018190385759 66.87075151723091437
84.009497869018190385759 205.85244518310003059 84.009497869018190385759 66.92432880351123003
86.009497869018190385759 206.70657859184555605 86.009497869018190385759 66.91025163473406678
88.009497869018218807469 207.53127394767642500 88.009497869018218807469 66.91706789159621849
91.009497869018190385759 208.71506772024858378 91.009497869018190385759 66.89137649570945143
94.009497869018218807469 209.83915330898005891 94.009497869018218807469 66.91371410524595831
97.009497869018190385759 210.91163141226471112 97.009497869018190385759 67.01614007926853844
99.504748934509109403734 211.77014839705930171 99.504748934509109403734 67.06651779575156525
nan nan nan nan

