Time Pressure difference Time.1 Pressure.1 difference.1
(hr) (psi) (hr) (psi)
0.000200000000006639311 0.21009709039838792 0.000200000000006639311 0.16591245756434381
0.000399999999999067768 0.38133916645128801 0.000399999999999067768 0.32818915595869835
0.000600000000005707079 0.53365217385459929 0.000600000000005707079 0.43955186443406841
0.000799999999998135536 0.67314521556025364 0.000799999999998135536 0.53963458593085278
0.001007140329434719206 0.80748880714700666 0.001007140329434719206 0.63419594656244893
0.001267914553963578328 0.96520022018179319 0.001267914553963578328 0.74276833562976330
0.001596209851982166583 1.14954181313015891 0.001596209851982166583 0.86620364178999765
0.002009509145224797066 1.36409520366159209 0.002009509145224797066 1.00594253588939386
0.002529822128138903281 1.61278592056946590 0.002529822128138903281 1.16354840471829135
0.003184857364431081805 1.89991514569607367 0.003184857364431081805 1.34074201828825457
0.004009497869020606231 2.23020028166763096 0.004009497869020606231 1.53944310783947902
0.005047658755842121536 2.60882577215638234 0.005047658755842121536 1.76181731293480381
0.006354625877790454069 3.04150519214945003 0.006354625877790454069 2.01032673936471706
0.008000000000009777068 3.53455521344825341 0.008000000000009777068 2.28778259205588164
0.010071403294347192059 4.09498173914739194 0.010071403294347192059 2.59739886541805731
0.012679145539706837553 4.73057832048221716 0.012679145539706837553 2.94284615074878353
0.015962098519750611558 5.45003668371952177 0.015962098519750611558 3.32830306653049002
0.020095091452091651263 6.26306828605415955 0.020095091452091651263 3.75850086617139167
0.025298221281360611101 7.18053461660512493 0.025298221281360611101 4.23876296306778499
0.031848573644296607199 8.21458587259496298 0.031848573644296607199 4.77506525201199228
0.040094978690177640601 9.37881751443257450 0.040094978690177640601 5.37416599357931801
0.050476587558421215363 10.68846659513710584 0.050476587558421215363 6.04380685340684387
0.063546258777961384112 12.16065782703518572 0.063546258777961384112 6.79281680869366511
0.079999999999998294697 13.81464344144811385 0.079999999999998294697 7.63075402005419612
0.100714032943542974863 15.67187842896637129 0.100714032943542974863 8.56675444184071466
0.126791455396897845276 17.75572245079061418 0.126791455396897845276 9.60763527286242258
0.159620985197506115583 20.09063205550055287 0.159620985197506115583 10.75591301515275511
0.200950914520760193227 22.70093812893604479 0.200950914520760193227 12.00870421390204612
0.252982212813478213320 25.60951739017222906 0.252982212813478213320 13.35838234297527904
0.318485736442795541734 28.83685339049685581 0.318485736442795541734 14.79394431811878086
0.400949786901833249431 32.40031300228529432 0.400949786901833249431 16.30543268471781104
0.504765875584155310207 36.31520560859807034 0.504765875584155310207 17.88541491114073878
0.635462587779443310865 40.59469459550624748 0.635462587779443310865 19.53100079264787325
0.799999999999997157829 45.25171457008045195 0.799999999999997157829 21.24676051549556988
1.007140329435344483500 50.30012846583850461 1.007140329435344483500 23.04836728473314267
1.267914553968893187630 55.75816440032427579 1.267914553968893187630 24.94220546353699319
1.596209851975103788391 61.64012435517052779 1.596209851975103788391 26.96557361995809643
2.009509145207672986544 67.97778201133132825 2.009509145207672986544 29.13498077140070919
2.529822128134711078928 74.78847657342704736 2.529822128134711078928 31.48769716388733642
3.184857364427998049905 82.11450747225480029 3.184857364427998049905 34.07536865591138309
4.009497869018190385759 89.98821982746106585 4.009497869018190385759 36.91090496418868838
5.009497869018204596614 98.15863147835337088 5.009497869018204596614 39.90592013917065373
6.009497869018204596614 105.26215537556514334 6.009497869018204596614 42.53515922326035081
7.009497869018204596614 111.57492298273560039 7.009497869018204596614 44.87686019904620593
8.009497869018204596614 117.27022913922864689 8.009497869018204596614 46.97538274168319816
9.009497869018204596614 122.46523523044824344 9.009497869018204596614 48.86977511741459068
10.009497869018190385759 127.24380720051270544 10.009497869018190385759 50.58579869554029784
11.009497869018190385759 131.66863741923185671 11.009497869018190385759 52.13398292990834193
12.009497869018190385759 135.78823304570025243 12.009497869018190385759 53.54819604868299621
13.009497869018190385759 139.64094814989869064 13.009497869018190385759 54.84339211124098767
14.009497869018190385759 143.25821686033427227 14.009497869018190385759 56.03047472630250070
15.009497869018190385759 146.66538815615930957 15.009497869018190385759 57.12247232064244429
16.009497869018204596614 149.88350151800375443 16.009497869018204596614 58.13067998889287225
17.009497869018204596614 152.93101448423436750 17.009497869018204596614 59.06550923309239920
18.009497869018204596614 155.82391943801687262 18.009497869018204596614 59.93809675961417582
19.009497869018204596614 158.57580146296683665 19.009497869018204596614 60.75076667643897110
20.009497869018204596614 161.19894476484105894 20.009497869018204596614 61.50792153464841761
21.009497869018204596614 163.70338162233650792 21.009497869018204596614 62.21310402766827963
22.009497869018190385759 166.09768257969392380 22.009497869018190385759 62.87260205037459571
23.009497869018190385759 168.38971156532778650 23.009497869018190385759 63.48850639260191286
24.009497869018190385759 170.58673122417039281 24.009497869018190385759 64.06779837963495083
25.009497869018190385759 172.69556869361599638 25.009497869018190385759 64.61346165916184248
26.009497869018190385759 174.72223012144394261 26.009497869018190385759 65.12852187016670769
27.009497869018204596614 176.67219552389570936 27.009497869018204596614 65.61687897421008131
28.009497869018190385759 178.55021453297078438 28.009497869018190385759 66.07949327043404253
29.009497869018190385759 180.36054347804190456 29.009497869018190385759 66.51407444471627173
30.009497869018190385759 182.10713520480996408 30.009497869018190385759 66.93011027356756415
31.009497869018190385759 183.79361084334547627 31.009497869018190385759 67.32416046444625124
32.009497869018190385759 185.42330542444281605 32.009497869018190385759 67.69783209445573391
33.009497869018218807469 186.99932029859172644 33.009497869018218807469 68.05006669270581199
34.009497869018190385759 188.52461358799399704 34.009497869018190385759 68.38928324389347324
35.009497869018218807469 190.00182693080350305 35.009497869018218807469 68.71114691584330103
36.009497869018190385759 191.43340308146153461 36.009497869018190385759 69.02126573521843511
37.009497869018218807469 192.82160506100456132 37.009497869018218807469 69.31871841457103756
38.009497869018190385759 194.16858692663276997 38.009497869018190385759 69.60477488095601473
39.009497869018190385759 195.47632005184007653 39.009497869018190385759 69.88072319801382548
40.009497869018190385759 196.74665025421728615 40.009497869018190385759 70.14509198197720252
41.009497869018190385759 197.98134896190660470 41.009497869018190385759 70.40191763174038897
42.009497869018190385759 199.18203888469375329 42.009497869018190385759 70.64493952443930880
43.009497869018190385759 200.35025132465014508 43.009497869018190385759 70.88408789686086209
44.009497869018218807469 201.48746112926659180 44.009497869018218807469 71.10584164423309517
46.009497869018218807469 203.67434970519491344 46.009497869018218807469 71.52928286148957682
48.009497869018218807469 205.75211639804402353 48.009497869018218807469 71.91810029454838116
50.009497869018218807469 207.72825160030086522 50.009497869018218807469 72.25369003522337152
52.009497869018190385759 209.61022444585674407 52.009497869018190385759 72.55156220726942706
54.009497869018190385759 211.40514103195090456 54.009497869018190385759 72.81789443200617029
56.009497869018190385759 213.11863240956387244 56.009497869018190385759 73.05375661647171626
58.009497869018190385759 214.75555394889042304 58.009497869018190385759 73.26043144518359895
60.009497869018190385759 216.32073825361433705 60.009497869018190385759 73.47667863057785098
62.009497869018190385759 217.81824841979437224 62.009497869018190385759 73.68314198604680598
64.009497869018190385759 219.25234300898250694 64.009497869018190385759 73.87976700506175121
66.009497869018218807469 220.62876363547016467 66.009497869018218807469 74.08744868499961456
68.009497869018218807469 221.95248078647617263 68.009497869018218807469 74.29574272853376726
70.009497869018218807469 223.22644799872762178 70.009497869018218807469 74.46761101483954803
72.009497869018218807469 224.45375353236332217 72.009497869018218807469 74.58493422294256447
74.009497869018190385759 225.63726110855321849 74.009497869018190385759 74.69126021063493681
76.009497869018190385759 226.77927763092935720 76.009497869018190385759 74.78393394244774584
78.009497869018190385759 227.88276446324991298 78.009497869018190385759 74.89782379681338398
80.009497869018190385759 228.94955431202959062 80.009497869018190385759 74.95454519541273442
82.009497869018190385759 229.97961777828780328 82.009497869018190385759 75.03125000746925366
84.009497869018190385759 230.97342154442748097 84.009497869018190385759 75.09136553885497278
86.009497869018190385759 231.93178818271482555 86.009497869018190385759 75.07557047829483565
88.009497869018218807469 232.85712432773183878 88.009497869018218807469 75.08321854955372032
91.009497869018190385759 234.18538106916025754 91.009497869018190385759 75.05439193247400453
94.009497869018218807469 235.44664320431320448 94.009497869018218807469 75.07945548758105758
97.009497869018190385759 236.64999999138854037 97.009497869018190385759 75.19438090250130813
99.504748934509109403734 237.61328515059875599 99.504748934509109403734 75.25090640811446008
nan nan nan nan

