Time Pressure difference Time.1 Pressure.1 difference.1
(hr) (psi) (hr) (psi)
0.000200000000006639311 0.35925967723712260 0.000200000000006639311 0.28370528997407429
0.000399999999999067768 0.65207845381096374 0.000399999999999067768 0.56119354160913371
0.000600000000005707079 0.91252909486919409 0.000600000000005707079 0.75162040866973623
0.000799999999998135536 1.15105798189457253 0.000799999999998135536 0.92275883878206255
0.001007140329434719206 1.38078146478914121 0.001007140329434719206 1.08445590862340202
0.001267914553963578328 1.65046321638336857 0.001267914553963578328 1.27011141379590953
0.001596209851982166583 1.96568177109265840 0.001596209851982166583 1.48118205816658222
0.002009509145224797066 2.33256158692586446 0.002009509145224797066 1.72013134535769496
0.002529822128138903281 2.75781519952361842 0.002529822128138903281 1.98963261954849835
0.003184857364431081805 3.24879749989117173 0.003184857364431081805 2.29262834547175842
0.004009497869020606231 3.81357510399963440 0.004009497869020606231 2.63240120555028767
0.005047658755842121536 4.46101325389882941 0.005047658755842121536 3.01265437800936242
0.006354625877790454069 5.20088199020117425 0.006354625877790454069 3.43759798936685756
0.008000000000009777068 6.04398263085109200 0.008000000000009777068 3.91203911511670421
0.010071403294347192059 7.00229505848164369 0.010071403294347192059 4.44147358860006225
0.012679145539706837553 8.08914601025055902 0.012679145539706837553 5.03217801004172749
0.015962098519750611558 9.31939807548413768 0.015962098519750611558 5.69129769080440262
0.020095091452091651263 10.70965755258808016 0.020095091452091651263 6.42692293127796876
0.025298221281360611101 12.27849725981420193 0.025298221281360611101 7.24815660754189217
0.031848573644296607199 14.04669366733760860 0.031848573644296607199 8.16521731915041649
0.040094978690177640601 16.03749460171854224 0.040094978690177640601 9.18966148751025358
0.050476587558421215363 18.27695496328580660 0.050476587558421215363 10.33472712697363605
0.063546258777961384112 20.79435749275502943 0.063546258777961384112 11.61551152181454682
0.079999999999998294697 23.62262292404722785 0.079999999999998294697 13.04835883791744600
0.100714032943542974863 26.79843864288509181 0.100714032943542974863 14.64889128121403239
0.126791455396897845276 30.36174896419180058 0.126791455396897845276 16.42876605571036563
0.159620985197506115583 34.35437384717013032 0.159620985197506115583 18.39228630385637331
0.200950914520760193227 38.81791837153414093 0.200950914520760193227 20.53452140504096235
0.252982212813478213320 43.79150103576278497 0.252982212813478213320 22.84243022998189687
0.318485736442795541734 49.31014809371969676 0.318485736442795541734 25.29719783702486424
0.400949786901833249431 55.40355637248784859 0.400949786901833249431 27.88179727960810084
0.504765875584155310207 62.09790445458158814 0.504765875584155310207 30.58351915318929670
0.635462587779443310865 69.41570133249707908 0.635462587779443310865 33.39742129498095835
0.799999999999997157829 77.37906479355147837 0.799999999999997157829 36.33131858540934189
1.007140329435344483500 86.01170003524046592 1.007140329435344483500 39.41201173159806359
1.267914553968893187630 95.34477658786568099 1.267914553968893187630 42.65041780169769936
1.596209851975103788391 105.40275040793508765 1.596209851975103788391 46.11031622023045884
2.009509145207672986544 116.23995352995025598 2.009509145207672986544 49.81993690819577125
2.529822128134711078928 127.88603546996891680 2.529822128134711078928 53.84301086030281169
3.184857364427998049905 140.41332697672572749 3.184857364427998049905 58.26785093427747597
4.009497869018190385759 153.87713722762225643 4.009497869018190385759 63.11653235568216047
5.009497869018204596614 167.84829431041694647 5.009497869018204596614 68.23791782105918458
6.009497869018204596614 179.99510556667635797 6.009497869018204596614 72.73383722164760457
7.009497869018204596614 190.78974745688321946 7.009497869018204596614 76.73807514398836815
8.009497869018204596614 200.52854892085625238 8.009497869018204596614 80.32648529242504765
9.009497869018204596614 209.41185238801725177 9.009497869018204596614 83.56583902252766904
10.009497869018190385759 217.58306608909424540 10.009497869018190385759 86.50018749750999802
11.009497869018190385759 225.14939208243268354 11.009497869018190385759 89.14753576534175750
12.009497869018190385759 232.19377614461129156 12.009497869018190385759 91.56579747297455185
13.009497869018190385759 238.78180257656393337 13.009497869018190385759 93.78054361015828988
14.009497869018190385759 244.96722278836614350 14.009497869018190385759 95.81041901839037678
15.009497869018190385759 250.79338276853829370 15.009497869018190385759 97.67770191384781242
16.009497869018204596614 256.29625939332362350 16.009497869018204596614 99.40170656710986918
17.009497869018204596614 261.50741449569983388 17.009497869018204596614 101.00023633211570484
18.009497869018204596614 266.45419456772674494 18.009497869018204596614 102.49233464030700702
19.009497869018204596614 271.15982969196141994 19.009497869018204596614 103.88197564611620294
20.009497869018204596614 275.64532548912399079 20.009497869018204596614 105.17668757888519337
21.009497869018204596614 279.92783685269625948 21.009497869018204596614 106.38252833734213709
22.009497869018190385759 284.02201915440105040 22.009497869018190385759 107.51025003175837469
23.009497869018190385759 287.94131947424625650 23.009497869018190385759 108.56342784958515324
24.009497869018190385759 291.69815671565089588 24.009497869018190385759 109.55399964614316843
25.009497869018190385759 295.30420507730104873 25.009497869018190385759 110.48706736883868018
26.009497869018190385759 298.76973489044496546 26.009497869018190385759 111.36780476892555214
27.009497869018204596614 302.10411681729596012 27.009497869018204596614 112.20288066284865636
28.009497869018190385759 305.31547258507998777 28.009497869018190385759 112.99393713312892373
29.009497869018190385759 308.41108038843418626 29.009497869018190385759 113.73705781181089947
30.009497869018190385759 311.39769947408592543 30.009497869018190385759 114.44846651008835181
31.009497869018190385759 314.28152186505604959 31.009497869018190385759 115.12228043165130487
32.009497869018190385759 317.06825036324659095 32.009497869018190385759 115.76124762979439708
33.009497869018218807469 319.76318818429882640 33.009497869018218807469 116.36355815127338076
34.009497869018190385759 322.37139362780845886 34.009497869018190385759 116.94360820557011493
35.009497869018218807469 324.89738381521084420 35.009497869018218807469 117.49398536062632559
36.009497869018190385759 327.34533578280127131 36.009497869018190385759 118.02427917260916956
37.009497869018218807469 329.71911922818304674 37.009497869018218807469 118.53291426781632367
38.009497869018190385759 332.02241752409105402 38.009497869018190385759 119.02206218314533714
39.009497869018190385759 334.25860165964195403 39.009497869018190385759 119.49392546850702956
40.009497869018190385759 336.43082792715097185 40.009497869018190385759 119.94598810211208217
41.009497869018190385759 338.54212541522394986 41.009497869018190385759 120.38515220412405426
42.009497869018190385759 340.59526890857000581 42.009497869018190385759 120.80071229858806703
43.009497869018190385759 342.59287688746815093 43.009497869018190385759 121.20964879040255369
44.009497869018218807469 344.53747129657068626 44.009497869018218807469 121.58884099890009622
46.009497869018218807469 348.27698469226686484 46.009497869018218807469 122.31291268762264224
48.009497869018218807469 351.82990296463111690 48.009497869018218807469 122.97777875140297965
50.009497869018218807469 355.20903445852047753 50.009497869018218807469 123.55162706929434080
52.009497869018190385759 358.42715116723542224 52.009497869018190385759 124.06097948433382783
54.009497869018190385759 361.49640430236928523 54.009497869018190385759 124.51639954234288155
56.009497869018190385759 364.42642279097628943 56.009497869018190385759 124.91971675203321013
58.009497869018190385759 367.22550916940178922 58.009497869018190385759 125.27312446517801447
60.009497869018190385759 369.90192704394473822 60.009497869018190385759 125.64290061905455786
62.009497869018190385759 372.46262418611365774 62.009497869018190385759 125.99594671934289636
64.009497869018190385759 374.91488260750486461 64.009497869018190385759 126.33216956152556065
66.009497869018218807469 377.26852029509399244 66.009497869018218807469 126.68729895984830591
68.009497869018218807469 379.53203663185956884 68.009497869018218807469 127.04347548142025914
70.009497869018218807469 381.71048207637414862 70.009497869018218807469 127.33736505860781563
72.009497869018218807469 383.80913746017409949 72.009497869018218807469 127.53798419995615632
74.009497869018190385759 385.83289965994293880 74.009497869018190385759 127.71979842664465821
76.009497869018190385759 387.78571341119641147 76.009497869018190385759 127.87826770823392053
78.009497869018190385759 389.67264255649382676 78.009497869018190385759 128.07301591841806498
80.009497869018190385759 391.49682096860647107 80.009497869018190385759 128.17000779638553354
82.009497869018190385759 393.25819837616580799 82.009497869018190385759 128.30117070763625975
84.009497869018190385759 394.95757279198176093 84.009497869018190385759 128.40396645012663157
86.009497869018190385759 396.59635078977828471 86.009497869018190385759 128.37695737376094485
88.009497869018218807469 398.17864764198253624 88.009497869018218807469 128.39003534455409294
91.009497869018190385759 400.44992654122273734 91.009497869018190385759 128.34074270024254361
94.009497869018218807469 402.60664668773796393 94.009497869018218807469 128.38360062226851710
97.009497869018190385759 404.66435043844683150 97.009497869018190385759 128.58011960971521148
99.504748934509109403734 406.31153895842572865 99.504748934509109403734 128.67677651659454341
nan nan nan nan

