Time Pressure difference Time.1 Pressure.1 difference.1
(hr) (psi) (hr) (psi)
0.000200000000006639311 0.56110522027847420 0.000200000000006639311 0.44310154829873089
0.000399999999999067768 1.01844055330192940 0.000399999999999067768 0.87649309325525493
0.000600000000005707079 1.42522211990170944 0.000600000000005707079 1.17390890682693794
0.000799999999998135536 1.79776546995548103 0.000799999999998135536 1.44119931710838034
0.001007140329434719206 2.15655621002402942 0.001007140329434719206 1.69374385728460686
0.001267914553963578328 2.57775527081784039 0.001267914553963578328 1.98370757914414120
0.001596209851982166583 3.07007541633553016 0.001596209851982166583 2.31336561734851331
0.002009509145224797066 3.64308205449198619 0.002009509145224797066 2.68656556412756586
0.002529822128138903281 4.30725907487434423 0.002529822128138903281 3.10748274855277806
0.003184857364431081805 5.07409362173815470 0.003184857364431081805 3.58071282225624499
0.004009497869020606231 5.95618443804889885 0.004009497869020606231 4.11138280160150860
0.005047658755842121536 6.96737759089499065 0.005047658755842121536 4.70527644904642539
0.006354625877790454069 8.12293229564989083 0.006354625877790454069 5.36896929788039223
0.008000000000009777068 9.43971845525152808 0.008000000000009777068 6.10996921866283760
0.010071403294347192059 10.93644669911267364 0.010071403294347192059 6.93685980975698779
0.012679145539706837553 12.63393122449027217 0.012679145539706837553 7.85944410048919906
0.015962098519750611558 14.55538498008476367 0.015962098519750611558 8.88888190577931603
0.020095091452091651263 16.72674430474887330 0.020095091452091651263 10.03780895980516696
0.025298221281360611101 19.17701692168861172 0.025298221281360611101 11.32044247538344983
0.031848573644296607199 21.93865230022340285 0.031848573644296607199 12.75274224404411250
0.040094978690177640601 25.04795976664167867 0.040094978690177640601 14.35275751759551888
0.050476587558421215363 28.54563284018490066 0.050476587558421215363 16.14116392269380640
0.063546258777961384112 32.47740640211209495 0.063546258777961384112 18.14154096339939315
0.079999999999998294697 36.89469728773454449 0.079999999999998294697 20.37941557017494887
0.100714032943542974863 41.85480523023042565 0.100714032943542974863 22.87918708938728685
0.126791455396897845276 47.42011675679426475 0.126791455396897845276 25.65906217888332819
0.159620985197506115583 53.65594784611023016 0.159620985197506115583 28.72576164771913909
0.200950914520760193227 60.62727887002859717 0.200950914520760193227 32.07158466794383855
0.252982212813478213320 68.39520656468957327 0.252982212813478213320 35.67616311537808826
0.318485736442795541734 77.01443624531486876 0.318485736442795541734 39.51011110941692550
0.400949786901833249431 86.53134952876193609 0.400949786901833249431 43.54683532716177297
0.504765875584155310207 96.98683310574227789 0.504765875584155310207 47.76648574455713714
0.635462587779443310865 108.41604236382937643 0.635462587779443310865 52.16134350664870567
0.799999999999997157829 120.85352169169523506 0.799999999999997157829 56.74361418639903576
1.007140329435344483500 134.33629475468652004 1.007140329435344483500 61.55515613203655079
1.267914553968893187630 148.91304329270892026 1.267914553968893187630 66.61302002950664303
1.596209851975103788391 164.62196353465481025 1.596209851975103788391 72.01681897293944701
2.009509145207672986544 181.54791328706011200 2.009509145207672986544 77.81064351032696891
2.529822128134711078928 199.73720027465111571 2.529822128134711078928 84.09403109630333972
3.184857364427998049905 219.30279337000979467 3.184857364427998049905 91.00491205989627019
4.009497869018190385759 240.33107651805312344 4.009497869018190385759 98.57776431523505778
5.009497869018204596614 262.15175295125192179 5.009497869018204596614 106.57653596080622549
6.009497869018204596614 281.12309774018001463 6.009497869018204596614 113.59843127903971549
7.009497869018204596614 297.98257376658091289 7.009497869018204596614 119.85240004820799697
8.009497869018204596614 313.19299866790976239 8.009497869018204596614 125.45691342491826958
9.009497869018204596614 327.06727475442977493 9.009497869018204596614 130.51625741327643482
10.009497869018190385759 339.82938237236629675 10.009497869018190385759 135.09923276996261166
11.009497869018190385759 351.64675371178537944 11.009497869018190385759 139.23396045328996706
12.009497869018190385759 362.64893659335052689 12.009497869018190385759 143.01089216627119072
13.009497869018190385759 372.93836303477473848 13.009497869018190385759 146.46996563848045980
14.009497869018190385759 382.59898400161773679 14.009497869018190385759 149.64030108172633504
15.009497869018190385759 391.69849888231073010 15.009497869018190385759 152.55669344848317337
16.009497869018204596614 400.29309770971394755 16.009497869018204596614 155.24930848997371413
17.009497869018204596614 408.43207493674674424 17.009497869018204596614 157.74595215121956926
18.009497869018204596614 416.15814133899374383 18.009497869018204596614 160.07636717673392468
19.009497869018204596614 423.50757852949448079 19.009497869018204596614 162.24676054976453088
20.009497869018204596614 430.51319387347280099 20.009497869018204596614 164.26889014087370811
21.009497869018204596614 437.20178052611925068 21.009497869018204596614 166.15221740319867649
22.009497869018190385759 443.59622779591973085 22.009497869018190385759 167.91353538529048706
23.009497869018190385759 449.71753783610193977 23.009497869018190385759 169.55842794882204316
24.009497869018190385759 455.58510695518623379 24.009497869018190385759 171.10554008337553000
25.009497869018190385759 461.21716835394727241 25.009497869018190385759 172.56284020150775405
26.009497869018190385759 466.62976262041217979 26.009497869018190385759 173.93840886171409466
27.009497869018204596614 471.83752520581208501 27.009497869018204596614 175.24266167130426197
28.009497869018190385759 476.85314092793402097 28.009497869018190385759 176.47816329626496668
29.009497869018190385759 481.68797714377353714 29.009497869018190385759 177.63879700643258275
30.009497869018190385759 486.35259069804237697 30.009497869018190385759 178.74990175780584423
31.009497869018190385759 490.85665252422171534 31.009497869018190385759 179.80228957876281015
32.009497869018190385759 495.20906947192582948 32.009497869018190385759 180.80025248186970543
33.009497869018218807469 499.41812430197904860 33.009497869018218807469 181.74096361435630342
34.009497869018190385759 503.49171725615309470 34.009497869018190385759 182.64690751541340319
35.009497869018218807469 507.43690334389822283 35.009497869018218807469 183.50650717101356690
36.009497869018190385759 511.26020641695464519 36.009497869018190385759 184.33473990916345997
37.009497869018218807469 514.96767031398189829 37.009497869018218807469 185.12914525220782025
38.009497869018190385759 518.56504786448147115 38.009497869018190385759 185.89311478781002052
39.009497869018190385759 522.05760400551855582 39.009497869018190385759 186.63008854091910393
40.009497869018190385759 525.45026835265275622 40.009497869018190385759 187.33613689446480066
41.009497869018190385759 528.74777184992581169 41.009497869018190385759 188.02203983824324496
42.009497869018190385759 531.95444826002801619 42.009497869018190385759 188.67107715892552733
43.009497869018190385759 535.07438722353685989 43.009497869018190385759 189.30976948889730238
44.009497869018218807469 538.11152760807146933 44.009497869018218807469 189.90200608308779806
46.009497869018218807469 543.95203969604926897 46.009497869018218807469 191.03288836724101429
48.009497869018218807469 549.50112053133204881 48.009497869018218807469 192.07130108876367558
50.009497869018218807469 554.77877466666461714 50.009497869018218807469 192.96755888561165193
52.009497869018190385759 559.80494987956899422 52.009497869018190385759 193.76308456563799609
54.009497869018190385759 564.59862438744596602 54.009497869018190385759 194.47437667037297615
56.009497869018190385759 569.17483700922798562 56.009497869018190385759 195.10429259504832089
58.009497869018190385759 573.54655495715758207 58.009497869018190385759 195.65625799861726364
60.009497869018190385759 577.72668464107277941 60.009497869018190385759 196.23378824601454085
62.009497869018190385759 581.72607735074984703 62.009497869018190385759 196.78518886907971819
64.009497869018190385759 585.55610640465408778 64.009497869018190385759 197.31031429750635198
66.009497869018218807469 589.23210590258497632 66.009497869018218807469 197.86496869347331540
68.009497869018218807469 592.76735049922945109 68.009497869018218807469 198.42125852575179579
70.009497869018218807469 596.16972818995532180 70.009497869018218807469 198.88026627528145696
72.009497869018218807469 599.44748677525433322 72.009497869018218807469 199.19360076459582842
74.009497869018190385759 602.60827438054684535 74.009497869018190385759 199.47756503384076154
76.009497869018190385759 605.65825204151531125 76.009497869018190385759 199.72506829342540868
78.009497869018190385759 608.60532865713878437 78.009497869018190385759 200.02923334254691667
80.009497869018190385759 611.45439882729351666 80.009497869018190385759 200.18071889046785827
82.009497869018190385759 614.20538403627313073 82.009497869018190385759 200.38557403807502055
84.009497869018190385759 616.85953065037438137 84.009497869018190385759 200.54612427899635918
86.009497869018190385759 619.41903550912365972 86.009497869018190385759 200.50394049188108170
88.009497869018218807469 621.89032599913878130 88.009497869018218807469 200.52436615651203056
91.009497869018190385759 625.43769445660927886 91.009497869018190385759 200.44737905832934644
94.009497869018218807469 628.80614076318090611 94.009497869018218807469 200.51431616622855358
97.009497869018190385759 632.01993955404066128 97.009497869018190385759 200.82124688160467940
99.504748934509109403734 634.59258028135741370 99.504748934509109403734 200.97220925913350698
nan nan nan nan

