Time Pressure difference Time.1 Pressure.1 difference.1
(hr) (psi) (hr) (psi)
0.000200000000006639311 0.28880415749627342 0.000200000000006639311 0.22806697338905266
0.000399999999999067768 0.52419734361128711 0.000399999999999067768 0.45113615094020471
0.000600000000005707079 0.73357020877293866 0.000600000000005707079 0.60421781969033572
0.000799999999998135536 0.92532046247708577 0.000799999999998135536 0.74179376615872517
0.001007140329434719206 1.10999216692413305 0.001007140329434719206 0.87177992654354763
0.001267914553963578328 1.32678580115624145 0.001267914553963578328 1.02102595985360201
0.001596209851982166583 1.58018587605505245 0.001596209851982166583 1.19070289128232321
0.002009509145224797066 1.87511576334146346 0.002009509145224797066 1.38279109918330589
0.002529822128138903281 2.21697158265591243 0.002529822128138903281 1.59943964999040045
0.003184857364431081805 2.61166583471816782 0.003184857364431081805 1.84301395263189072
0.004009497869020606231 3.06568316664281548 0.004009497869020606231 2.11615291258901195
0.005047658755842121536 3.58615023060771598 0.005047658755842121536 2.42183346642095421
0.006354625877790454069 4.18092103452567887 0.006354625877790454069 2.76344007979137851
0.008000000000009777068 4.85867861667358003 0.008000000000009777068 3.14483709784116616
0.010071403294347192059 5.62905344807269969 0.010071403294347192059 3.57044254913962567
0.012679145539706837553 6.50275871848764009 0.012679145539706837553 4.04530211054591149
0.015962098519750611558 7.49174226916127584 0.015962098519750611558 4.57515980444523507
0.020095091452091651263 8.60935368626780217 0.020095091452091651263 5.16651931754677740
0.025298221281360611101 9.87052341557502189 0.025298221281360611101 5.82669833291795225
0.031848573644296607199 11.29195338982086838 0.031848573644296607199 6.56391144914035163
0.040094978690177640601 12.89233223283027563 0.040094978690177640601 7.38744872229181126
0.050476587558421215363 14.69260513833046211 0.050476587558421215363 8.30795201903357672
0.063546258777961384112 16.71631211873416945 0.063546258777961384112 9.33755784880851358
0.079999999999998294697 18.98991772162807123 0.079999999999998294697 10.48940507288416590
0.100714032943542974863 21.54291445673624850 0.100714032943542974863 11.77605217836110363
0.126791455396897845276 24.40741303658528238 0.126791455396897845276 13.20687023913112590
0.159620985197506115583 27.61703197961556455 0.159620985197506115583 14.78531849514955709
0.200950914520760193227 31.20521706545589069 0.200950914520760193227 16.50743328497109275
0.252982212813478213320 35.20341514359022739 0.252982212813478213320 18.36273101526813534
0.318485736442795541734 39.63978336155912530 0.318485736442795541734 20.33608660043518057
0.400949786901833249431 44.53819461039217487 0.400949786901833249431 22.41381230074502540
0.504765875584155310207 49.91969351030852664 0.504765875584155310207 24.58569119205146691
0.635462587779443310865 55.80237474608864545 0.635462587779443310865 26.84775033430447877
0.799999999999997157829 62.20401851778431990 0.799999999999997157829 29.20627200770538678
1.007140329435344483500 69.14368112373570341 1.007140329435344483500 31.68280095031293087
1.267914553968893187630 76.64641934183548244 1.267914553968893187630 34.28611325048137104
1.596209851975103788391 84.73189299577821032 1.596209851975103788391 37.06748035371883532
2.009509145207672986544 93.44377889775152823 2.009509145207672986544 40.04959592443299954
2.529822128134711078928 102.80591190607042051 2.529822128134711078928 43.28369247603848180
3.184857364427998049905 112.87643776397563045 3.184857364427998049905 46.84076356024073107
4.009497869018190385759 123.69981879605674635 4.009497869018190385759 50.73855516225333417
5.009497869018204596614 134.93104931314437067 5.009497869018204596614 54.85556997982673266
6.009497869018204596614 144.69571207215147979 6.009497869018204596614 58.46978080538809053
7.009497869018204596614 153.37338355632837761 7.009497869018204596614 61.68873531893058981
8.009497869018204596614 161.20227872613003228 8.009497869018204596614 64.57341132164910391
9.009497869018204596614 168.34345024125059354 9.009497869018204596614 67.17748543330404232
10.009497869018190385759 174.91218210342381667 10.009497869018190385759 69.53636980806899714
11.009497869018190385759 180.99465264577185053 11.009497869018190385759 71.66453846860513011
12.009497869018190385759 186.65754089363628054 12.009497869018190385759 73.60854743852193849
13.009497869018190385759 191.95356920907522635 13.009497869018190385759 75.38895290215906186
14.009497869018190385759 196.92594764789149053 14.009497869018190385759 77.02074320382972417
15.009497869018190385759 201.60952148354226665 15.009497869018190385759 78.52182751024868423
16.009497869018204596614 206.03321205647043257 16.009497869018204596614 79.90773231101587726
17.009497869018204596614 210.22239151156082926 17.009497869018204596614 81.19276948959830520
18.009497869018204596614 214.19904333624677406 18.009497869018204596614 82.39224781155424182
19.009497869018204596614 217.98184189018098778 19.009497869018204596614 83.50936204767290860
20.009497869018204596614 221.58767331722862082 20.009497869018204596614 84.55016404309675693
21.009497869018204596614 225.03032821197314206 21.009497869018204596614 85.51952366341107847
22.009497869018190385759 228.32158783613516562 22.009497869018190385759 86.42608438948774108
23.009497869018190385759 231.47226212152307312 23.009497869018190385759 87.27272026777605163
24.009497869018190385759 234.49233446222820021 24.009497869018190385759 88.06902798409035427
25.009497869018190385759 237.39118959394343733 25.009497869018190385759 88.81910892724664564
26.009497869018190385759 240.17708370168276133 26.009497869018190385759 89.52712220823521250
27.009497869018204596614 242.85754973828562697 27.009497869018204596614 90.19842880140660668
28.009497869018190385759 245.43911665408373324 28.009497869018190385759 90.83434875543049714
29.009497869018190385759 247.92763529458929384 29.009497869018190385759 91.43173375331089403
30.009497869018190385759 250.32853932987470102 30.009497869018190385759 92.00362590475300806
31.009497869018190385759 252.64680644629061135 31.009497869018190385759 92.54529610671615103
32.009497869018190385759 254.88702105172652068 32.009497869018190385759 93.05895348331529249
33.009497869018218807469 257.05344633190100012 33.009497869018218807469 93.54314303680104103
34.009497869018190385759 259.15014858772593698 34.009497869018190385759 94.00943769175690079
35.009497869018218807469 261.18075907406523584 35.009497869018218807469 94.45187869096285738
36.009497869018190385759 263.14863565578554017 36.009497869018190385759 94.87817495324588890
37.009497869018218807469 265.05688913219660208 37.009497869018218807469 95.28706005628343689
38.009497869018190385759 266.90848051848314526 38.009497869018190385759 95.68027967019634161
39.009497869018190385759 268.70611970872278107 39.009497869018190385759 96.05960439606130308
40.009497869018190385759 270.45234400504187988 40.009497869018190385759 96.42301163685688437
41.009497869018190385759 272.14958845216767713 41.009497869018190385759 96.77604991674283497
42.009497869018190385759 273.80008366324972258 42.009497869018190385759 97.11011324356461216
43.009497869018190385759 275.40593460034989448 43.009497869018190385759 97.43885194281477879
44.009497869018218807469 276.96916862180148655 44.009497869018218807469 97.74367960158930657
46.009497869018218807469 279.97531454943708695 46.009497869018218807469 98.32575136549169770
48.009497869018218807469 282.83145909700914444 48.009497869018218807469 98.86022850156953723
50.009497869018218807469 285.54789872548911944 50.009497869018218807469 99.32153766171188636
52.009497869018190385759 288.13490067330764077 52.009497869018190385759 99.73099940878425684
54.009497869018190385759 290.60223314059714994 54.009497869018190385759 100.09710563916256376
56.009497869018190385759 292.95763669592616907 56.009497869018190385759 100.42132707098075173
58.009497869018190385759 295.20778563971344965 58.009497869018190385759 100.70542691105299582
60.009497869018190385759 297.35932297702271399 60.009497869018190385759 101.00268512662513842
62.009497869018190385759 299.41783393053304962 62.009497869018190385759 101.28649427084985746
64.009497869018190385759 301.38917241416027082 64.009497869018190385759 101.55677941783415008
66.009497869018218807469 303.28123097927169738 66.009497869018218807469 101.84226329811126277
68.009497869018218807469 305.10084216872104435 68.009497869018218807469 102.12858894707812851
70.009497869018218807469 306.85206598012410950 70.009497869018218807469 102.36484293580662097
72.009497869018218807469 308.53914760491028346 72.009497869018218807469 102.52611804060079237
74.009497869018190385759 310.16602357822267777 74.009497869018190385759 102.67227612035921425
76.009497869018190385759 311.73586502136816989 76.009497869018190385759 102.79966750396896202
78.009497869018190385759 313.25274269117437598 78.009497869018190385759 102.95622304395797642
80.009497869018190385759 314.71917586698930336 80.009497869018190385759 103.03419354656433882
82.009497869018190385759 316.13512413631701747 82.009497869018190385759 103.13963369606803155
84.009497869018190385759 317.50122901122210806 84.009497869018190385759 103.22226984948342476
86.009497869018190385759 318.81862121793130882 86.009497869018190385759 103.20055760611526807
88.009497869018218807469 320.09060897014501279 88.009497869018218807469 103.21107081585178378
91.009497869018190385759 321.91646038207829861 91.009497869018190385759 103.17144510355187492
94.009497869018218807469 323.65021951046071536 94.009497869018218807469 103.20589802673528368
97.009497869018190385759 325.30438065281504123 97.009497869018190385759 103.36387707141417991
99.504748934509109403734 326.62853396834577779 99.504748934509109403734 103.44157829514225000
nan nan nan nan

