Time Pressure difference Time.1 Pressure.1 difference.1
(hr) (psi) (hr) (psi)
0.000200000000006639311 0.02729357971942804 0.000200000000006639311 0.02155358210050388
0.000399999999999067768 0.04953952917645131 0.000399999999999067768 0.04263484503390946
0.000600000000005707079 0.06932641533458540 0.000600000000005707079 0.05710190383886690
0.000799999999998135536 0.08744786788244988 0.000799999999998135536 0.07010358669192347
0.001007140329434719206 0.10490035863239058 0.001007140329434719206 0.08238799305796164
0.001267914553963578328 0.12538854824113929 0.001267914553963578328 0.09649256323891185
0.001596209851982166583 0.14933624762718078 0.001596209851982166583 0.11252796554975800
0.002009509145224797066 0.17720874246963281 0.002009509145224797066 0.13068135662611463
0.002529822128138903281 0.20951599572352581 0.002529822128138903281 0.15115583505403787
0.003184857364431081805 0.24681677119314549 0.003184857364431081805 0.17417494497400285
0.004009497869020606231 0.28972390366074963 0.004009497869020606231 0.19998807745346706
0.005047658755842121536 0.33891090091457537 0.005047658755842121536 0.22887656935406819
0.006354625877790454069 0.39512000985627299 0.006354625877790454069 0.26116027127698743
0.008000000000009777068 0.45917182531200867 0.008000000000009777068 0.29720438507070362
0.010071403294347192059 0.53197647970796935 0.010071403294347192059 0.33742643870989875
0.012679145539706837553 0.61454642834059015 0.012679145539706837553 0.38230327638126194
0.015962098519750611558 0.70801080785480197 0.015962098519750611558 0.43237773976075849
0.020095091452091651263 0.81363122749344063 0.020095091452091651263 0.48826446297694820
0.025298221281360611101 0.93281869641698001 0.025298221281360611101 0.55065500728675154
0.031848573644296607199 1.06715163903801624 0.031848573644296607199 0.62032569739128607
0.040094978690177640601 1.21839623299275135 0.040094978690177640601 0.69815449463417123
0.050476587558421215363 1.38853191417188992 0.050476587558421215363 0.78514711388668967
0.063546258777961384112 1.57978334308916324 0.063546258777961384112 0.88245052197530993
0.079999999999998294697 1.79465156490111433 0.079999999999998294697 0.99130641348136073
0.100714032943542974863 2.03592378382342565 0.100714032943542974863 1.11290163443852186
0.126791455396897845276 2.30663463862234552 0.126791455396897845276 1.24812180281898555
0.159620985197506115583 2.60996126400762440 0.159620985197506115583 1.39729383580534261
0.200950914520760193227 2.94906446992220550 0.200950914520760193227 1.56004314561265289
0.252982212813478213320 3.32691615642720828 0.252982212813478213320 1.73537897506929606
0.318485736442795541734 3.74617732867481834 0.318485736442795541734 1.92187192048068733
0.400949786901833249431 4.20910410603706175 0.400949786901833249431 2.11822841523524419
0.504765875584155310207 4.71768532075443225 0.504765875584155310207 2.32348290386420464
0.635462587779443310865 5.27363101996002648 0.635462587779443310865 2.53725992170350079
0.799999999999997157829 5.87862153025214429 0.799999999999997157829 2.76015317875017940
1.007140329435344483500 6.53445777652886850 1.007140329435344483500 2.99419877112847477
1.267914553968893187630 7.24350776197566137 1.267914553968893187630 3.24022608740812901
1.596209851975103788391 8.00762944795266662 1.596209851975103788391 3.50308056090090059
2.009509145207672986544 8.83095053319410184 2.009509145207672986544 3.78490686758377803
2.529822128134711078928 9.71572354277149053 2.529822128134711078928 4.09054676147176899
3.184857364427998049905 10.66744356890319168 3.184857364427998049905 4.42670952327549738
4.009497869018190385759 11.69031254556140631 4.009497869018190385759 4.79507224610306171
5.009497869018204596614 12.75172553948397258 5.009497869018204596614 5.18415276732428421
6.009497869018204596614 13.67453982220332875 6.009497869018204596614 5.52571554864107206
7.009497869018204596614 14.49462745697169375 7.009497869018204596614 5.82992443673409966
8.009497869018204596614 15.23450106642547475 8.009497869018204596614 6.10254216885914680
9.009497869018204596614 15.90938101181049547 9.009497869018204596614 6.34864148051005284
10.009497869018190385759 16.53016226471917349 10.009497869018190385759 6.57156901482849776
11.009497869018190385759 17.10498915113888074 11.009497869018190385759 6.77269264648356106
12.009497869018190385759 17.64016320533265869 12.009497869018190385759 6.95641217550866742
13.009497869018190385759 18.14066698019831847 13.009497869018190385759 7.12467027426997745
14.009497869018190385759 18.61058406342710825 14.009497869018190385759 7.27888342365863306
15.009497869018190385759 19.05320752481828350 15.009497869018190385759 7.42074413833119362
16.009497869018204596614 19.47127058995215165 16.009497869018204596614 7.55171975686523744
17.009497869018204596614 19.86717106592772808 17.009497869018204596614 7.67316283088511497
18.009497869018204596614 20.24298651309584685 18.009497869018204596614 7.78652012285018014
19.009497869018204596614 20.60048176105007300 19.009497869018204596614 7.89209355615370356
20.009497869018204596614 20.94125264316666346 20.009497869018204596614 7.99045506341354095
21.009497869018204596614 21.26660244640625308 21.009497869018204596614 8.08206487368500248
22.009497869018190385759 21.57764456473364945 22.009497869018190385759 8.16773984340213843
23.009497869018190385759 21.87540059609998266 23.009497869018190385759 8.24775158574586875
24.009497869018190385759 22.16081402610068807 24.009497869018190385759 8.32300704025469251
25.009497869018190385759 22.43477176382322824 25.009497869018190385759 8.39389381070682639
26.009497869018190385759 22.69805406411507676 26.009497869018190385759 8.46080495594310733
27.009497869018204596614 22.95137283240941173 27.009497869018204596614 8.52424711749556963
28.009497869018190385759 23.19534509038593129 28.009497869018190385759 8.58434504721650882
29.009497869018190385759 23.43052377509305373 29.009497869018190385759 8.64080121185135752
30.009497869018190385759 23.65742239820794168 30.009497869018190385759 8.69484816242720626
31.009497869018190385759 23.87651137844065019 31.009497869018190385759 8.74603897272262643
32.009497869018190385759 24.08822396752580275 32.009497869018190385759 8.79458241710452171
33.009497869018218807469 24.29296305993789673 33.009497869018218807469 8.84034099029108589
34.009497869018190385759 24.49111294345541623 34.009497869018190385759 8.88440839724295905
35.009497869018218807469 24.68301679161495699 35.009497869018218807469 8.92622150266242365
36.009497869018190385759 24.86899194109621192 36.009497869018190385759 8.96650884173532425
37.009497869018218807469 25.04933237952627323 37.009497869018218807469 9.00515073059382054
38.009497869018190385759 25.22431793910939746 38.009497869018190385759 9.04231214465591826
39.009497869018190385759 25.39420471972545101 39.009497869018190385759 9.07816041545194707
40.009497869018190385759 25.55923251036659494 40.009497869018190385759 9.11250439645021082
41.009497869018190385759 25.71963143613892555 41.009497869018190385759 9.14586845367020196
42.009497869018190385759 25.87561230224118347 42.009497869018190385759 9.17743927356764466
43.009497869018190385759 26.02737403915394410 43.009497869018190385759 9.20850688690337371
44.009497869018218807469 26.17510824337903941 44.009497869018218807469 9.23731477553481284
46.009497869018218807469 26.45920555082592784 46.009497869018218807469 9.29232375542009592
48.009497869018218807469 26.72912690367339295 48.009497869018218807469 9.34283478146701007
50.009497869018218807469 26.98584537405721306 50.009497869018218807469 9.38643103176617721
52.009497869018190385759 27.23033127242247886 52.009497869018190385759 9.42512741665433573
54.009497869018190385759 27.46350774735313749 54.009497869018190385759 9.45972646699778075
56.009497869018190385759 27.68610632510950609 56.009497869018190385759 9.49036717374103844
58.009497869018190385759 27.89875776375313876 58.009497869018190385759 9.51721616961599715
60.009497869018190385759 28.10208986376258977 60.009497869018190385759 9.54530870427446132
62.009497869018190385759 28.29663045936905874 62.009497869018190385759 9.57213022779460232
64.009497869018190385759 28.48293277760195608 64.009497869018190385759 9.59767365926784244
66.009497869018218807469 28.66174270793117174 66.009497869018218807469 9.62465345454677745
68.009497869018218807469 28.83370596319781143 68.009497869018218807469 9.65171280159199974
70.009497869018218807469 28.99920623548425169 70.009497869018218807469 9.67404010162568184
72.009497869018218807469 29.15864471870580843 72.009497869018218807469 9.68928148515567855
74.009497869018190385759 29.31239343706280209 74.009497869018190385759 9.70309422675922306
76.009497869018190385759 29.46075207894248393 76.009497869018190385759 9.71513341246300044
78.009497869018190385759 29.60410535323186210 78.009497869018190385759 9.72992877118723776
80.009497869018190385759 29.74269134567151696 80.009497869018190385759 9.73729741209289301
82.009497869018190385759 29.87650623705853192 82.009497869018190385759 9.74726208556247187
84.009497869018190385759 30.00561065380780335 84.009497869018190385759 9.75507165610502724
86.009497869018190385759 30.13011145576053806 86.009497869018190385759 9.75301972980869536
88.009497869018218807469 30.25032128728842551 88.009497869018218807469 9.75401328589368610
91.009497869018190385759 30.42287427786673959 91.009497869018190385759 9.75026843835764900
94.009497869018218807469 30.58672404164793690 94.009497869018218807469 9.75352442890025806
97.009497869018190385759 30.74305135839790637 97.009497869018190385759 9.76845431663914177
99.504748934509109403734 30.86819112228322126 99.504748934509109403734 9.77579750921124457
nan nan nan nan

