Time Pressure difference Time.1 Pressure.1 difference.1
(hr) (psi) (hr) (psi)
0.000200000000006639311 0.19549819892055431 0.000200000000006639311 0.15438379737105101
0.000399999999999067768 0.35484127875225591 0.000399999999999067768 0.30538447140567704
0.000600000000005707079 0.49657060286168159 0.000600000000005707079 0.40900898563653498
0.000799999999998135536 0.62637077459987345 0.000799999999998135536 0.50213731863052169
0.001007140329434719206 0.75137931299479765 0.001007140329434719206 0.59012795027563225
0.001267914553963578328 0.89813192693653265 0.001267914553963578328 0.69115603436243844
0.001596209851982166583 1.06966428532957392 0.001596209851982166583 0.80601426486803407
0.002009509145224797066 1.26930913210806762 0.002009509145224797066 0.93604320560100707
0.002529822128138903281 1.50071922518246392 0.002529822128138903281 1.08269760922427105
0.003184857364431081805 1.76789687273229812 0.003184857364431081805 1.24757867562774138
0.004009497869020606231 2.07523168203513686 0.004009497869020606231 1.43247274082948506
0.005047658755842121536 2.42754784841137683 0.005047658755842121536 1.63939496188495348
0.006354625877790454069 2.83016193106353686 0.006354625877790454069 1.87063636170493308
0.008000000000009777068 3.28895167897903917 0.008000000000009777068 2.12881280469248191
0.010071403294347192059 3.81043618023382757 0.010071403294347192059 2.41691495634067000
0.012679145539706837553 4.40186744020701770 0.012679145539706837553 2.73835835175415543
0.015962098519750611558 5.07133322835532496 0.015962098519750611558 3.09703125223985198
0.020095091452091651263 5.82787018762743525 0.020095091452091651263 3.49733615341627990
0.025298221281360611101 6.68158508131232143 0.025298221281360611101 3.94422656382138292
0.031848573644296607199 7.64378383310951115 0.031848573644296607199 4.44326313480269963
0.040094978690177640601 8.72711720376203282 0.040094978690177640601 5.00073451970522598
0.050476587558421215363 9.94576347825446661 0.050476587558421215363 5.62384444365349889
0.063546258777961384112 11.31565743422005177 0.063546258777961384112 6.32080838996268568
0.079999999999998294697 12.85471353464054189 0.079999999999998294697 7.10052035702928119
0.100714032943542974863 14.58289593994453881 0.100714032943542974863 7.97148147458290079
0.126791455396897845276 16.52194113245773011 0.126791455396897845276 8.94003523879645456
0.159620985197506115583 18.69460626312438123 0.159620985197506115583 10.00852328902431587
0.200950914520760193227 21.12353155200091237 0.200950914520760193227 11.17426253136504855
0.252982212813478213320 23.83000409719953794 0.252982212813478213320 12.43015637956612096
0.318485736442795541734 26.83308412167079382 0.318485736442795541734 13.76596631414073890
0.400949786901833249431 30.14893173626546741 0.400949786901833249431 15.17242678819663304
0.504765875584155310207 33.79179253005499817 0.504765875584155310207 16.64262173000406975
0.635462587779443310865 37.77391521273693087 0.635462587779443310865 18.17386176475995541
0.799999999999997157829 42.10733561203861797 0.799999999999997157829 19.77039951290826281
1.007140329435344483500 46.80495337606725315 1.007140329435344483500 21.44681910482721321
1.267914553968893187630 51.88373001601171097 1.267914553968893187630 23.20906127724892443
1.596209851975103788391 57.35697372021909501 1.596209851975103788391 25.09183285482505710
2.009509145207672986544 63.25425033078564496 2.009509145207672986544 27.11049570269310749
2.529822128134711078928 69.59169421333997718 2.529822128134711078928 29.29973029147220487
3.184857364427998049905 76.40866556330658454 3.184857364427998049905 31.70759379462448990
4.009497869018190385759 83.73526195425380081 4.009497869018190385759 34.34609887906379555
5.009497869018204596614 91.33794107351310743 5.009497869018204596614 37.13300121711348112
6.009497869018204596614 97.94786663345638544 6.009497869018204596614 39.57954392980116864
7.009497869018204596614 103.82198271505306764 7.009497869018204596614 41.75852852358377731
8.009497869018204596614 109.12154252230340035 8.009497869018204596614 43.71123227927017041
9.009497869018204596614 113.95556631715425056 9.009497869018204596614 45.47399013946734669
10.009497869018190385759 118.40209250077919023 10.009497869018190385759 47.07077340853901148
11.009497869018190385759 122.51945717559941329 11.009497869018190385759 48.51137988644038757
12.009497869018190385759 126.35279691261533230 12.009497869018190385759 49.82732441992254735
13.009497869018190385759 129.93780069537402255 13.009497869018190385759 51.03252196453843936
14.009497869018190385759 133.30371840780347270 14.009497869018190385759 52.13711847643858022
15.009497869018190385759 136.47413761962863532 15.009497869018190385759 53.15323708386064538
16.009497869018204596614 139.46863585361074911 16.009497869018204596614 54.09138802591844097
17.009497869018204596614 142.30438810013350803 17.009497869018204596614 54.96125934680500791
18.009497869018204596614 144.99627548915168518 18.009497869018204596614 55.77321390320594219
19.009497869018204596614 147.55693912566098902 19.009497869018204596614 56.52941430919397447
20.009497869018204596614 149.99780963012401003 20.009497869018204596614 57.23395719840396367
21.009497869018204596614 152.32822217425874101 21.009497869018204596614 57.89013909523211510
22.009497869018190385759 154.55615176599920346 22.009497869018190385759 58.50381097134555120
23.009497869018190385759 156.68891589764641026 23.009497869018190385759 59.07691833510994428
24.009497869018190385759 158.73327255904678168 24.009497869018190385759 59.61595740461500981
25.009497869018190385759 160.69557449436172192 25.009497869018190385759 60.12370450459772542
26.009497869018190385759 162.58141050575449071 26.009497869018190385759 60.60297503326690816
27.009497869018204596614 164.39587982283950396 27.009497869018204596614 61.05739795787524571
28.009497869018190385759 166.14340204276436452 28.009497869018190385759 61.48786684982987794
29.009497869018190385759 167.82793773787582836 29.009497869018190385759 61.89225054070275434
30.009497869018190385759 169.45316508483827533 30.009497869018190385759 62.27937753552510713
31.009497869018190385759 171.02245359441209871 31.009497869018190385759 62.64604659531555342
32.009497869018190385759 172.53890655809178156 32.009497869018190385759 62.99375312716728104
33.009497869018218807469 174.00540982467146023 33.009497869018218807469 63.32151220952685122
34.009497869018190385759 175.42471596707599701 34.009497869018190385759 63.63715782211234995
35.009497869018218807469 176.79928306552108097 35.009497869018218807469 63.93665634465178016
36.009497869018190385759 178.13138413622405665 36.009497869018190385759 64.22522612219721339
37.009497869018218807469 179.42312495102538605 37.009497869018218807469 64.50200988425341109
38.009497869018190385759 180.67650988943472612 38.009497869018190385759 64.76818931520982403
39.009497869018190385759 181.89337334128927637 39.009497869018190385759 65.02496297579534712
40.009497869018190385759 183.07543286495143775 40.009497869018190385759 65.27096172341082081
41.009497869018190385759 184.22433679839042497 41.009497869018190385759 65.50994148210284607
42.009497869018190385759 185.34159509512289787 42.009497869018190385759 65.73607665718219550
43.009497869018190385759 186.42863265254453609 43.009497869018190385759 65.95860746898232208
44.009497869018218807469 187.48682183629640008 44.009497869018218807469 66.16495234569121919
46.009497869018218807469 189.52175138731126935 46.009497869018218807469 66.55897015510207382
48.009497869018218807469 191.45514154259083739 48.009497869018218807469 66.92077006260092276
50.009497869018218807469 193.29396221417724178 50.009497869018218807469 67.23304087869726686
52.009497869018190385759 195.04516353270054196 52.009497869018190385759 67.51021498440779567
54.009497869018190385759 196.71535781825039635 54.009497869018190385759 67.75804074035620772
56.009497869018190385759 198.30978484031925291 56.009497869018190385759 67.97751370958697237
58.009497869018190385759 199.83296258688292824 58.009497869018190385759 68.16982744748203515
60.009497869018190385759 201.28938786136924932 60.009497869018190385759 68.37104839340777573
62.009497869018190385759 202.68284142989926977 62.009497869018190385759 68.56316535257528244
64.009497869018190385759 204.01728594189307842 64.009497869018190385759 68.74612760591850247
66.009497869018218807469 205.29806404750698334 66.009497869018218807469 68.93937823256763409
68.009497869018218807469 206.52980085267267896 68.009497869018218807469 69.13319867186828560
70.009497869018218807469 207.71524466346858162 70.009497869018218807469 69.29312444885371747
72.009497869018218807469 208.85726914793926312 72.009497869018218807469 69.40229528902207790
74.009497869018190385759 209.95853903756611203 74.009497869018190385759 69.50123306608931273
76.009497869018190385759 211.02120093754149366 76.009497869018190385759 69.58746723345591079
78.009497869018190385759 212.04801043710264707 78.009497869018190385759 69.69344329129462778
80.009497869018190385759 213.04067289457739776 80.009497869018190385759 69.74622332382816126
82.009497869018190385759 213.99916095381462355 82.009497869018190385759 69.81759819426142144
84.009497869018190385759 214.92390886913494796 84.009497869018190385759 69.87353651349647521
86.009497869018190385759 215.81568205521503501 86.009497869018190385759 69.85883899490879401
88.009497869018218807469 216.67671991825199029 88.009497869018218807469 69.86595562919198699
91.009497869018190385759 217.91268087402224296 91.009497869018190385759 69.83913207009663893
94.009497869018218807469 219.08630243785037806 94.009497869018218807469 69.86245404886696519
97.009497869018190385759 220.20604228805942171 97.009497869018190385759 69.96939370988036444
99.504748934509109403734 221.10239222472634424 99.504748934509109403734 70.02199146132706176
nan nan nan nan

