Time Pressure difference Time.1 Pressure.1 difference.1
(hr) (psi) (hr) (psi)
0.000200000000006639311 0.43415833786252978 0.000200000000006639311 0.34285232922661985
0.000399999999999067768 0.78802413852773712 0.000399999999999067768 0.67819148844637367
0.000600000000005707079 1.10277367648503288 0.000600000000005707079 0.90831865641360365
0.000799999999998135536 1.39103120073478381 0.000799999999998135536 1.11513612319245725
0.001007140329434719206 1.66864756522221303 0.001007140329434719206 1.31054388957315715
0.001267914553963578328 1.99455272085905300 0.001267914553963578328 1.53490495942827221
0.001596209851982166583 2.37548821806957333 0.001596209851982166583 1.78997973107056918
0.002009509145224797066 2.81885534533090354 0.002009509145224797066 2.07874530075028829
0.002529822128138903281 3.33276607150910786 0.002529822128138903281 2.40443235295260171
0.003184857364431081805 3.92610863944445443 0.003184857364431081805 2.77059679912134760
0.004009497869020606231 4.60863139776634245 0.004009497869020606231 3.18120569716677837
0.005047658755842121536 5.39104781919929099 0.005047658755842121536 3.64073426600424721
0.006354625877790454069 6.28516480794629562 0.006354625877790454069 4.15427036170835784
0.008000000000009777068 7.30403554682358003 0.008000000000009777068 4.72762324158979741
0.010071403294347192059 8.46213749116862957 0.010071403294347192059 5.36743451343187683
0.012679145539706837553 9.77557574383636485 0.012679145539706837553 6.08128932662286381
0.015962098519750611558 11.26231145517870935 0.015962098519750611558 6.87782265107811241
0.020095091452091651263 12.94241301408170663 0.020095091452091651263 7.76681145758680369
0.025298221281360611101 14.83832531044684444 0.025298221281360611101 8.75925639497995334
0.031848573644296607199 16.97515630469774806 0.031848573644296607199 9.86750644222417783
0.040094978690177640601 19.38100054341958156 0.040094978690177640601 11.10552730999472359
0.050476587558421215363 22.08734486729239066 0.050476587558421215363 12.48931688136036477
0.063546258777961384112 25.12957689937180561 0.063546258777961384112 14.03711993095609500
0.079999999999998294697 28.54748070679912431 0.079999999999998294697 15.76868806561048331
0.100714032943542974863 32.38539228221448951 0.100714032943542974863 17.70290041758020649
0.126791455396897845276 36.69158355389963333 0.126791455396897845276 19.85384449135316487
0.159620985197506115583 41.51659312979570160 0.159620985197506115583 22.22672055095010535
0.200950914520760193227 46.91069994015786904 0.200950914520760193227 24.81557003718731380
0.252982212813478213320 52.92117793014443095 0.252982212813478213320 27.60463299877670806
0.318485736442795541734 59.59035564682734076 0.318485736442795541734 30.57117194439047125
0.400949786901833249431 66.95412112858956277 0.400949786901833249431 33.69461014002109778
0.504765875584155310207 75.04411068362863091 0.504765875584155310207 36.95958851728177308
0.635462587779443310865 83.88752599192227422 0.635462587779443310865 40.36013456849288872
0.799999999999997157829 93.51109596959224746 0.799999999999997157829 43.90569242477030087
1.007140329435344483500 103.94346788711038698 1.007140329435344483500 47.62865021981108526
1.267914553968893187630 115.22230951607795646 1.267914553968893187630 51.54220101830605927
1.596209851975103788391 127.37717540464240074 1.596209851975103788391 55.72342101526083979
2.009509145207672986544 140.47372476057591939 2.009509145207672986544 60.20642552156521532
2.529822128134711078928 154.54778844780696545 2.529822128134711078928 65.06823220573697597
3.184857364427998049905 169.68677677046005670 3.184857364427998049905 70.41556544001022644
4.009497869018190385759 185.95752979451168585 4.009497869018190385759 76.27510270545336368
5.009497869018204596614 202.84140160481481985 5.009497869018204596614 82.46419750813512906
6.009497869018204596614 217.52058693923430610 6.009497869018204596614 87.89742872722078459
7.009497869018204596614 230.56570187368927805 7.009497869018204596614 92.73647243549125108
8.009497869018204596614 242.33485417290754071 8.009497869018204596614 97.07299636045711111
9.009497869018204596614 253.07015376926466388 9.009497869018204596614 100.98769238764826639
10.009497869018190385759 262.94490672250964280 10.009497869018190385759 104.53379549169052609
11.009497869018190385759 272.08866463672080727 11.009497869018190385759 107.73306442313385389
12.009497869018190385759 280.60166587087303469 12.009497869018190385759 110.65548669878901933
13.009497869018190385759 288.56316777803840523 13.009497869018190385759 113.33196436280614705
14.009497869018190385759 296.03812789265447236 14.009497869018190385759 115.78502934377918621
15.009497869018190385759 303.07892899943493603 15.009497869018190385759 118.04160443298923155
16.009497869018204596614 309.72904845412256236 16.009497869018204596614 120.12503055106562044
17.009497869018204596614 316.02662811847829971 17.009497869018204596614 122.05682270524228272
18.009497869018204596614 322.00471569668746952 18.009497869018204596614 123.85999451231448631
19.009497869018204596614 327.69138429205230523 19.009497869018204596614 125.53934866067753262
20.009497869018204596614 333.11201878897668394 20.009497869018204596614 127.10398286918282906
21.009497869018204596614 338.28735054283436057 21.009497869018204596614 128.56121799071027567
22.009497869018190385759 343.23509028553064582 22.009497869018190385759 129.92404774155957625
23.009497869018190385759 347.97148855191596795 23.009497869018190385759 131.19679266628310188
24.009497869018190385759 352.51155334541562070 24.009497869018190385759 132.39387943102815370
25.009497869018190385759 356.86939270825780568 25.009497869018190385759 133.52147364008067143
26.009497869018190385759 361.05741813615605906 26.009497869018190385759 134.58582767128106639
27.009497869018204596614 365.08695389227995065 27.009497869018204596614 135.59500065969697857
28.009497869018190385759 368.96781492613899900 28.009497869018190385759 136.55097703014166655
29.009497869018190385759 372.70879679450348476 29.009497869018190385759 137.44902392805417435
30.009497869018190385759 376.31806791567981918 30.009497869018190385759 138.30874751395836597
31.009497869018190385759 379.80311122914895350 31.009497869018190385759 139.12303854284363069
32.009497869018190385759 383.17081846017788394 32.009497869018190385759 139.89521798370915917
33.009497869018218807469 386.42759844180284290 33.009497869018218807469 140.62309854323495983
34.009497869018190385759 389.57956403077912455 34.009497869018190385759 141.32407776079497808
35.009497869018218807469 392.63217408057283819 35.009497869018218807469 141.98919785630459955
36.009497869018190385759 395.59047645836767515 36.009497869018190385759 142.63004762202240272
37.009497869018218807469 398.45914761851093999 37.009497869018218807469 143.24472324944585466
38.009497869018190385759 401.24263884536804881 38.009497869018190385759 143.83584899871272000
39.009497869018190385759 403.94502391377227468 39.009497869018190385759 144.40608660858447365
40.009497869018190385759 406.57011714164536897 40.009497869018190385759 144.95239551562661973
41.009497869018190385759 409.12157912369826818 41.009497869018190385759 145.48311679791669349
42.009497869018190385759 411.60276313332485643 42.009497869018190385759 145.98531309582020299
43.009497869018190385759 414.01683355305345913 43.009497869018190385759 146.47950489864902579
44.009497869018218807469 416.36683810398290007 44.009497869018218807469 146.93775131315842941
46.009497869018218807469 420.88596736662634612 46.009497869018218807469 147.81277787691502112
48.009497869018218807469 425.17960004913021521 48.009497869018218807469 148.61625559356826898
50.009497869018218807469 429.26321478732864989 50.009497869018218807469 149.30974013321082339
52.009497869018190385759 433.15224628690634745 52.009497869018190385759 149.92528262771082836
54.009497869018190385759 436.86137905091970879 54.009497869018190385759 150.47564891689492583
56.009497869018190385759 440.40224945057912009 56.009497869018190385759 150.96304992648535404
58.009497869018190385759 443.78489093970108570 58.009497869018190385759 151.39013627947309715
60.009497869018190385759 447.01928992589790823 60.009497869018190385759 151.83700357497050959
62.009497869018190385759 450.11384265601009247 62.009497869018190385759 152.26365292584901567
64.009497869018190385759 453.07734929952880520 64.009497869018190385759 152.66997169626054642
66.009497869018218807469 455.92167470290513620 66.009497869018218807469 153.09913867232552320
68.009497869018218807469 458.65709020528606743 68.009497869018218807469 153.52957107648668966
70.009497869018218807469 461.28969918770297909 70.009497869018218807469 153.88473091888295130
72.009497869018218807469 463.82588343243651252 72.009497869018218807469 154.12717525224383053
74.009497869018190385759 466.27156071978970431 74.009497869018190385759 154.34689421170483570
76.009497869018190385759 468.63149818596883733 76.009497869018190385759 154.53840125871377609
78.009497869018190385759 470.91181538629291481 78.009497869018190385759 154.77375068586209750
80.009497869018190385759 473.11629954510044627 80.009497869018190385759 154.89096348538461712
82.009497869018190385759 475.24488991041948793 82.009497869018190385759 155.04947131452863118
84.009497869018190385759 477.29855086522172769 84.009497869018190385759 155.17369797153114064
86.009497869018190385759 479.27898222651646165 86.009497869018190385759 155.14105802765459430
88.009497869018218807469 481.19115722105311761 88.009497869018218807469 155.15686250119256329
91.009497869018190385759 483.93595362932217085 91.009497869018190385759 155.09729329852632418
94.009497869018218807469 486.54230801133002160 94.009497869018218807469 155.14908626436690042
97.009497869018190385759 489.02900300335272732 97.009497869018190385759 155.38657564142263823
99.504748934509109403734 491.01959831724946071 99.504748934509109403734 155.50338363489512972
nan nan nan nan

