Time Pressure difference Time.1 Pressure.1 difference.1
(hr) (psi) (hr) (psi)
0.000200000000006639311 0.53635057820736498 0.000200000000006639311 0.42355295057966924
0.000399999999999067768 0.97350935242096193 0.000399999999999067768 0.83782428031752298
0.000600000000005707079 1.36234467343545762 0.000600000000005707079 1.12211880799633779
0.000799999999998135536 1.71845228745744505 0.000799999999998135536 1.37761699429477535
0.001007140329434719206 2.06141402428767551 0.001007140329434719206 1.61901986358087413
0.001267914553963578328 2.46403077357587685 0.001267914553963578328 1.89619106829954687
0.001596209851982166583 2.93463091267366849 0.001596209851982166583 2.21130536952431411
0.002009509145224797066 3.48235784620557487 0.002009509145224797066 2.56804061276899676
0.002529822128138903281 4.11723293921812328 0.002529822128138903281 2.97038792141074337
0.003184857364431081805 4.85023655019088284 0.003184857364431081805 3.42274019774494009
0.004009497869020606231 5.69341159519380113 0.004009497869020606231 3.92999826623673654
0.005047658755842121536 6.65999328541432956 0.005047658755842121536 4.49769072335319997
0.006354625877790454069 7.76456763554769047 0.006354625877790454069 5.13210300532684638
0.008000000000009777068 9.02326028810807834 0.008000000000009777068 5.84041175313359506
0.010071403294347192059 10.45395640356358413 0.010071403294347192059 6.63082187697359071
0.012679145539706837553 12.07655190576276105 0.012679145539706837553 7.51270391958526407
0.015962098519750611558 13.91323564272808433 0.015962098519750611558 8.49672535111258043
0.020095091452091651263 15.98879970306877496 0.020095091452091651263 9.59496444687258609
0.025298221281360611101 18.33097205749646719 0.025298221281360611101 10.82101118970476783
0.031848573644296607199 20.97077058109590197 0.031848573644296607199 12.19012126268922636
0.040094978690177640601 23.94290271811336979 0.040094978690177640601 13.71954762711336429
0.050476587558421215363 27.28626668547085998 0.050476587558421215363 15.42905374963378584
0.063546258777961384112 31.04457964907773970 0.063546258777961384112 17.34117886207295456
0.079999999999998294697 35.26699005445212975 0.079999999999998294697 19.48032370678487979
0.100714032943542974863 40.00826970536731864 0.100714032943542974863 21.86981118838490801
0.126791455396897845276 45.32805278222981116 0.126791455396897845276 24.52704472981494987
0.159620985197506115583 51.28877367642890306 0.159620985197506115583 27.45844863384917645
0.200950914520760193227 57.95254597870379598 0.200950914520760193227 30.65666181494631459
0.252982212813478213320 65.37777098095327233 0.252982212813478213320 34.10221474264081820
0.318485736442795541734 73.61674052860979600 0.318485736442795541734 37.76701797223677204
0.400949786901833249431 82.71378999072831562 0.400949786901833249431 41.62565141566933136
0.504765875584155310207 92.70800223343012192 0.504765875584155310207 45.65914078523844211
0.635462587779443310865 103.63298167130749050 0.635462587779443310865 49.86010776370832076
0.799999999999997157829 115.52174867588514928 0.799999999999997157829 54.24021944288143970
1.007140329435344483500 128.40969351550916144 1.007140329435344483500 58.83948747915258792
1.267914553968893187630 142.34335020626591017 1.267914553968893187630 63.67421032232253708
1.596209851975103788391 157.35922984930240887 1.596209851975103788391 68.83960637119211867
2.009509145207672986544 173.53844652439570950 2.009509145207672986544 74.37782100251843076
2.529822128134711078928 190.92526496841648509 2.529822128134711078928 80.38400031264289680
3.184857364427998049905 209.62767013309758113 3.184857364427998049905 86.98998946901848228
4.009497869018190385759 229.72823490696254112 4.009497869018190385759 94.22874530132762061
5.009497869018204596614 250.58623443869669245 5.009497869018204596614 101.87462996253536573
6.009497869018204596614 268.72060813399565404 6.009497869018204596614 108.58673578143502425
7.009497869018204596614 284.83628374746700729 7.009497869018204596614 114.56479416372823721
8.009497869018204596614 299.37566049138433755 8.009497869018204596614 119.92204959734834802
9.009497869018204596614 312.63783616232257145 9.009497869018204596614 124.75818723327894588
10.009497869018190385759 324.83690962064423502 10.009497869018190385759 129.13897250069956613
11.009497869018190385759 336.13292634214775489 11.009497869018190385759 133.09128572740951313
12.009497869018190385759 346.64971880246741875 12.009497869018190385759 136.70158810011216133
13.009497869018190385759 356.48519995971116714 13.009497869018190385759 140.00805538972394970
14.009497869018190385759 365.71961706036989881 14.009497869018190385759 143.03852309282663668
15.009497869018190385759 374.41768275514994002 15.009497869018190385759 145.82625109046185230
16.009497869018204596614 382.63310810487365643 16.009497869018204596614 148.40007429188665355
17.009497869018204596614 390.41301280718437283 17.009497869018204596614 150.78657190925397913
18.009497869018204596614 397.79822333874403739 18.009497869018204596614 153.01417450717212887
19.009497869018204596614 404.82342065319323865 19.009497869018204596614 155.08881523139254455
20.009497869018204596614 411.51996473199608317 20.009497869018204596614 157.02173322289397106
21.009497869018204596614 417.91346667937870052 21.009497869018204596614 158.82197251776344160
22.009497869018190385759 424.02580598139383028 22.009497869018190385759 160.50558529476293756
23.009497869018190385759 429.87705822568568692 23.009497869018190385759 162.07790906872696723
24.009497869018190385759 435.48576400128092700 24.009497869018190385759 163.55676625616780484
25.009497869018190385759 440.86935210303784061 25.009497869018190385759 164.94977372202947663
26.009497869018190385759 446.04315544598227916 26.009497869018190385759 166.26465552957967020
27.009497869018204596614 451.02116379967333160 27.009497869018204596614 167.51136777404084910
28.009497869018190385759 455.81550235758402323 28.009497869018190385759 168.69236197437092528
29.009497869018190385759 460.43703697566587607 29.009497869018190385759 169.80179125614878899
30.009497869018190385759 464.89585875548158356 30.009497869018190385759 170.86387668025557218
31.009497869018190385759 469.20121197168253957 31.009497869018190385759 171.86983562675857229
32.009497869018190385759 473.36161052463495480 32.009497869018190385759 172.82377075472840033
33.009497869018218807469 477.38497175924476323 33.009497869018218807469 173.72297992548763546
34.009497869018190385759 481.27884737720523844 34.009497869018190385759 174.58895571326277718
35.009497869018218807469 485.04998113754976430 35.009497869018218807469 175.41063185464531671
36.009497869018190385759 488.70460907503030512 36.009497869018190385759 176.20232491317094059
37.009497869018218807469 492.24850838836511002 37.009497869018218807469 176.96168296166925415
38.009497869018190385759 495.68717810575435578 38.009497869018190385759 177.69194795893605487
39.009497869018190385759 499.02565088762804635 39.009497869018190385759 178.39640816411383639
40.009497869018190385759 502.26863886650630775 40.009497869018190385759 179.07130732559136277
41.009497869018190385759 505.42066426831144099 41.009497869018190385759 179.72694984537957907
42.009497869018190385759 508.48586966032087275 42.009497869018190385759 180.34735316661999605
43.009497869018190385759 511.46816425779263682 43.009497869018190385759 180.95786789379886272
44.009497869018218807469 514.37131315477415683 44.009497869018218807469 181.52397640295154702
46.009497869018218807469 519.95415559181185472 46.009497869018218807469 182.60496682162744264
48.009497869018218807469 525.25842403730268870 48.009497869018218807469 183.59756721720057726
50.009497869018218807469 530.30324049019407084 50.009497869018218807469 184.45428422889349918
52.009497869018190385759 535.10767267899984745 52.009497869018190385759 185.21471318774220549
54.009497869018190385759 539.68986154682329470 54.009497869018190385759 185.89462475844476330
56.009497869018190385759 544.06418243529151368 56.009497869018190385759 186.49675027467856125
58.009497869018190385759 548.24303047375349252 58.009497869018190385759 187.02436426338414321
60.009497869018190385759 552.23874267161363605 60.009497869018190385759 187.57641523516093685
62.009497869018190385759 556.06169158527563923 62.009497869018190385759 188.10348936014972310
64.009497869018190385759 559.72274876915480490 64.009497869018190385759 188.60544749026340128
66.009497869018218807469 563.23657181864734866 66.009497869018218807469 189.13563183934951439
68.009497869018218807469 566.61584974191043784 68.009497869018218807469 189.66737947314510393
70.009497869018218807469 569.86812253451614652 70.009497869018218807469 190.10613688078373684
72.009497869018218807469 573.00127412340475530 72.009497869018218807469 190.40564778968717974
74.009497869018190385759 576.02261521669925060 74.009497869018190385759 190.67708422352424691
76.009497869018190385759 578.93803503968365476 76.009497869018190385759 190.91366822165662143
78.009497869018190385759 581.75509356932377614 78.009497869018190385759 191.20441422449340507
80.009497869018190385759 584.47846946726576789 80.009497869018190385759 191.34921658647661502
82.009497869018190385759 587.10808768173171757 82.009497869018190385759 191.54503400698348514
84.009497869018190385759 589.64513959226962925 84.009497869018190385759 191.69850114904065208
86.009497869018190385759 592.09172511901522284 86.009497869018190385759 191.65817841135691424
88.009497869018218807469 594.45398808741219909 88.009497869018218807469 191.67770294372473927
91.009497869018190385759 597.84485499528830132 91.009497869018190385759 191.60411233516774132
94.009497869018218807469 601.06469337656994867 94.009497869018218807469 191.66809633536553292
97.009497869018190385759 604.13670692665652950 97.009497869018190385759 191.96148598976918720
99.504748934509109403734 606.59584879835631455 99.504748934509109403734 192.10578826240700323
nan nan nan nan

