Time Pressure difference Time.1 Pressure.1 difference.1
(hr) (psi) (hr) (psi)
0.000200000000006639311 0.40559528931894223 0.000200000000006639311 0.32029625493539482
0.000399999999999067768 0.73618044520354387 0.000399999999999067768 0.63357362736437550
0.000600000000005707079 1.03022277671628104 0.000600000000005707079 0.84856085007060333
0.000799999999998135536 1.29951599016012698 0.000799999999998135536 1.04177190456137447
0.001007140329434719206 1.55886812014180420 0.001007140329434719206 1.22432389683808096
0.001267914553963578328 1.86333214711832573 0.001267914553963578328 1.43392436999220174
0.001596209851982166583 2.21920609845973305 0.001596209851982166583 1.67221790665803183
0.002009509145224797066 2.63340433576965971 0.002009509145224797066 1.94198574149040093
0.002529822128138903281 3.11350514575192960 0.002529822128138903281 2.24624601394256240
0.003184857364431081805 3.66781201842837179 0.003184857364431081805 2.58832069391599573
0.004009497869020606231 4.30543196370276782 0.004009497869020606231 2.97191584866896408
0.005047658755842121536 5.03637362056775917 0.005047658755842121536 3.40121227481975730
0.006354625877790454069 5.87166712321298689 0.006354625877790454069 3.88096310106965037
0.008000000000009777068 6.82350689242729214 0.008000000000009777068 4.41659539674836310
0.010071403294347192059 7.90541791938121907 0.010071403294347192059 5.01431382175872731
0.012679145539706837553 9.13244576068923486 0.012679145539706837553 5.68120450250293985
0.015962098519750611558 10.52136991207484584 0.015962098519750611558 6.42533431877034200
0.020095091452091651263 12.09093847368159480 0.020095091452091651263 7.25583701958767247
0.025298221281360611101 13.86211969791744636 0.025298221281360611101 8.18298952688916792
0.031848573644296607199 15.85836970570447235 0.031848573644296607199 9.21832838681469369
0.040094978690177640601 18.10593471819460731 0.040094978690177640601 10.37490051328454399
0.050476587558421215363 20.63423007339157067 0.050476587558421215363 11.66765129706034188
0.063546258777961384112 23.47631526125523749 0.063546258777961384112 13.11362519865635257
0.079999999999998294697 26.66935697608865397 0.079999999999998294697 14.73127437708347642
0.100714032943542974863 30.25477436891090477 0.100714032943542974863 16.53823591642361635
0.126791455396897845276 34.27766358324834073 0.126791455396897845276 18.54767051165887537
0.159620985197506115583 38.78523831862492699 0.159620985197506115583 20.76443630417707098
0.200950914520760193227 43.82446968093695716 0.200950914520760193227 23.18296674526709467
0.252982212813478213320 49.43952148737176344 0.252982212813478213320 25.78853872254140001
0.318485736442795541734 55.66993751216764252 0.318485736442795541734 28.55991063225951976
0.400949786901833249431 62.54924473855076172 0.400949786901833249431 31.47785947291444231
0.504765875584155310207 70.10699813865306851 0.504765875584155310207 34.52803664114480853
0.635462587779443310865 78.36860980824317835 0.635462587779443310865 37.70486255740782866
0.799999999999997157829 87.35905018211906281 0.799999999999997157829 41.01716002840382913
1.007140329435344483500 97.10508184190575776 1.007140329435344483500 44.49518638956035943
1.267914553968893187630 107.64189441633598676 1.267914553968893187630 48.15126674078592117
1.596209851975103788391 118.99709807538961570 1.596209851975103788391 52.05740647478314997
2.009509145207672986544 131.23203234211698032 2.009509145207672986544 56.24547647409382023
2.529822128134711078928 144.38017078676702454 2.529822128134711078928 60.78742745535954128
3.184857364427998049905 158.52317303556137063 3.184857364427998049905 65.78296245053587654
4.009497869018190385759 173.72348178171486666 4.009497869018190385759 71.25700384325249104
5.009497869018204596614 189.49657255186647831 5.009497869018204596614 77.03892135628413484
6.009497869018204596614 203.21002200902154300 6.009497869018204596614 82.11470315306151235
7.009497869018204596614 215.39690569778866802 7.009497869018204596614 86.63538872262998325
8.009497869018204596614 226.39177166153206144 8.009497869018204596614 90.68661502095335436
9.009497869018204596614 236.42080154760250821 9.009497869018204596614 94.34376525688193738
10.009497869018190385759 245.64589970129190988 10.009497869018190385759 97.65657210407931643
11.009497869018190385759 254.18809459483125579 11.009497869018190385759 100.64536281634873660
12.009497869018190385759 262.14102995831558474 12.009497869018190385759 103.37552046860554356
13.009497869018190385759 269.57874884527268478 13.009497869018190385759 105.87591407577941993
14.009497869018190385759 276.56193526813774497 14.009497869018190385759 108.16759320274107381
15.009497869018190385759 283.13952577578794489 15.009497869018190385759 110.27570940450310388
16.009497869018204596614 289.35213737161450354 16.009497869018204596614 112.22206801481131322
17.009497869018204596614 295.23540258436781869 17.009497869018204596614 114.02676857989739290
18.009497869018204596614 300.82019492716852938 18.009497869018204596614 115.71131066282011091
19.009497869018204596614 306.13274058862782567 19.009497869018204596614 117.28018098563295268
20.009497869018204596614 311.19675439496506897 20.009497869018204596614 118.74187873305237417
21.009497869018204596614 316.03160379659522050 21.009497869018204596614 120.10324312290039472
22.009497869018190385759 320.65383434569309884 22.009497869018190385759 121.37641302172015401
23.009497869018190385759 325.07862746297416834 23.009497869018190385759 122.56542472771185714
24.009497869018190385759 329.32000378321720291 24.009497869018190385759 123.68375578424998196
25.009497869018190385759 333.39114318797771830 25.009497869018190385759 124.73716616375958210
26.009497869018190385759 337.30364062719843332 26.009497869018190385759 125.73149690343362295
27.009497869018204596614 341.06807534673521332 27.009497869018204596614 126.67427693208533412
28.009497869018190385759 344.69361657573512048 28.009497869018190385759 127.56736012026392757
29.009497869018190385759 348.18848121591776135 29.009497869018190385759 128.40632498541901896
30.009497869018190385759 351.56030028964823941 30.009497869018190385759 129.20948780909267839
31.009497869018190385759 354.81606443775757498 31.009497869018190385759 129.97020705976183308
32.009497869018190385759 357.96221198253459761 32.009497869018190385759 130.69158522162300073
33.009497869018218807469 361.00473012326318667 33.009497869018218807469 131.37157890223267032
34.009497869018190385759 363.94932955506999406 34.009497869018190385759 132.02644106600584450
35.009497869018218807469 366.80110999632461244 35.009497869018218807469 132.64780326049509540
36.009497869018190385759 369.56478721768559126 36.009497869018190385759 133.24649185741566271
37.009497869018218807469 372.24473001202994737 37.009497869018218807469 133.82072829882443443
38.009497869018190385759 374.84509681606749609 38.009497869018190385759 134.37296419616583876
39.009497869018190385759 377.36969339312935290 39.009497869018190385759 134.90568617380918681
40.009497869018190385759 379.82208311916866705 40.009497869018190385759 135.41605370538803754
41.009497869018190385759 382.20568576029705810 41.009497869018190385759 135.91185911384326346
42.009497869018190385759 384.52363397981662274 42.009497869018190385759 136.38101618162150430
43.009497869018190385759 386.77888397719465274 43.009497869018190385759 136.84269536584315574
44.009497869018218807469 388.97428296556296345 44.009497869018218807469 137.27079398992430015
46.009497869018218807469 393.19610109250618279 46.009497869018218807469 138.08825301659166485
48.009497869018218807469 397.20725794063486092 48.009497869018218807469 138.83887035714928970
50.009497869018218807469 401.02221381447816384 50.009497869018218807469 139.48673091392063839
52.009497869018190385759 404.65538797855731445 52.009497869018190385759 140.06177719167723694
54.009497869018190385759 408.12049885020132933 54.009497869018190385759 140.57593517236236380
56.009497869018190385759 411.42841724988312535 56.009497869018190385759 141.03127032605868862
58.009497869018190385759 414.58851653577335128 58.009497869018190385759 141.43025889266561990
60.009497869018190385759 417.61012611498358638 60.009497869018190385759 141.84772702398564093
62.009497869018190385759 420.50108984969369885 62.009497869018190385759 142.24630733862210263
64.009497869018190385759 423.26962895087558536 64.009497869018190385759 142.62589461098028210
66.009497869018218807469 425.92682768297714802 66.009497869018218807469 143.02682691756723443
68.009497869018218807469 428.48228163914882316 68.009497869018218807469 143.42894140040203865
70.009497869018218807469 430.94169266219620340 70.009497869018218807469 143.76073546369326550
72.009497869018218807469 433.31102268030258529 72.009497869018218807469 143.98722951196464237
74.009497869018190385759 435.59580014611930210 74.009497869018190385759 144.19249327672426375
76.009497869018190385759 437.80047856847085086 76.009497869018190385759 144.37140117590365662
78.009497869018190385759 439.93077490035256005 78.009497869018190385759 144.59126708810802597
80.009497869018190385759 441.99022720660695995 80.009497869018190385759 144.70076851924090988
82.009497869018190385759 443.97877873210239841 82.009497869018190385759 144.84884820173070352
84.009497869018190385759 445.89733041356248577 84.009497869018190385759 144.96490205235144799
86.009497869018190385759 447.74747023792986056 86.009497869018190385759 144.93440947320362966
88.009497869018218807469 449.53384424598385749 88.009497869018218807469 144.94917417874569310
91.009497869018190385759 452.09806194318252892 91.009497869018190385759 144.89352400257064346
94.009497869018218807469 454.53294564216355411 94.009497869018218807469 144.94190953644803699
97.009497869018190385759 456.85604227944793365 97.009497869018190385759 145.16377461238167257
99.504748934509109403734 458.71567737532512865 99.504748934509109403734 145.27289786944152183
nan nan nan nan

