Time Pressure difference Time.1 Pressure.1 difference.1
(hr) (psi) (hr) (psi)
0.000200000000006639311 0.36624175576999951 0.000200000000006639311 0.28921899702304038
0.000399999999999067768 0.66475135662354434 0.000399999999999067768 0.57210012987362224
0.000600000000005707079 0.93026375925711113 0.000600000000005707079 0.76622787244246970
0.000799999999998135536 1.17342836670171091 0.000799999999998135536 0.94069231444743839
0.001007140329434719206 1.40761644025324117 0.001007140329434719206 1.10553190684753178
0.001267914553963578328 1.68253935663110177 0.001267914553963578328 1.29479555788028211
0.001596209851982166583 2.00388406699728616 0.001596209851982166583 1.50996828191186894
0.002009509145224797066 2.37789405592972392 0.002009509145224797066 1.75356145984344525
0.002529822128138903281 2.81141231470870645 0.002529822128138903281 2.02830039130650785
0.003184857364431081805 3.31193667391732482 0.003184857364431081805 2.33718472674417788
0.004009497869020606231 3.88769052121517511 0.004009497869020606231 2.68356094629419761
0.005047658755842121536 4.54771139134209257 0.005047658755842121536 3.07120419807668243
0.006354625877790454069 5.30195920202487248 0.006354625877790454069 3.50440643085631942
0.008000000000009777068 6.16144519081462860 0.008000000000009777068 3.98806814385572128
0.010071403294347192059 7.13838206491856564 0.010071403294347192059 4.52779197989794291
0.012679145539706837553 8.24635556168652428 0.012679145539706837553 5.12997652260437587
0.015962098519750611558 9.50051711935396881 0.015962098519750611558 5.80190594981296837
0.020095091452091651263 10.91779577357477216 0.020095091452091651263 6.55182779389997894
0.025298221281360611101 12.51712529843249833 0.025298221281360611101 7.38902184196408474
0.031848573644296607199 14.31968594709151965 0.031848573644296607199 8.32390528825051312
0.040094978690177640601 16.34917735899575675 0.040094978690177640601 9.36825914892829736
0.050476587558421215363 18.63216080179489254 0.050476587558421215363 10.53557871424697545
0.063546258777961384112 21.19848811540574829 0.063546258777961384112 11.84125467859892744
0.079999999999998294697 24.08171983599867261 0.079999999999998294697 13.30194885066849153
0.100714032943542974863 27.31925635502596705 0.100714032943542974863 14.93358704816342097
0.126791455396897845276 30.95181829035101018 0.126791455396897845276 16.74805302852452371
0.159620985197506115583 35.02203835656742825 0.159620985197506115583 18.74973356417867265
0.200950914520760193227 39.57233021267703776 0.200950914520760193227 20.93360220973256958
0.252982212813478213320 44.64257261066276783 0.252982212813478213320 23.28636438639497186
0.318485736442795541734 50.26847252663651489 0.318485736442795541734 25.78883949110132079
0.400949786901833249431 56.48030393449732145 0.400949786901833249431 28.42366966490083513
0.504765875584155310207 63.30475418779784036 0.504765875584155310207 31.17789850068944801
0.635462587779443310865 70.76476973295199002 0.635462587779443310865 34.04648778657953301
0.799999999999997157829 78.88289820826715015 0.799999999999997157829 37.03740428229892245
1.007140329435344483500 87.68330551295716191 1.007140329435344483500 40.17796955677046356
1.267914553968893187630 97.19776694558038344 1.267914553968893187630 43.47931284731373580
1.596209851975103788391 107.45121375508577444 1.596209851975103788391 47.00645310790278586
2.009509145207672986544 118.49903389890688743 2.009509145207672986544 50.78816889757767683
2.529822128134711078928 130.37145312044535217 2.529822128134711078928 54.88942979928396682
3.184857364427998049905 143.14220788970098397 3.184857364427998049905 59.40026499837120610
4.009497869018190385759 156.86768229741704772 4.009497869018190385759 64.34317874422015393
5.009497869018204596614 171.11036363447098552 5.009497869018204596614 69.56409643595608827
6.009497869018204596614 183.49324366072835346 6.009497869018204596614 74.14739236199764605
7.009497869018204596614 194.49767541099228652 7.009497869018204596614 78.22945116268779486
8.009497869018204596614 204.42574686808137585 8.009497869018204596614 81.88760073097040504
9.009497869018204596614 213.48169404220132606 9.009497869018204596614 85.18991009893721866
10.009497869018190385759 221.81171224983634715 10.009497869018190385759 88.18128654781496323
11.009497869018190385759 229.52508698156123046 11.009497869018190385759 90.88008504700034962
12.009497869018190385759 236.70637603434755647 12.009497869018190385759 93.34534477368606531
13.009497869018190385759 243.42243831568441692 13.009497869018190385759 95.60313368032038284
14.009497869018190385759 249.72806987435910742 14.009497869018190385759 97.67245896397746208
15.009497869018190385759 255.66745911209648057 15.009497869018190385759 99.57603180969998391
16.009497869018204596614 261.27728210238120710 16.009497869018204596614 101.33354185374980716
17.009497869018204596614 266.58971407070464466 17.009497869018204596614 102.96313845164445411
18.009497869018204596614 271.63263297805360708 18.009497869018204596614 104.48423513685008857
19.009497869018204596614 276.42972037502073590 19.009497869018204596614 105.90088330001597683
20.009497869018204596614 281.00239011877130224 20.009497869018204596614 107.22075747882820451
21.009497869018204596614 285.36813050177693185 21.009497869018204596614 108.45003330502899530
22.009497869018190385759 289.54188171747250635 22.009497869018190385759 109.59967185216358132
23.009497869018190385759 293.53735218487651082 23.009497869018190385759 110.67331779012479842
24.009497869018190385759 297.36720216418831342 24.009497869018190385759 111.68314098202228024
25.009497869018190385759 301.04333273781395519 25.009497869018190385759 112.63434252971717342
26.009497869018190385759 304.57621383707896712 26.009497869018190385759 113.53219673439936344
27.009497869018204596614 307.97539823954025451 27.009497869018204596614 114.38350201848707854
28.009497869018190385759 311.24916551517867447 28.009497869018190385759 115.18993237776570027
29.009497869018190385759 314.40493530764405250 29.009497869018190385759 115.94749533112171491
30.009497869018190385759 317.44959822711581410 30.009497869018190385759 116.67272999349997065
31.009497869018190385759 320.38946663628502165 31.009497869018190385759 117.35963923862685476
32.009497869018190385759 323.23035416889274529 32.009497869018190385759 118.01102452719324276
33.009497869018218807469 325.97766710660852141 33.009497869018218807469 118.62504073018504869
34.009497869018190385759 328.63656205520402409 34.009497869018190385759 119.21636384207411652
35.009497869018218807469 331.21164392469376025 35.009497869018218807469 119.77743737293532433
36.009497869018190385759 333.70717093052360269 36.009497869018190385759 120.31803724840193581
37.009497869018218807469 336.12708797643392700 37.009497869018218807469 120.83655747796822766
38.009497869018190385759 338.47515002014233687 38.009497869018190385759 121.33521180154569663
39.009497869018190385759 340.75479356468798642 39.009497869018190385759 121.81624557478544091
40.009497869018190385759 342.96923624375642703 40.009497869018190385759 122.27709387794818952
41.009497869018190385759 345.12156601516647925 41.009497869018190385759 122.72479297134201204
42.009497869018190385759 347.21461159053865231 42.009497869018190385759 123.14842932205884551
43.009497869018190385759 349.25104233934479225 43.009497869018190385759 123.56531334286620449
44.009497869018218807469 351.23342921929554450 44.009497869018218807469 123.95187501124622997
46.009497869018218807469 355.04561867038506762 46.009497869018218807469 124.69001876459057598
48.009497869018218807469 358.66758659115231467 48.009497869018218807469 125.36780625363871877
50.009497869018218807469 362.11239025188399410 50.009497869018218807469 125.95280710067638097
52.009497869018190385759 365.39304986483182347 52.009497869018190385759 126.47205859091980074
54.009497869018190385759 368.52195279587817822 54.009497869018190385759 126.93632956878417417
56.009497869018190385759 371.50891510670197704 56.009497869018190385759 127.34748509880417089
58.009497869018190385759 374.36240069036188061 58.009497869018190385759 127.70776115973096410
60.009497869018190385759 377.09083375327935528 60.009497869018190385759 128.08472377596197589
62.009497869018190385759 379.70129709432433174 62.009497869018190385759 128.44463119622056979
64.009497869018190385759 382.20121424828676027 64.009497869018190385759 128.78738840459405424
66.009497869018218807469 384.60059401107639587 66.009497869018218807469 129.14941961101143875
68.009497869018218807469 386.90810094802645835 68.009497869018218807469 129.51251829112985092
70.009497869018218807469 389.12888367149798796 70.009497869018218807469 129.81211950320971482
72.009497869018218807469 391.26832564402911885 72.009497869018218807469 130.01663760313553553
74.009497869018190385759 393.33141891128457246 74.009497869018190385759 130.20198532186211082
76.009497869018190385759 395.32218487325150136 76.009497869018190385759 130.36353439514303432
78.009497869018190385759 397.24578578639039961 78.009497869018190385759 130.56206746453574397
80.009497869018190385759 399.10541642912710358 80.009497869018190385759 130.66094434366510768
82.009497869018190385759 400.90102555308777710 82.009497869018190385759 130.79465635743130747
84.009497869018190385759 402.63342668016514381 84.009497869018190385759 130.89944989703721490
86.009497869018190385759 404.30405372032163314 86.009497869018190385759 130.87191590929342055
88.009497869018218807469 405.91710192477722785 88.009497869018218807469 130.88524804559665426
91.009497869018190385759 408.23252228672350839 91.009497869018190385759 130.83499741703172958
94.009497869018218807469 410.43115748908979867 94.009497869018218807469 130.87868826687090973
97.009497869018190385759 412.52885194873465480 97.009497869018190385759 131.07902652792523668
99.504748934509109403734 414.20805296645164617 99.504748934509109403734 131.17756192592761977
nan nan nan nan

