Time Pressure difference Time.1 Pressure.1 difference.1
(hr) (psi) (hr) (psi)
0.000200000000006639311 0.17899510420648157 0.000200000000006639311 0.14135139889167661
0.000399999999999067768 0.32488714483161096 0.000399999999999067768 0.27960526278052250
0.000600000000005707079 0.45465230521751365 0.000600000000005707079 0.37448225308280148
0.000799999999998135536 0.57349531960118283 0.000799999999998135536 0.45974910342145170
0.001007140329434719206 0.68795118917056142 0.001007140329434719206 0.54031195447314373
0.001267914553963578328 0.82231559544189026 0.001267914553963578328 0.63281169379937541
0.001596209851982166583 0.97936794955499940 0.001596209851982166583 0.73797409965190131
0.002009509145224797066 1.16215965991712666 0.002009509145224797066 0.85702657136196114
0.002529822128138903281 1.37403513474498307 0.002529822128138903281 0.99130105779624833
0.003184857364431081805 1.61865882503411718 0.003184857364431081805 1.14226359262020494
0.004009497869020606231 1.90004978679840453 0.004009497869020606231 1.31154971725296998
0.005047658755842121536 2.22262497809093640 0.005047658755842121536 1.50100447808947046
0.006354625877790454069 2.59125215766206907 0.006354625877790454069 1.71272550000256873
0.008000000000009777068 3.01131290088340631 0.008000000000009777068 1.94910782767298674
0.010071403294347192059 3.48877598320110138 0.010071403294347192059 2.21288966781840557
0.012679145539706837553 4.03028122772201058 0.012679145539706837553 2.50719823115153195
0.015962098519750611558 4.64323367011753785 0.015962098519750611558 2.83559354912869566
0.020095091452091651263 5.33590711984070332 0.020095091452091651263 3.20210647812789295
0.025298221281360611101 6.11755517185089115 0.025298221281360611101 3.61127237336892870
0.031848573644296607199 6.99852935369117546 0.031848573644296607199 4.06818248056610798
0.040094978690177640601 7.99041250474316023 0.040094978690177640601 4.57859459271712232
0.050476587558421215363 9.10618604177844126 0.050476587558421215363 5.14910432828015097
0.063546258777961384112 10.36043959886381316 0.063546258777961384112 5.78723365574505610
0.079999999999998294697 11.76957537911893681 0.079999999999998294697 6.50112578143590092
0.100714032943542974863 13.35187225670246569 0.100714032943542974863 7.29856420724798127
0.126791455396897845276 15.12723181608142831 0.126791455396897845276 8.18535693941753273
0.159620985197506115583 17.11649015000348939 0.159620985197506115583 9.16364794644434077
0.200950914520760193227 19.34037629111771750 0.200950914520760193227 10.23098062936669805
0.252982212813478213320 21.81838037470866709 0.252982212813478213320 11.38085746440794210
0.318485736442795541734 24.56795364386741198 0.318485736442795541734 12.60390422268729971
0.400949786901833249431 27.60389204424306087 0.400949786901833249431 13.89163751386834633
0.504765875584155310207 30.93923861518022989 0.504765875584155310207 15.23772509045827128
0.635462587779443310865 34.58520808438900218 0.635462587779443310865 16.63970460279969998
0.799999999999997157829 38.55282026816522745 0.799999999999997157829 18.10146968389652500
1.007140329435344483500 42.85388588328235215 1.007140329435344483500 19.63637333623790227
1.267914553968893187630 47.50393462504968767 1.267914553968893187630 21.24985480579284669
1.596209851975103788391 52.51515126331748462 1.596209851975103788391 22.97369112032684058
2.009509145207672986544 57.91460582234270760 2.009509145207672986544 24.82194736415408087
2.529822128134711078928 63.71707067585023765 2.529822128134711078928 26.82637643569857744
3.184857364427998049905 69.95858340536511832 3.184857364427998049905 29.03097873403930862
4.009497869018190385759 76.66670088019341733 4.009497869018190385759 31.44675286979217432
5.009497869018204596614 83.62759539847628787 5.009497869018204596614 33.99839721826623418
6.009497869018204596614 89.67954022933345470 6.009497869018204596614 36.23841359806471019
7.009497869018204596614 95.05778936897715425 7.009497869018204596614 38.23345793393060177
8.009497869018204596614 99.90998373795309817 8.009497869018204596614 40.02132306089021796
9.009497869018204596614 104.33594058908279578 9.009497869018204596614 41.63527668613569688
10.009497869018190385759 108.40711066629783943 10.009497869018190385759 43.09726656236364306
11.009497869018190385759 112.17690559584103482 11.009497869018190385759 44.41626340252010152
12.009497869018190385759 115.68665171869325548 12.009497869018190385759 45.62112170914986109
13.009497869018190385759 118.96902531199827990 13.009497869018190385759 46.72458179870078254
14.009497869018190385759 122.05080711363825685 14.009497869018190385759 47.73593315050545272
15.009497869018190385759 124.95359353485476106 15.009497869018190385759 48.66627551184643607
16.009497869018204596614 127.69530945038384573 16.009497869018204596614 49.52523189386039348
17.009497869018204596614 130.29168001375859376 17.009497869018204596614 50.32167251882796677
18.009497869018204596614 132.75633015565185246 18.009497869018204596614 51.06508545683141165
19.009497869018204596614 135.10083387479349426 19.009497869018204596614 51.75745076361265973
20.009497869018204596614 137.33565686913951254 20.009497869018204596614 52.40251925308415082
21.009497869018204596614 139.46934627643170757 21.009497869018204596614 53.00330917160862043
22.009497869018190385759 141.50920388964860308 22.009497869018190385759 53.56517757766053478
23.009497869018190385759 143.46192949070220379 23.009497869018190385759 54.08990574837988419
24.009497869018190385759 145.33371058977658663 24.009497869018190385759 54.58344151980984549
25.009497869018190385759 147.13036366042209124 25.009497869018190385759 55.04832685161220240
26.009497869018190385759 148.85700572280117626 26.009497869018190385759 55.48713947851060624
27.009497869018204596614 150.51830555208033502 27.009497869018204596614 55.90320202636630142
28.009497869018190385759 152.11830966253100428 28.009497869018190385759 56.29733263523385034
29.009497869018190385759 153.66064429247074941 29.009497869018190385759 56.66758004051355613
30.009497869018190385759 155.14867712313113657 30.009497869018190385759 57.02202748382494235
31.009497869018190385759 156.58549322605261978 31.009497869018190385759 57.35774396064605440
32.009497869018190385759 157.97393392656456967 32.009497869018190385759 57.67609864240640150
33.009497869018218807469 159.31664146284856542 33.009497869018218807469 57.97618975028107968
34.009497869018190385759 160.61613604777735986 34.009497869018190385759 58.26518995401195866
35.009497869018218807469 161.87466826128877528 35.009497869018218807469 58.53940613373961810
36.009497869018190385759 163.09431924160770677 36.009497869018190385759 58.80361612486888134
37.009497869018218807469 164.27701700061416545 37.009497869018218807469 59.05703502389435755
38.009497869018190385759 165.42459671694996359 38.009497869018190385759 59.30074476262718264
39.009497869018190385759 166.53873792936224163 39.009497869018190385759 59.53584272459184490
40.009497869018190385759 167.62101320752043421 40.009497869018190385759 59.76107534416184563
41.009497869018190385759 168.67293174398088240 41.009497869018190385759 59.97988148686039978
42.009497869018190385759 169.69587602865146891 42.009497869018190385759 60.18692732897850561
43.009497869018190385759 170.69115067538166386 43.009497869018190385759 60.39067307225003844
44.009497869018218807469 171.66001220076489631 44.009497869018218807469 60.57959922560040411
46.009497869018218807469 173.52316198448627915 46.009497869018218807469 60.94035579135969982
48.009497869018218807469 175.29334387990456889 48.009497869018218807469 61.27161414822551677
50.009497869018218807469 176.97693942986356319 50.009497869018218807469 61.55752444088516029
52.009497869018190385759 178.58031206565439675 52.009497869018190385759 61.81130073247727807
54.009497869018190385759 180.10951592450200565 54.009497869018190385759 62.03820613240405635
56.009497869018190385759 181.56934845769490039 56.009497869018190385759 62.23915216267378270
58.009497869018190385759 182.96394626461361099 58.009497869018190385759 62.41523162399328584
60.009497869018190385759 184.29742654839648708 60.009497869018190385759 62.59946638617206105
62.009497869018190385759 185.57325091958313124 62.009497869018190385759 62.77536567995529282
64.009497869018190385759 186.79504751822679509 64.009497869018190385759 62.94288306775654007
66.009497869018218807469 187.96770799154862175 66.009497869018218807469 63.11982032981841684
68.009497869018218807469 189.09546701446006978 68.009497869018218807469 63.29727930346381726
70.009497869018218807469 190.18084089317579810 70.009497869018218807469 63.44370485252191116
72.009497869018218807469 191.22646071337297258 72.009497869018218807469 63.54365997241631447
74.009497869018190385759 192.23476626166768710 74.009497869018190385759 63.63424585921164578
76.009497869018190385759 193.20772293632049355 76.009497869018190385759 63.71320051894340253
78.009497869018190385759 194.14785371189267948 78.009497869018190385759 63.81023054592560584
80.009497869018190385759 195.05671998789227928 80.009497869018190385759 63.85855512116734900
82.009497869018190385759 195.93429671745363407 82.009497869018190385759 63.92390484020039310
84.009497869018190385759 196.78098149706511322 84.009497869018190385759 63.97512109352599907
86.009497869018190385759 197.59747512847610551 86.009497869018190385759 63.96166427455934667
88.009497869018218807469 198.38582797710085970 88.009497869018218807469 63.96818015400044999
91.009497869018190385759 199.51745456647489618 91.009497869018190385759 63.94362092132224973
94.009497869018218807469 200.59200418010973976 94.009497869018218807469 63.96497416162495142
97.009497869018190385759 201.61722053646997210 97.009497869018190385759 64.06288644865669824
99.504748934509109403734 202.43790456939231603 99.504748934509109403734 64.11104413017606873
nan nan nan nan

