Time Pressure difference Time.1 Pressure.1 difference.1
(hr) (psi) (hr) (psi)
0.000200000000006639311 0.83066864002818952 0.000200000000006639311 0.66336581184681020
0.000399999999999067768 1.65840730711506579 0.000399999999999067768 1.72499001990971212
0.000600000000005707079 2.48372525801615396 0.000600000000005707079 2.51854741372136637
0.000799999999998135536 3.30685797086883015 0.000799999999998135536 3.32333203637712105
0.001007140329434719206 4.15723082923235410 0.001007140329434719206 4.16494345478103867
0.001267914553963578328 5.22486531904390983 0.001267914553963578328 5.22753536739036395
0.001596209851982166583 6.56456824005240147 0.001596209851982166583 6.55743323620765128
0.002009509145210586212 8.24462503741296260 0.002009509145210586212 8.22001659777311744
0.002529822128138903281 10.34994705853394592 0.002529822128138903281 10.29572825570115135
0.003184857364445292660 12.98585900612850352 0.003184857364445292660 12.88309071481907253
0.004009497869020606231 16.28263409525618854 0.004009497869020606231 16.10208612207533818
0.005047658755842121536 20.40083614551993563 0.005047658755842121536 20.09781288780317965
0.006354625877804664924 25.53753578164818450 0.006354625877804664924 25.04424277968535151
0.008000000000009777068 31.93337831477036559 0.008000000000009777068 31.14775059850882144
0.010071403294347192059 39.88041872505691998 0.010071403294347192059 38.64991059497661752
0.012679145539692626699 49.73046728559720719 0.012679145539692626699 47.82866712767820871
0.015962098519750611558 61.90344872151592170 0.015962098519750611558 58.99674389107489247
0.020095091452091651263 76.89499338577725496 0.020095091452091651263 72.49570144953148088
0.025298221281346400247 95.28202831187206812 0.025298221281346400247 88.68336198389557978
0.031848573644282396344 117.72453287836985680 0.031848573644282396344 107.91183192051907724
0.040094978690191851456 144.96094805341218148 0.040094978690191851456 130.49281139987598976
0.050476587558421215363 177.79387610039532319 0.050476587558421215363 156.64960422339754587
0.063546258777947173257 217.06328793758598295 0.063546258777947173257 186.44923250142761617
0.079999999999998294697 263.60084206185933908 0.079999999999998294697 219.72023385330743395
0.100714032943542974863 318.16511121362157155 0.100714032943542974863 255.96688924542326049
0.126791455396897845276 381.35629324309394406 0.126791455396897845276 294.27639856866829859
0.159620985197506115583 453.50864682073478207 0.159620985197506115583 333.27867863678301319
0.200950914520774404082 534.58674321329988288 0.200950914520774404082 371.15683343712390752
0.252982212813464002465 624.08295926304538170 0.252982212813464002465 405.78033122918344588
0.318485736442795541734 720.97544566673366262 0.318485736442795541734 434.95648825560772366
0.400949786901819038576 823.74196068721437314 0.400949786901819038576 456.78962101848475186
0.504765875584169521062 930.48365909680865116 0.504765875584169521062 470.08832844857022337
0.635462587779443310865 1039.12654832299926966 0.635462587779443310865 474.65651405485374426
0.799999999999997157829 1147.67869664735962942 0.799999999999997157829 471.38415767706521819
1.007140329435330272645 1254.47208065829590851 1.007140329435330272645 462.07499575340710862
1.267914553968893187630 1358.33829178868609233 1.267914553968893187630 449.04658466745564738
1.596209851975103788391 1458.66385521280176363 1.596209851975103788391 434.62894455967398244
2.009509145207687197399 1555.33306839136457711 2.009509145207687197399 420.77801540706371952
2.529822128134711078928 1648.60374488211118660 2.529822128134711078928 408.83542816385659080
3.184857364427983839050 1738.93884924977373885 3.184857364427983839050 399.48071069173244041
4.009497869018190385759 1826.86012973993319974 4.009497869018190385759 392.83613450529787769
5.009497869018190385759 1910.02767208600675986 5.009497869018190385759 388.70842323355088865
6.009497869018190385759 1976.87211147696507396 6.009497869018190385759 386.75784857534966932
7.009497869018204596614 2032.68969581762621601 7.009497869018204596614 385.89551286746672076
8.009497869018190385759 2080.53326244890013186 8.009497869018190385759 385.71410139983845511
9.009497869018204596614 2122.36466763039288708 9.009497869018204596614 385.85603838104032093
10.009497869018190385759 2159.43971558665180055 10.009497869018190385759 386.05489876404607230
11.009497869018190385759 2192.73114631613589154 11.009497869018190385759 386.19434740864630839
12.009497869018190385759 2222.85077002410480418 12.009497869018190385759 386.62053140243000371
13.009497869018190385759 2250.32342525987178306 13.009497869018190385759 386.90391492041925403
14.009497869018204596614 2275.59786986347990023 14.009497869018204596614 387.14184274844166112
15.009497869018190385759 2298.92247973088069557 15.009497869018190385759 387.66824562039596458
16.009497869018190385759 2320.55397727706258593 16.009497869018190385759 388.01620650227039278
17.009497869018190385759 2340.75996116980923034 17.009497869018190385759 388.05834106348004298
18.009497869018190385759 2359.65460276473731938 18.009497869018190385759 388.53069514280758767
19.009497869018204596614 2377.34767662952663159 19.009497869018204596614 388.77401440507082953
20.009497869018190385759 2393.99283507579048091 20.009497869018190385759 389.02593233858380017
21.009497869018204596614 2409.75559984014444126 21.009497869018204596614 389.02303197269111479
22.009497869018190385759 2424.67605079079248753 22.009497869018190385759 389.11384591538842415
23.009497869018190385759 2438.81192601842576551 23.009497869018190385759 389.68109363119083355
24.009497869018190385759 2452.20487985108456996 24.009497869018190385759 389.80907883034478800
25.009497869018190385759 2464.94815450955456981 25.009497869018190385759 389.84059315735015616
26.009497869018204596614 2477.14158159010958116 26.009497869018204596614 390.00025376483154105
27.009497869018190385759 2488.79804088446735477 27.009497869018190385759 389.92467773256953478
28.009497869018190385759 2499.94048724238882642 28.009497869018190385759 390.08846204726330598
29.009497869018190385759 2510.60217255608313280 29.009497869018190385759 390.57286900775199001
30.009497869018190385759 2520.79871505171377066 30.009497869018190385759 390.69204913243703459
31.009497869018190385759 2530.58142860446741906 31.009497869018190385759 390.72085142523957302
32.009497869018190385759 2540.00378847063575449 32.009497869018190385759 390.72832283106345130
33.009497869018190385759 2549.09246645959683519 33.009497869018190385759 390.80574703727080532
34.009497869018190385759 2557.85054929728676143 34.009497869018190385759 390.73539626606196862
35.009497869018190385759 2566.28761355049255144 35.009497869018190385759 390.93602093878558890
36.009497869018190385759 2574.42302626153832534 36.009497869018190385759 391.20725713006697788
37.009497869018190385759 2582.26869235591857432 37.009497869018190385759 391.39261316499221266
38.009497869018190385759 2589.83451574946457185 38.009497869018190385759 391.44250629553101817
39.009497869018190385759 2597.15158246222927119 39.009497869018190385759 391.39836936582270255
40.009497869018190385759 2604.24418201913704252 40.009497869018190385759 391.36809270365358771
41.009497869018190385759 2611.13221315084592788 41.009497869018190385759 391.39992792541784183
42.009497869018190385759 2617.81232042585406816 42.009497869018190385759 391.29739167362055241
43.009497869018190385759 2624.29071625197639150 43.009497869018190385759 391.34540717947839994
44.009497869018218807469 2630.57172619568063965 44.009497869018218807469 391.57282770460142274
46.009497869018190385759 2642.58327226817164046 46.009497869018190385759 391.79065359103441324
48.009497869018190385759 2653.89705502801734838 48.009497869018190385759 391.93631332490565455
50.009497869018190385759 2664.60362804958640481 50.009497869018190385759 391.78402007748400138
52.009497869018190385759 2674.79243010261052405 52.009497869018190385759 391.78940701754282827
54.009497869018190385759 2684.47762426342524122 54.009497869018190385759 391.81259413177320994
56.009497869018190385759 2693.68313415364900720 56.009497869018190385759 392.05543145644355718
58.009497869018218807469 2702.44707544264974786 58.009497869018218807469 392.19935805733007328
60.009497869018190385759 2710.79392290719124503 60.009497869018190385759 392.39381750953367600
62.009497869018190385759 2718.76552903137053363 62.009497869018190385759 392.40992419651644241
64.009497869018190385759 2726.40411383540140378 64.009497869018190385759 392.34850056627976755
66.009497869018190385759 2733.73178673794518545 66.009497869018190385759 392.29221782981511524
68.009497869018190385759 2740.75827882299427074 68.009497869018190385759 392.37257896790043787
70.009497869018190385759 2747.49487529995758450 70.009497869018190385759 392.43377718435397128
72.009497869018218807469 2753.96297467130489167 72.009497869018218807469 392.53717438305773157
74.009497869018190385759 2760.17680906474515723 74.009497869018190385759 392.62913820831244038
76.009497869018190385759 2766.15050527601079011 76.009497869018190385759 392.63383401456144384
78.009497869018190385759 2771.90373618095236452 78.009497869018190385759 392.62516112664883394
80.009497869018190385759 2777.45429657971635606 80.009497869018190385759 392.55813158639813309
82.009497869018218807469 2782.81538973011083726 82.009497869018218807469 392.49288916811605077
84.009497869018190385759 2787.99147419389328206 84.009497869018190385759 392.45320652267184869
86.009497869018190385759 2792.98768773975052682 86.009497869018190385759 392.40776064215071983
88.009497869018190385759 2797.81263071252715235 88.009497869018190385759 392.36371279758577657
91.009497869018218807469 2804.75319371865498397 91.009497869018218807469 392.30607613488695051
94.009497869018190385759 2811.36087415078372942 94.009497869018190385759 392.30989907905524205
97.009497869018190385759 2817.66179389326771343 97.009497869018190385759 392.35094270787305959
99.504748934509109403734 2822.68760794967101901 99.504748934509109403734 392.46179157195848575
nan nan nan nan

