Time Pressure difference Time.1 Pressure.1 difference.1
(hr) (psi) (hr) (psi)
0.000200000000006639311 0.86389538562931711 0.000200000000006639311 0.68990044432068254
0.000399999999999067768 1.72474359939966870 0.000399999999999067768 1.79398962070610057
0.000600000000005707079 2.58307426833679976 0.000600000000005707079 2.61928931027022083
0.000799999999998135536 3.43913228970358320 0.000799999999998135536 3.45626531783220603
0.001007140329434719206 4.32352006240164854 0.001007140329434719206 4.33154119297228046
0.001267914553963578328 5.43385993180566640 0.001267914553963578328 5.43663678208597734
0.001596209851982166583 6.82715096965449764 0.001596209851982166583 6.81973056565595748
0.002009509145210586212 8.57441003890947862 0.002009509145210586212 8.54881726168404299
0.002529822128138903281 10.76394494087530340 0.002529822128138903281 10.70755738592919748
0.003184857364445292660 13.50529336637364430 0.003184857364445292660 13.39841434341183479
0.004009497869020606231 16.93393945906643694 0.004009497869020606231 16.74616956695835412
0.005047658755842121536 21.21686959134073192 0.005047658755842121536 20.90172540331530726
0.006354625877804664924 26.55903721291411301 0.006354625877804664924 26.04601249087276216
0.008000000000009777068 33.21071344736117936 0.008000000000009777068 32.39366062244916833
0.010071403294347192059 41.47563547405920303 0.010071403294347192059 40.19590701877567795
0.012679145539692626699 51.71968597702110060 0.012679145539692626699 49.74181381278533820
0.015962098519750611558 64.37958667037655403 0.015962098519750611558 61.35661364671789642
0.020095091452091651263 79.97079312120834516 0.020095091452091651263 75.39552950751271965
0.025298221281346400247 99.09330944434694288 0.025298221281346400247 92.23069646325139104
0.031848573644282396344 122.43351419350464937 0.031848573644282396344 112.22830519733983579
0.040094978690191851456 150.75938597554866760 0.040094978690191851456 135.71252385587104072
0.050476587558421215363 184.90563114441115999 0.050476587558421215363 162.91558839233346134
0.063546258777947173257 225.74581945508941772 0.063546258777947173257 193.90720180148474583
0.079999999999998294697 274.14487574433366035 0.079999999999998294697 228.50904320743975973
0.100714032943542974863 330.89171566216646170 0.100714032943542974863 266.20556481524016590
0.126791455396897845276 396.61054497281770637 0.126791455396897845276 306.04745451141502599
0.159620985197506115583 471.64899269356419609 0.159620985197506115583 346.60982578225429052
0.200950914520774404082 555.97021294183196005 0.200950914520774404082 386.00310677460885245
0.252982212813464002465 649.04627763356722880 0.252982212813464002465 422.01154447835079964
0.318485736442795541734 749.81446349340285451 0.318485736442795541734 452.35474778583204625
0.400949786901819038576 856.69163911470286621 0.400949786901819038576 475.06120585922411692
0.504765875584169521062 967.70300546068096992 0.504765875584169521062 488.89186158651295955
0.635462587779443310865 1080.69161025591938596 0.635462587779443310865 493.64277461704784855
0.799999999999997157829 1193.58584451325418740 0.799999999999997157829 490.23952398414786558
1.007140329435330272645 1304.65096388462757204 1.007140329435330272645 480.55799558354345891
1.267914553968893187630 1412.67182346023355421 1.267914553968893187630 467.00844805415391647
1.596209851975103788391 1517.01040942131385236 1.596209851975103788391 452.01410234206093719
2.009509145207687197399 1617.54639112701920567 2.009509145207687197399 437.60913602334625239
2.529822128134711078928 1714.54789467739556130 2.529822128134711078928 425.18884529041088172
3.184857364427983839050 1808.49640321976471569 3.184857364427983839050 415.45993911940178123
4.009497869018190385759 1899.93453492953062778 4.009497869018190385759 408.54957988550978598
5.009497869018190385759 1986.42877896944742133 5.009497869018190385759 404.25676016289287418
6.009497869018190385759 2055.94699593604400434 6.009497869018190385759 402.22816251836366064
7.009497869018204596614 2113.99728365033161026 7.009497869018204596614 401.33133338216538277
8.009497869018190385759 2163.75459294685606437 8.009497869018190385759 401.14266545583200241
9.009497869018204596614 2207.25925433560860256 9.009497869018204596614 401.29027991628191785
10.009497869018190385759 2245.81730421011798171 10.009497869018190385759 401.49709471460795385
11.009497869018190385759 2280.44039216878127263 11.009497869018190385759 401.64212130499214481
12.009497869018190385759 2311.76480082506895997 12.009497869018190385759 402.08535265852719931
13.009497869018190385759 2340.33636227026727283 13.009497869018190385759 402.38007151723599009
14.009497869018204596614 2366.62178465801844141 14.009497869018204596614 402.62751645837931846
15.009497869018190385759 2390.87937892011586882 15.009497869018190385759 403.17497544521182817
16.009497869018190385759 2413.37613636814512574 16.009497869018190385759 403.53685476236120167
17.009497869018190385759 2434.39035961660147223 17.009497869018190385759 403.58067470601923787
18.009497869018190385759 2454.04078687532683034 18.009497869018190385759 404.07192294851989800
19.009497869018204596614 2472.44158369470733305 19.009497869018204596614 404.32497498127361268
20.009497869018190385759 2489.75254847882251852 20.009497869018190385759 404.58696963212713626
21.009497869018204596614 2506.14582383375045538 21.009497869018204596614 404.58395325159875711
22.009497869018190385759 2521.66309282242400513 22.009497869018190385759 404.67839975200388380
23.009497869018190385759 2536.36440305916221405 23.009497869018190385759 405.26833737643846689
24.009497869018190385759 2550.29307504512780724 24.009497869018190385759 405.40144198355858407
25.009497869018190385759 2563.54608068993684356 25.009497869018190385759 405.43421688364418287
26.009497869018204596614 2576.22724485371372793 26.009497869018204596614 405.60026391542476176
27.009497869018190385759 2588.34996251984603077 27.009497869018190385759 405.52166484187233664
28.009497869018190385759 2599.93810673208417938 28.009497869018190385759 405.69200052915380184
29.009497869018190385759 2611.02625945832642174 29.009497869018190385759 406.19578376806208553
30.009497869018190385759 2621.63066365378199407 30.009497869018190385759 406.31973109773446140
31.009497869018190385759 2631.80468574864607945 31.009497869018190385759 406.34968548224912865
32.009497869018190385759 2641.60394000946098458 32.009497869018190385759 406.35745574430598026
33.009497869018190385759 2651.05616511798052670 33.009497869018190385759 406.43797691876170575
34.009497869018190385759 2660.16457126917839560 34.009497869018190385759 406.36481211670445646
35.009497869018190385759 2668.93911809251221712 35.009497869018190385759 406.57346177633701245
36.009497869018190385759 2677.39994731199931266 36.009497869018190385759 406.85554741526965472
37.009497869018190385759 2685.55944005015498988 37.009497869018190385759 407.04831769159193300
38.009497869018190385759 2693.42789637944315473 38.009497869018190385759 407.10020654735222934
39.009497869018190385759 2701.03764576071898773 39.009497869018190385759 407.05430414045565612
40.009497869018190385759 2708.41394929990246965 40.009497869018190385759 407.02281641179973803
41.009497869018190385759 2715.57750167687981957 41.009497869018190385759 407.05592504243458052
42.009497869018190385759 2722.52481324288828546 42.009497869018190385759 406.94928734056537678
43.009497869018190385759 2729.26234490205524708 43.009497869018190385759 406.99922346665755413
44.009497869018218807469 2735.79459524350795618 44.009497869018218807469 407.23574081278547965
46.009497869018190385759 2748.28660315889874255 46.009497869018190385759 407.46227973467580341
48.009497869018190385759 2760.05293722913802412 48.009497869018190385759 407.61376585790191029
50.009497869018190385759 2771.18777317156991558 50.009497869018190385759 407.45538088058333415
52.009497869018190385759 2781.78412730671470854 52.009497869018190385759 407.46098329824451412
54.009497869018190385759 2791.85672923396214173 54.009497869018190385759 407.48509789704411332
56.009497869018190385759 2801.43045951979502206 56.009497869018190385759 407.73764871470126536
58.009497869018218807469 2810.54495846035570139 58.009497869018218807469 407.88733237962333078
60.009497869018190385759 2819.22567982347891302 60.009497869018190385759 408.08957020991499576
62.009497869018190385759 2827.51615019262499118 62.009497869018190385759 408.10632116437710692
64.009497869018190385759 2835.46027838881718708 64.009497869018190385759 408.04244058893095826
66.009497869018190385759 2843.08105820746277459 66.009497869018190385759 407.98390654300771985
68.009497869018190385759 2850.38860997591382329 68.009497869018190385759 408.06748212661642583
70.009497869018190385759 2857.39467031195590607 70.009497869018190385759 408.13112827172807329
72.009497869018218807469 2864.12149365815685087 72.009497869018218807469 408.23866135837999991
74.009497869018190385759 2870.58388142733519999 74.009497869018190385759 408.33430373664492663
76.009497869018190385759 2876.79652548705098525 76.009497869018190385759 408.33918737514386521
78.009497869018190385759 2882.77988562819018625 78.009497869018190385759 408.33016757171481004
80.009497869018190385759 2888.55246844290513764 80.009497869018190385759 408.26045684985410844
82.009497869018218807469 2894.12800531931497972 82.009497869018218807469 408.19260473484069962
84.009497869018190385759 2899.51113316164901335 84.009497869018190385759 408.15133478357870445
86.009497869018190385759 2904.70719524934065703 86.009497869018190385759 408.10407106783674180
88.009497869018190385759 2909.72513594102883872 88.009497869018190385759 408.05826130948918262
91.009497869018218807469 2916.94332146740089229 91.009497869018218807469 407.99831918028240807
94.009497869018190385759 2923.81530911681466023 94.009497869018190385759 408.00229504221744037
97.009497869018190385759 2930.36826564899865843 97.009497869018190385759 408.04498041618802517
99.504748934509109403734 2935.59511226765789615 99.504748934509109403734 408.16026323483686156
nan nan nan nan

