Time Pressure difference Time.1 Pressure.1 difference.1
(hr) (psi) (hr) (psi)
0.000200000000006639311 0.23258721920789305 0.000200000000006639311 0.18574242731710683
0.000399999999999067768 0.46435404599221847 0.000399999999999067768 0.48299720557471937
0.000600000000005707079 0.69544307224452306 0.000600000000005707079 0.70519327584198266
0.000799999999998135536 0.92592023184327243 0.000799999999998135536 0.93053297018559389
0.001007140329434719206 1.16402463218505914 0.001007140329434719206 1.16618416733869079
0.001267914553963578328 1.46296228933229489 0.001267914553963578328 1.46370990286930169
0.001596209851982166583 1.83807910721467249 0.001596209851982166583 1.83608130613814247
0.002009509145210586212 2.30849501047562944 0.002009509145210586212 2.30160464737647263
0.002529822128138903281 2.89798517638950459 0.002529822128138903281 2.88280391159632243
0.003184857364445292660 3.63604052171598058 0.003184857364445292660 3.60726540014934072
0.004009497869020606231 4.55913754667173343 0.004009497869020606231 4.50858411418109473
0.005047658755842121536 5.71223412074558112 0.005047658755842121536 5.62738760858489062
0.006354625877804664924 7.15051001886149162 0.006354625877804664924 7.01238797831189764
0.008000000000009777068 8.94134592813570173 0.008000000000009777068 8.72137016758246908
0.010071403294347192059 11.16651724301593873 0.010071403294347192059 10.82197496659345326
0.012679145539692626699 13.92453083996721830 0.012679145539692626699 13.39202679574989929
0.015962098519750611558 17.33296564202445822 0.015962098519750611558 16.51908828950097075
0.020095091452091651263 21.53059814801763139 0.020095091452091651263 20.29879640586881351
0.025298221281346400247 26.67896792732417666 0.025298221281346400247 24.83134135549076049
0.031848573644282396344 32.96286920594355507 0.031848573644282396344 30.21531293774533822
0.040094978690191851456 40.58906545495540996 0.040094978690191851456 36.53798719196527145
0.050476587558421215363 49.78228530811069419 0.050476587558421215363 43.86188918255131597
0.063546258777947173257 60.77772062252406471 0.063546258777947173257 52.20578510039973708
0.079999999999998294697 73.80823577732060414 0.079999999999998294697 61.52166547892609572
0.100714032943542974863 89.08623113981403208 0.100714032943542974863 71.67072898871850839
0.126791455396897845276 106.77976210806630775 0.126791455396897845276 82.39739159922712020
0.159620985197506115583 126.98242110980575603 0.159620985197506115583 93.31803001829923971
0.200950914520774404082 149.68428809972397175 0.200950914520774404082 103.92391336239468558
0.252982212813464002465 174.74322859365270233 0.252982212813464002465 113.61849274417136257
0.318485736442795541734 201.87312478668539484 0.318485736442795541734 121.78781671157015865
0.400949786901819038576 230.64774899242001993 0.400949786901819038576 127.90109388517572597
0.504765875584169521062 260.53542454710640186 0.504765875584169521062 131.62473196559966482
0.635462587779443310865 290.95543353043979096 0.635462587779443310865 132.90382393535904271
0.799999999999997157829 321.35003506126076900 0.799999999999997157829 131.98756414957827587
1.007140329435330272645 351.25218258432283847 1.007140329435330272645 129.38099881095399724
1.267914553968893187630 380.33472170083211950 1.267914553968893187630 125.73304370688759946
1.596209851975103788391 408.42587945958450746 1.596209851975103788391 121.69610447670869746
2.009509145207687197399 435.49325914958211570 2.009509145207687197399 117.81784431397784374
2.529822128134711078928 461.60904856699119136 2.529822128134711078928 114.47391988587985168
3.184857364427983839050 486.90287778993661050 3.184857364427983839050 111.85459899368508729
4.009497869018190385759 511.52083632718131412 4.009497869018190385759 109.99411766148340064
5.009497869018190385759 534.80774818408190185 5.009497869018190385759 108.83835850539422552
6.009497869018190385759 553.52419121355035259 6.009497869018190385759 108.29219760109791082
7.009497869018204596614 569.15311482893537232 7.009497869018204596614 108.05074360289069091
8.009497869018190385759 582.54931348569209604 8.009497869018190385759 107.99994839195477425
9.009497869018204596614 594.26210693651000838 9.009497869018204596614 108.03969074669127792
10.009497869018190385759 604.64312036426247232 10.009497869018190385759 108.09537165393290081
11.009497869018190385759 613.96472096851800870 11.009497869018190385759 108.13441727442096862
12.009497869018190385759 622.39821560674943157 12.009497869018190385759 108.25374879268039763
13.009497869018190385759 630.09055907276422204 13.009497869018190385759 108.33309617771739397
14.009497869018204596614 637.16740356177433569 14.009497869018204596614 108.39971596956365829
15.009497869018190385759 643.69829432464655383 15.009497869018190385759 108.54710877371086042
16.009497869018190385759 649.75511363757755134 16.009497869018190385759 108.64453782063570486
17.009497869018190385759 655.41278912754671637 17.009497869018190385759 108.65633549777440692
18.009497869018190385759 660.70328877412646307 18.009497869018190385759 108.78859463998612966
19.009497869018204596614 665.65734945626741137 19.009497869018204596614 108.85672403341982317
20.009497869018190385759 670.31799382122142106 20.009497869018190385759 108.92726105480345211
21.009497869018204596614 674.73156795524039353 21.009497869018204596614 108.92644895235351044
22.009497869018190385759 678.90929422142198746 22.009497869018190385759 108.95187685630875762
23.009497869018190385759 682.86733928515911884 23.009497869018190385759 109.11070621673343339
24.009497869018190385759 686.61736635830379782 24.009497869018190385759 109.14654207249654405
25.009497869018190385759 690.18548326267534776 25.009497869018190385759 109.15536608405804486
26.009497869018204596614 693.59964284523073275 26.009497869018204596614 109.20007105415281501
27.009497869018190385759 696.86345144765084569 27.009497869018190385759 109.17890976511948509
28.009497869018190385759 699.98333642786894870 28.009497869018190385759 109.22476937323372681
29.009497869018190385759 702.96860831570324990 29.009497869018190385759 109.36040332217055493
30.009497869018190385759 705.82364021447983760 30.009497869018190385759 109.39377375708235718
31.009497869018190385759 708.56280000925085005 31.009497869018190385759 109.40183839906708840
32.009497869018190385759 711.20106077177808857 32.009497869018190385759 109.40393039269775954
33.009497869018190385759 713.74589060868697743 33.009497869018190385759 109.42560917043583402
34.009497869018190385759 716.19815380324030230 34.009497869018190385759 109.40591095449734382
35.009497869018190385759 718.56053179413788712 35.009497869018190385759 109.46208586285996489
36.009497869018190385759 720.83844735323066288 36.009497869018190385759 109.53803199641875210
37.009497869018190385759 723.03523385965718262 37.009497869018190385759 109.58993168619781500
38.009497869018190385759 725.15366440985008012 38.009497869018190385759 109.60390176274869134
39.009497869018190385759 727.20244308942426414 39.009497869018190385759 109.59154342243036240
40.009497869018190385759 729.18837096535833098 40.009497869018190385759 109.58306595702300967
41.009497869018190385759 731.11701968223690074 41.009497869018190385759 109.59197981911700026
42.009497869018190385759 732.98744971923906633 42.009497869018190385759 109.56326966861375638
43.009497869018190385759 734.80140055055335324 43.009497869018190385759 109.57671401025396563
44.009497869018218807469 736.56008333479053363 44.009497869018218807469 109.64039175728839837
46.009497869018190385759 739.92331623508800931 46.009497869018190385759 109.70138300548964594
48.009497869018190385759 743.09117540784484390 48.009497869018190385759 109.74216773097357702
50.009497869018190385759 746.08901585388423428 50.009497869018190385759 109.69952562169552834
52.009497869018190385759 748.94188042873088307 52.009497869018190385759 109.70103396491199987
54.009497869018190385759 751.65373479375898569 54.009497869018190385759 109.70752635689649424
56.009497869018190385759 754.23127756302176294 56.009497869018190385759 109.77552080780419885
58.009497869018218807469 756.68518112394190211 58.009497869018218807469 109.81582025605243302
60.009497869018190385759 759.02229841401356225 60.009497869018190385759 109.87026890266943724
62.009497869018190385759 761.25434812878359025 62.009497869018190385759 109.87477877502459478
64.009497869018190385759 763.39315187391241579 64.009497869018190385759 109.85758015855833492
66.009497869018190385759 765.44490028662460190 66.009497869018190385759 109.84182099234823227
68.009497869018190385759 767.41231807043845947 68.009497869018190385759 109.86432211101212886
70.009497869018190385759 769.29856508398813730 70.009497869018190385759 109.88145761161909775
72.009497869018218807469 771.10963290796541969 72.009497869018218807469 109.91040882725616257
74.009497869018190385759 772.84950653812870769 74.009497869018190385759 109.93615869832748899
76.009497869018190385759 774.52214147728307125 76.009497869018190385759 109.93747352407719120
78.009497869018190385759 776.13304613066668480 78.009497869018190385759 109.93504511546167635
80.009497869018190385759 777.68720304232056151 80.009497869018190385759 109.91627684419148636
82.009497869018218807469 779.18830912443092984 82.009497869018218807469 109.89800896707249933
84.009497869018190385759 780.63761277429011898 84.009497869018190385759 109.88689782634811820
86.009497869018190385759 782.03655256713022936 86.009497869018190385759 109.87417297980221065
88.009497869018190385759 783.38753659950759811 88.009497869018190385759 109.86183958332402710
91.009497869018218807469 785.33089424122329092 91.009497869018218807469 109.84570131776834501
94.009497869018190385759 787.18104476221924415 94.009497869018190385759 109.84677174213545925
97.009497869018190385759 788.94530229011502342 97.009497869018190385759 109.85826395820446066
99.504748934509109403734 790.35253022590791261 99.504748934509109403734 109.88930164014837487
nan nan nan nan

