Time Pressure difference Time.1 Pressure.1 difference.1
(hr) (psi) (hr) (psi)
0.000200000000006639311 0.28242733760958444 0.000200000000006639311 0.22554437602791544
0.000399999999999067768 0.56385848441912245 0.000399999999999067768 0.58649660676930215
0.000600000000005707079 0.84446658772549232 0.000600000000005707079 0.85630612066526457
0.000799999999998135536 1.12433171009540223 0.000799999999998135536 1.12993289236822103
0.001007140329434719206 1.41345848193900059 0.001007140329434719206 1.41608077462555348
0.001267914553963578328 1.77645420847492952 0.001267914553963578328 1.77736202491272355
0.001596209851982166583 2.23195320161781652 0.001596209851982166583 2.22952730031060131
0.002009509145210586212 2.80317251272040702 0.002009509145210586212 2.79480564324285963
0.002529822128138903281 3.51898199990154126 0.002529822128138903281 3.50054760693839162
0.003184857364445292660 4.41519206208369042 0.003184857364445292660 4.38025084303848455
0.004009497869020606231 5.53609559238710425 0.004009497869020606231 5.47470928150561598
0.005047658755842121536 6.93628428947677733 0.005047658755842121536 6.83325638185308115
0.006354625877804664924 8.68276216576038351 0.006354625877804664924 8.51504254509301894
0.008000000000009777068 10.85734862702192416 0.008000000000009777068 10.59023520349299829
0.010071403294347192059 13.55934236651935443 0.010071403294347192059 13.14096960229204925
0.012679145539692626699 16.90835887710305130 0.012679145539692626699 16.26174682341059352
0.015962098519750611558 21.04717256531541381 0.015962098519750611558 20.05889292296546600
0.020095091452091651263 26.14429775116426669 0.020095091452091651263 24.64853849284070009
0.025298221281346400247 32.39588962603650657 0.025298221281346400247 30.15234307452449158
0.031848573644282396344 40.02634117864575103 0.031848573644282396344 36.69002285297648314
0.040094978690191851456 49.28672233816014625 0.040094978690191851456 44.36755587595783368
0.050476587558421215363 60.44991787413442097 0.050476587558421215363 53.26086543595517497
0.063546258777947173257 73.80151789877923818 0.063546258777947173257 63.39273905048539604
0.079999999999998294697 89.62428630103217131 0.079999999999998294697 74.70487951012454175
0.100714032943542974863 108.17613781263133887 0.100714032943542974863 87.02874234344390914
0.126791455396897845276 129.66113970265195121 0.126791455396897845276 100.05397551334721129
0.159620985197506115583 154.19293991904982022 0.159620985197506115583 113.31475073650621255
0.200950914520774404082 181.75949269252197382 0.200950914520774404082 126.19332336862213140
0.252982212813464002465 212.18820614943541614 0.252982212813464002465 137.96531261792236478
0.318485736442795541734 245.13165152668941005 0.318485736442795541734 147.88520600690662832
0.400949786901819038576 280.07226663365287322 0.400949786901819038576 155.30847114628480199
0.504765875584169521062 316.36444409291493685 0.504765875584169521062 159.83003167251385435
0.635462587779443310865 353.30302642981979488 0.635462587779443310865 161.38321477865025599
0.799999999999997157829 390.21075686010226491 0.799999999999997157829 160.27061361020216168
1.007140329435330272645 426.52050742382056114 1.007140329435330272645 157.10549855615843740
1.267914553968893187630 461.83501920815331232 1.267914553968893187630 152.67583878693491783
1.596209851975103788391 495.94571077235258372 1.596209851975103788391 147.77384115028917222
2.009509145207687197399 528.81324325306400169 2.009509145207687197399 143.06452523840167146
2.529822128134711078928 560.52527325991775342 2.529822128134711078928 139.00404557571124542
3.184857364427983839050 591.23920874492307576 3.184857364427983839050 135.82344163518905589
4.009497869018190385759 621.13244411157734248 4.009497869018190385759 133.56428573180127728
5.009497869018190385759 649.40940850924232564 5.009497869018190385759 132.16086389940730328
6.009497869018190385759 672.13651790216817972 6.009497869018190385759 131.49766851561886938
7.009497869018204596614 691.11449657799300894 7.009497869018204596614 131.20447437493868392
8.009497869018190385759 707.38130923262599481 8.009497869018190385759 131.14279447594506678
9.009497869018204596614 721.60398699433358161 9.009497869018204596614 131.19105304955371594
10.009497869018190385759 734.20950329946174406 10.009497869018190385759 131.25866557977568050
11.009497869018190385759 745.52858974748619403 11.009497869018190385759 131.30607811893972325
12.009497869018190385759 755.76926180819566525 12.009497869018190385759 131.45098067682619103
13.009497869018190385759 765.10996458835654721 13.009497869018190385759 131.54733107294254069
14.009497869018204596614 773.70327575358305694 14.009497869018204596614 131.62822653447014432
15.009497869018190385759 781.63364310849942740 15.009497869018190385759 131.80720351093461318
16.009497869018190385759 788.98835227420124738 16.009497869018190385759 131.92551021077193241
17.009497869018190385759 795.85838679773519289 17.009497869018190385759 131.93983596158321348
18.009497869018190385759 802.28256494001072952 18.009497869018190385759 132.10043634855460937
19.009497869018204596614 808.29821005403891832 19.009497869018204596614 132.18316489772408318
20.009497869018190385759 813.95756392576890903 20.009497869018190385759 132.26881699511847046
21.009497869018204596614 819.31690394564907365 21.009497869018204596614 132.26783087071495970
22.009497869018190385759 824.38985726886949124 22.009497869018190385759 132.29870761123206080
23.009497869018190385759 829.19605484626470115 23.009497869018190385759 132.49157183460488341
24.009497869018190385759 833.74965914936876743 24.009497869018190385759 132.53508680231723815
25.009497869018190385759 838.08237253324864469 25.009497869018190385759 132.54580167349902808
26.009497869018204596614 842.22813774063729397 26.009497869018204596614 132.60008628004271714
27.009497869018190385759 846.19133390071885970 27.009497869018190385759 132.57439042907364524
28.009497869018190385759 849.97976566241220553 28.009497869018190385759 132.63007709606949902
29.009497869018190385759 853.60473866906818330 29.009497869018190385759 132.79477546263569820
30.009497869018190385759 857.07156311758262746 30.009497869018190385759 132.83529670502858266
31.009497869018190385759 860.39768572551895431 31.009497869018190385759 132.84508948458145028
32.009497869018190385759 863.60128808001616108 32.009497869018190385759 132.84762976256155298
33.009497869018190385759 866.69143859626274207 33.009497869018190385759 132.87395399267208518
34.009497869018190385759 869.66918676107752617 34.009497869018190385759 132.85003473046106137
35.009497869018190385759 872.53778860716738563 35.009497869018190385759 132.91824711918710022
36.009497869018190385759 875.30382892892293967 36.009497869018190385759 133.01046742422278157
37.009497869018190385759 877.97135540101226070 37.009497869018190385759 133.07348847609736708
38.009497869018190385759 880.54373535481795443 38.009497869018190385759 133.09045214048055072
39.009497869018190385759 883.03153803715804315 39.009497869018190385759 133.07544558437973592
40.009497869018190385759 885.44302188650658536 40.009497869018190385759 133.06515151924222096
41.009497869018190385759 887.78495247128762458 41.009497869018190385759 133.07597549464207987
42.009497869018190385759 890.05618894479050596 42.009497869018190385759 133.04111316903097872
43.009497869018190385759 892.25884352567197766 43.009497869018190385759 133.05743844102266848
44.009497869018218807469 894.39438690653139474 44.009497869018218807469 133.13476141956448373
46.009497869018190385759 898.47831257117843506 46.009497869018190385759 133.20882222095170277
48.009497869018190385759 902.32499870952597121 48.009497869018190385759 133.25834653046791800
50.009497869018190385759 905.96523353685938673 50.009497869018190385759 133.20656682634455592
52.009497869018190385759 909.42942623488761456 52.009497869018190385759 133.20839838596455706
54.009497869018190385759 912.72239224956445014 54.009497869018190385759 133.21628200480290616
56.009497869018190385759 915.85226561224067154 56.009497869018190385759 133.29884669519080376
58.009497869018218807469 918.83200565050083242 58.009497869018218807469 133.34778173949223401
60.009497869018190385759 921.66993378844506424 60.009497869018190385759 133.41389795324144529
62.009497869018190385759 924.38027987066584501 62.009497869018190385759 133.41937422681559156
64.009497869018190385759 926.97739870403643181 64.009497869018190385759 133.39849019253512097
66.009497869018190385759 929.46880749090132667 66.009497869018190385759 133.37935406213713918
68.009497869018190385759 931.85781479981812936 68.009497869018190385759 133.40667684908612500
70.009497869018190385759 934.14825760198561966 70.009497869018190385759 133.42748424268032181
72.009497869018218807469 936.34741138824358586 72.009497869018218807469 133.46263929023962191
74.009497869018190385759 938.46011508201331708 74.009497869018190385759 133.49390699082621836
76.009497869018190385759 940.49117179384370502 76.009497869018190385759 133.49550356495089432
78.009497869018190385759 942.44727030152375846 78.009497869018190385759 133.49255478306059786
80.009497869018190385759 944.33446083710362018 80.009497869018190385759 133.46976473937539254
82.009497869018218807469 946.15723250823759827 82.009497869018218807469 133.44758231715945840
84.009497869018190385759 947.91710122592371590 84.009497869018190385759 133.43409021770844447
86.009497869018190385759 949.61581383151519731 86.009497869018190385759 133.41863861833124361
88.009497869018190385759 951.25629444225933184 88.009497869018190385759 133.40366235117915039
91.009497869018218807469 953.61608586434260815 91.009497869018218807469 133.38406588586153134
94.009497869018190385759 955.86269721126632248 94.009497869018190385759 133.38536568687877093
97.009497869018190385759 958.00500992371109987 97.009497869018190385759 133.39932052067683799
99.504748934509109403734 959.71378670288822832 99.504748934509109403734 133.43700913446588174
nan nan nan nan

