Time Pressure difference Time.1 Pressure.1 difference.1
(hr) (psi) (hr) (psi)
0.000200000000006639311 0.31565408321071203 0.000200000000006639311 0.25207900850178788
0.000399999999999067768 0.63019477670372503 0.000399999999999067768 0.65549620756569060
0.000600000000005707079 0.94381559804613835 0.000600000000005707079 0.95704801721411925
0.000799999999998135536 1.25660602893015549 0.000799999999998135536 1.26286617382330602
0.001007140329434719206 1.57974771510829481 0.001007140329434719206 1.58267851281679484
0.001267914553963578328 1.98544882123668587 0.001267914553963578328 1.98646343960833827
0.001596209851982166583 2.49453593121991224 0.001596209851982166583 2.49182462975890751
0.002009509145210586212 3.13295751421692525 0.002009509145210586212 3.12360630715378473
0.002529822128138903281 3.93297988224289918 0.002529822128138903281 3.91237673716643775
0.003184857364445292660 4.93462642232883120 0.003184857364445292660 4.89557447163124770
0.004009497869020606231 6.18740095619735264 0.004009497869020606231 6.11879272638862837
0.005047658755842121536 7.75231773529757540 0.005047658755842121536 7.63716889736520788
0.006354625877804664924 9.70426359702631025 0.006354625877804664924 9.51681225628043137
0.008000000000009777068 12.13468375961273793 0.008000000000009777068 11.83614522743335051
0.010071403294347192059 15.15455911552163037 0.010071403294347192059 14.68696602609111501
0.012679145539692626699 18.89757756852694115 0.012679145539692626699 18.17489350851771945
0.015962098519750611558 23.52331051417604968 0.015962098519750611558 22.41876267860845928
0.020095091452091651263 29.22009748659535688 0.020095091452091651263 27.54836655082196017
0.025298221281346400247 36.20717075851138844 0.025298221281346400247 33.69967755388031350
0.031848573644282396344 44.73532249378054360 0.031848573644282396344 41.00649612979724878
0.040094978690191851456 55.08516026029662527 0.040094978690191851456 49.58726833195287043
0.050476587558421215363 67.56167291815022224 0.050476587558421215363 59.52684960489107624
0.063546258777947173257 82.48404941628267295 0.063546258777947173257 70.85070835054249017
0.079999999999998294697 100.16831998350653521 0.079999999999998294697 83.49368886425682490
0.100714032943542974863 120.90274226117620060 0.100714032943542974863 97.26741791326084297
0.126791455396897845276 144.91539143237571352 0.126791455396897845276 111.82503145609395290
0.159620985197506115583 172.33328579187923424 0.159620985197506115583 126.64589788197753251
0.200950914520774404082 203.14296242105396573 0.200950914520774404082 141.03959670610709054
0.252982212813464002465 237.15152451995720639 0.252982212813464002465 154.19652586708969011
0.318485736442795541734 273.97066935335874405 0.318485736442795541734 165.28346553713095091
0.400949786901819038576 313.02194506114142314 0.400949786901819038576 173.58005598702419547
0.504765875584169521062 353.58379045678731245 0.504765875584169521062 178.63356481045667579
0.635462587779443310865 394.86808836273974066 0.635462587779443310865 180.36947534084441713
0.799999999999997157829 436.11790472599670920 0.799999999999997157829 179.12597991728478064
1.007140329435330272645 476.69939065015239521 1.007140329435330272645 175.58849838629470241
1.267914553968893187630 516.16855087970077420 1.267914553968893187630 170.63770217363315851
1.596209851975103788391 554.29226498086472930 1.596209851975103788391 165.15899893267612697
2.009509145207687197399 591.02656598871851656 2.009509145207687197399 159.89564585468420432
2.529822128134711078928 626.46942305520235550 2.529822128134711078928 155.35746270226550791
3.184857364427983839050 660.79676271491393891 3.184857364427983839050 151.80267006285833986
4.009497869018190385759 694.20684930117465683 4.009497869018190385759 149.27773111201318557
5.009497869018190385759 725.81051539268264605 5.009497869018190385759 147.70920082874931722
6.009497869018190385759 751.21140236124688272 6.009497869018190385759 146.96798245863286070
7.009497869018204596614 772.42208441069806213 7.009497869018204596614 146.64029488963734593
8.009497869018190385759 790.60263973058204101 8.009497869018190385759 146.57135853193861408
9.009497869018204596614 806.49857369954929709 9.009497869018204596614 146.62529458479531286
10.009497869018190385759 820.58709192292769785 10.009497869018190385759 146.70086153033753362
11.009497869018190385759 833.23783560013157512 11.009497869018190385759 146.75385201528555967
12.009497869018190385759 844.68329260915982104 12.009497869018190385759 146.91580193292338663
13.009497869018190385759 855.12290159875135487 13.009497869018190385759 147.02348766975930516
14.009497869018204596614 864.72719054812228023 14.009497869018204596614 147.11390024440780167
15.009497869018190385759 873.59054229773460065 15.009497869018190385759 147.31393333575047677
16.009497869018190385759 881.81051136528378720 16.009497869018190385759 147.44615847086274130
17.009497869018190385759 889.48878524452754846 17.009497869018190385759 147.46216960412240837
18.009497869018190385759 896.66874905060012679 18.009497869018190385759 147.64166415426689127
19.009497869018204596614 903.39211711922007453 19.009497869018204596614 147.73412547392689476
20.009497869018190385759 909.71727732880060557 20.009497869018190385759 147.82985428866183497
21.009497869018204596614 915.70712793925486039 21.009497869018204596614 147.82875214962263044
22.009497869018190385759 921.37689930050123621 22.009497869018190385759 147.86326144784757730
23.009497869018190385759 926.74853188700171813 23.009497869018190385759 148.07881557985251675
24.009497869018190385759 931.83785434341223208 24.009497869018190385759 148.12744995553103422
25.009497869018190385759 936.68029871363080474 25.009497869018190385759 148.13942539979305479
26.009497869018204596614 941.31380100424166812 26.009497869018204596614 148.20009643063599469
27.009497869018190385759 945.74325553609764938 27.009497869018190385759 148.17137753837644709
28.009497869018190385759 949.97738515210778587 28.009497869018190385759 148.23361557796005172
29.009497869018190385759 954.02882557131158592 29.009497869018190385759 148.41769022294576530
30.009497869018190385759 957.90351171965119192 30.009497869018190385759 148.46297867032603790
31.009497869018190385759 961.62094286969761470 31.009497869018190385759 148.47392354159103434
32.009497869018190385759 965.20143961884161854 32.009497869018190385759 148.47676267580411036
33.009497869018190385759 968.65513725464666095 33.009497869018190385759 148.50618387416290034
34.009497869018190385759 971.98320873296904665 34.009497869018190385759 148.47945058110352079
35.009497869018190385759 975.18929314918716500 35.009497869018190385759 148.55568795673852378
36.009497869018190385759 978.28074997938449542 36.009497869018190385759 148.65875770942542999
37.009497869018190385759 981.26210309524901731 37.009497869018190385759 148.72919300269703058
38.009497869018190385759 984.13711598479653730 38.009497869018190385759 148.74815239230179031
39.009497869018190385759 986.91760133564719126 39.009497869018190385759 148.73138035901266107
40.009497869018190385759 989.61278916727212618 40.009497869018190385759 148.71987522738837129
41.009497869018190385759 992.23024099732151626 41.009497869018190385759 148.73197261165879013
42.009497869018190385759 994.76868176182460957 42.009497869018190385759 148.69300883597580309
43.009497869018190385759 997.23047217575106060 43.009497869018190385759 148.71125472820179425
44.009497869018218807469 999.61725595435859759 44.009497869018218807469 148.79767452774854064
46.009497869018190385759 1004.18164346190519609 46.009497869018190385759 148.88044836459309295
48.009497869018190385759 1008.48088091064664695 48.009497869018190385759 148.93579906346414532
50.009497869018190385759 1012.54937865884301118 50.009497869018190385759 148.87792762944391711
52.009497869018190385759 1016.42112343899202642 52.009497869018190385759 148.87997466666627133
54.009497869018190385759 1020.10149722010157802 54.009497869018190385759 148.88878577007380954
56.009497869018190385759 1023.59959097838668640 56.009497869018190385759 148.98106395344854036
58.009497869018218807469 1026.92988866820678595 58.009497869018218807469 149.03575606178543467
60.009497869018190385759 1030.10169070473261854 60.009497869018190385759 149.10965065362279347
62.009497869018190385759 1033.13090103192075730 62.009497869018190385759 149.11577119467622765
64.009497869018190385759 1036.03356325745244249 64.009497869018190385759 149.09243021518631167
66.009497869018190385759 1038.81807896041914319 66.009497869018190385759 149.07104277532974379
68.009497869018190385759 1041.48814595273779560 68.009497869018190385759 149.10158000780216980
70.009497869018190385759 1044.04805261398382754 70.009497869018190385759 149.12483533005450909
72.009497869018218807469 1046.50593037509588612 72.009497869018218807469 149.16412626556194709
74.009497869018190385759 1048.86718744460313246 74.009497869018190385759 149.19907251915870461
76.009497869018190385759 1051.13719200488412753 76.009497869018190385759 149.20085692553334411
78.009497869018190385759 1053.32341974876180757 78.009497869018190385759 149.19756122812654553
80.009497869018190385759 1055.43263270029228806 80.009497869018190385759 149.17209000283131104
82.009497869018218807469 1057.46984809744208178 82.009497869018218807469 149.14729788388410725
84.009497869018190385759 1059.43676019367944718 84.009497869018190385759 149.13221847861530023
86.009497869018190385759 1061.33532134110532752 86.009497869018190385759 149.11494904401726558
88.009497869018190385759 1063.16879967076033608 88.009497869018190385759 149.09821086308261329
91.009497869018218807469 1065.80621361308885753 91.009497869018218807469 149.07630893125704574
94.009497869018190385759 1068.31713217729770804 94.009497869018190385759 149.07776165004099767
97.009497869018190385759 1070.71148167944170382 97.009497869018190385759 149.09335822899177515
99.504748934509109403734 1072.62129102087487809 99.504748934509109403734 149.13548079734422913
nan nan nan nan

