Time Pressure difference Time.1 Pressure.1 difference.1
(hr) (psi) (hr) (psi)
0.000200000000006639311 0.37380088801268530 0.000200000000006639311 0.29851461533106460
0.000399999999999067768 0.74628328820177969 0.000399999999999067768 0.77624550895937039
0.000600000000005707079 1.11767636610726928 0.000600000000005707079 1.13334633617461478
0.000799999999998135536 1.48808608689097355 0.000799999999998135536 1.49549941636970440
0.001007140329434719206 1.87075387315455943 0.001007140329434719206 1.87422455465146753
0.001267914553963578328 2.35118939356975964 0.001267914553963578328 2.35239091532566347
0.001596209851982166583 2.95405570802358097 0.001596209851982166583 2.95084495629344312
0.002009509145210586212 3.71008126683583273 0.002009509145210586212 3.69900746899790311
0.002529822128138903281 4.65747617634027566 0.002529822128138903281 4.63307771506551802
0.003184857364445292660 5.84363655275782623 0.003184857364445292660 5.79739082166858299
0.004009497869020606231 7.32718534286528556 0.004009497869020606231 7.24593875493390271
0.005047658755842121536 9.18037626548396979 0.005047658755842121536 9.04401579951143120
0.006354625877804664924 11.49189110174168427 0.006354625877804664924 11.26990925085840622
0.008000000000009777068 14.37002024164666381 0.008000000000009777068 14.01648776932896823
0.010071403294347192059 17.94618842627561506 0.010071403294347192059 17.39245976773947433
0.012679145539692626699 22.37871027851874572 0.012679145539692626699 21.52290020745519428
0.015962098519750611558 27.85655192468216512 0.015962098519750611558 26.54853475098370197
0.020095091452091651263 34.60274702359976828 0.020095091452091651263 32.62306565228916355
0.025298221281346400247 42.87691274034242639 0.025298221281346400247 39.90751289275300451
0.031848573644282396344 52.97603979526643059 0.031848573644282396344 48.56032436423357979
0.040094978690191851456 65.23242662403548309 0.040094978690191851456 58.72176512994419539
0.050476587558421215363 80.00724424517791533 0.050476587558421215363 70.49232190052890701
0.063546258777947173257 97.67847957191368380 0.063546258777947173257 83.90215462564243865
0.079999999999998294697 118.62037892783668269 0.079999999999998294697 98.87410523398835949
0.100714032943542974863 143.17430004612970151 0.100714032943542974863 115.18510016044047006
0.126791455396897845276 171.61033195939228335 0.126791455396897845276 132.42437935590072584
0.159620985197506115583 204.07889106933066614 0.159620985197506115583 149.97540538655235309
0.200950914520774404082 240.56403444598495867 0.200950914520774404082 167.02057504670574417
0.252982212813464002465 280.83733166837038198 0.252982212813464002465 182.60114905313253075
0.318485736442795541734 324.43895055003008565 0.318485736442795541734 195.73041971502348702
0.400949786901819038576 370.68388230924642812 0.400949786901819038576 205.55532945831814118
0.504765875584169521062 418.71764659356387028 0.504765875584169521062 211.53974780185657778
0.635462587779443310865 467.60694674534965998 0.635462587779443310865 213.59543132468417070
0.799999999999997157829 516.45541349131190145 0.799999999999997157829 212.12287095467937093
1.007140329435330272645 564.51243629623309062 1.007140329435330272645 207.93374808903320172
1.267914553968893187630 611.25223130490883250 1.267914553968893187630 202.07096310035504416
1.596209851975103788391 656.39873484576071405 1.596209851975103788391 195.58302505185329778
2.009509145207687197399 699.89988077611417339 2.009509145207687197399 189.35010693317869368
2.529822128134711078928 741.87168519695012492 2.529822128134711078928 183.97594267373546018
3.184857364427983839050 782.52248216239820522 3.184857364427983839050 179.76631981127960103
4.009497869018190385759 822.08705838297009905 4.009497869018190385759 176.77626052738403928
5.009497869018190385759 859.51245243870312152 5.009497869018190385759 174.91879045509787716
6.009497869018190385759 889.59245016463432876 6.009497869018190385759 174.04103185890735972
7.009497869018204596614 914.71036311793181994 7.009497869018204596614 173.65298079036000445
8.009497869018190385759 936.23996810200492291 8.009497869018190385759 173.57134562992732185
9.009497869018204596614 955.06410043367679918 9.009497869018204596614 173.63521727146812168
10.009497869018190385759 971.74787201399340120 10.009497869018190385759 173.72470444382074106
11.009497869018190385759 986.72901584226121940 11.009497869018190385759 173.78745633389081604
12.009497869018190385759 1000.28284651084709367 12.009497869018190385759 173.97923913109349314
13.009497869018190385759 1012.64554136694255249 13.009497869018190385759 174.10676171418865010
14.009497869018204596614 1024.01904143856586415 14.009497869018204596614 174.21382923679874466
15.009497869018190385759 1034.51511587889626753 15.009497869018190385759 174.45071052917816701
16.009497869018190385759 1044.24928977467834557 16.009497869018190385759 174.60729292602167106
17.009497869018190385759 1053.34198252641431282 17.009497869018190385759 174.62625347856601365
18.009497869018190385759 1061.84457124413165729 18.009497869018190385759 174.83881281426340593
19.009497869018204596614 1069.80645448328687053 19.009497869018204596614 174.94830648228187897
20.009497869018190385759 1077.29677578410587557 20.009497869018190385759 175.06166955236270155
21.009497869018204596614 1084.39001992806515773 21.009497869018204596614 175.06036438771099029
22.009497869018190385759 1091.10422285585673308 22.009497869018190385759 175.10123066192477381
23.009497869018190385759 1097.46536670829141258 23.009497869018190385759 175.35649213403587510
24.009497869018190385759 1103.49219593298812470 24.009497869018190385759 175.41408547365514892
25.009497869018190385759 1109.22666952929967010 25.009497869018190385759 175.42826692080754469
26.009497869018204596614 1114.71371171554937973 26.009497869018204596614 175.50011419417418779
27.009497869018190385759 1119.95911839801033238 27.009497869018190385759 175.46610497965630771
28.009497869018190385759 1124.97321925907499462 28.009497869018190385759 175.53980792126847632
29.009497869018190385759 1129.77097765023745524 29.009497869018190385759 175.75779105348843245
30.009497869018190385759 1134.35942177327115132 30.009497869018190385759 175.81142210959663430
31.009497869018190385759 1138.76164287201027037 31.009497869018190385759 175.82438314135782775
32.009497869018190385759 1143.00170481178611226 32.009497869018190385759 175.82774527397853603
33.009497869018190385759 1147.09160990681857584 33.009497869018190385759 175.86258616677187661
34.009497869018190385759 1151.03274718377883801 34.009497869018190385759 175.83092831972786030
35.009497869018190385759 1154.82942609772157994 35.009497869018190385759 175.92120942245350079
36.009497869018190385759 1158.49036181769224640 36.009497869018190385759 176.04326570853012868
37.009497869018190385759 1162.02091156016308560 37.009497869018190385759 176.12667592424648433
38.009497869018190385759 1165.42553208725894365 38.009497869018190385759 176.14912783298893828
39.009497869018190385759 1168.71821210800317203 39.009497869018190385759 176.12926621462023036
40.009497869018190385759 1171.90988190861162366 40.009497869018190385759 176.11564171664412015
41.009497869018190385759 1175.00949591788071302 41.009497869018190385759 176.12996756643804019
42.009497869018190385759 1178.01554419163426246 42.009497869018190385759 176.08382625312924574
43.009497869018190385759 1180.93082231338939891 43.009497869018190385759 176.10543323076529987
44.009497869018218807469 1183.75727678805651522 44.009497869018218807469 176.20777246707064023
46.009497869018190385759 1189.16247252067728368 46.009497869018190385759 176.30579411596548312
48.009497869018190385759 1194.25367476260794319 48.009497869018190385759 176.37134099620755023
50.009497869018190385759 1199.07163262231392764 50.009497869018190385759 176.30280903486780630
52.009497869018190385759 1203.65659354617469035 52.009497869018190385759 176.30523315789429262
54.009497869018190385759 1208.01493091854126760 54.009497869018190385759 176.31566735929794731
56.009497869018190385759 1212.15741036914209872 56.009497869018190385759 176.42494415539960073
58.009497869018218807469 1216.10118394919231832 58.009497869018218807469 176.48971112579855003
60.009497869018190385759 1219.85726530823603753 60.009497869018190385759 176.57721787929014567
62.009497869018190385759 1223.44448806411674013 62.009497869018190385759 176.58446588843239056
64.009497869018190385759 1226.88185122593063170 64.009497869018190385759 176.55682525482589540
66.009497869018190385759 1230.17930403207537893 66.009497869018190385759 176.53149802341678765
68.009497869018190385759 1233.34122547034758099 68.009497869018190385759 176.56766053555520557
70.009497869018190385759 1236.37269388498089029 70.009497869018190385759 176.59519973295925865
72.009497869018218807469 1239.28333860208726946 72.009497869018218807469 176.64172847237594510
74.009497869018190385759 1242.07956407913525254 74.009497869018190385759 176.68311219374061238
76.009497869018190385759 1244.76772737420492376 76.009497869018190385759 176.68522530655263836
78.009497869018190385759 1247.35668128142833666 78.009497869018190385759 176.68132250699196106
80.009497869018190385759 1249.85443346087254213 80.009497869018190385759 176.65115921387916842
82.009497869018218807469 1252.26692537854978582 82.009497869018218807469 176.62180012565221432
84.009497869018190385759 1254.59616338725186324 84.009497869018190385759 176.60394293520235465
86.009497869018190385759 1256.84445948288771433 86.009497869018190385759 176.58349228896781824
88.009497869018190385759 1259.01568382063737772 88.009497869018190385759 176.56367075891358809
91.009497869018218807469 1262.13893717339465184 91.009497869018218807469 176.53773426069912489
94.009497869018190385759 1265.11239336785251908 94.009497869018190385759 176.53945458557484471
97.009497869018190385759 1267.94780725197051652 97.009497869018190385759 176.55792421854289387
99.504748934509109403734 1270.20942357735202677 99.504748934509109403734 176.60780620738131574
nan nan nan nan

