Time Pressure difference Time.1 Pressure.1 difference.1
(hr) (psi) (hr) (psi)
0.000200000000006639311 0.43194769281465856 0.000200000000006639311 0.34495022216034127
0.000399999999999067768 0.86237179969983435 0.000399999999999067768 0.89699481035305029
0.000600000000005707079 1.29153713416839988 0.000600000000005707079 1.30964465513511041
0.000799999999998135536 1.71956614485179160 0.000799999999998135536 1.72813265891610301
0.001007140329434719206 2.16176003120082427 0.001007140329434719206 2.16577059648614023
0.001267914553963578328 2.71692996590283320 0.001267914553963578328 2.71831839104298867
0.001596209851982166583 3.41357548482724882 0.001596209851982166583 3.40986528282797874
0.002009509145210586212 4.28720501945473931 0.002009509145210586212 4.27440863084202149
0.002529822128138903281 5.38197247043765170 0.002529822128138903281 5.35377869296459874
0.003184857364445292660 6.75264668318682215 0.003184857364445292660 6.69920717170591740
0.004009497869020606231 8.46696972953321847 0.004009497869020606231 8.37308478347917706
0.005047658755842121536 10.60843479567036596 0.005047658755842121536 10.45086270165765363
0.006354625877804664924 13.27951860645705651 0.006354625877804664924 13.02300624543638108
0.008000000000009777068 16.60535672368058968 0.008000000000009777068 16.19683031122458416
0.010071403294347192059 20.73781773702960152 0.010071403294347192059 20.09795350938783898
0.012679145539692626699 25.85984298851055030 0.012679145539692626699 24.87090690639266910
0.015962098519750611558 32.18979333518827701 0.015962098519750611558 30.67830682335894821
0.020095091452091651263 39.98539656060417258 0.020095091452091651263 37.69776475375635982
0.025298221281346400247 49.54665472217347144 0.025298221281346400247 46.11534823162569552
0.031848573644282396344 61.21675709675232468 0.031848573644282396344 56.11415259866991789
0.040094978690191851456 75.37969298777433380 0.040094978690191851456 67.85626192793552036
0.050476587558421215363 92.45281557220558000 0.050476587558421215363 81.45779419616673067
0.063546258777947173257 112.87290972754470886 0.063546258777947173257 96.95360090074237291
0.079999999999998294697 137.07243787216683018 0.079999999999998294697 114.25452160371987986
0.100714032943542974863 165.44585783108323085 0.100714032943542974863 133.10278240762008295
0.126791455396897845276 198.30527248640885318 0.126791455396897845276 153.02372725570751300
0.159620985197506115583 235.82449634678209804 0.159620985197506115583 173.30491289112714526
0.200950914520774404082 277.98510647091598003 0.200950914520774404082 193.00155338730442622
0.252982212813464002465 324.52313881678361440 0.252982212813464002465 211.00577223917539982
0.318485736442795541734 374.90723174670142726 0.318485736442795541734 226.17737389291602312
0.400949786901819038576 428.34581955735143310 0.400949786901819038576 237.53060292961205846
0.504765875584169521062 483.85150273034048496 0.504765875584169521062 244.44593079325647977
0.635462587779443310865 540.34580512795969298 0.635462587779443310865 246.82138730852392428
0.799999999999997157829 596.79292225662709370 0.799999999999997157829 245.11976199207393279
1.007140329435330272645 652.32548194231378602 1.007140329435330272645 240.27899779177172945
1.267914553968893187630 706.33591173011677711 1.267914553968893187630 233.50422402707695824
1.596209851975103788391 758.50520471065692618 1.596209851975103788391 226.00705117103046859
2.009509145207687197399 808.77319556350960283 2.009509145207687197399 218.80456801167312619
2.529822128134711078928 857.27394733869778065 2.529822128134711078928 212.59442264520544086
3.184857364427983839050 904.24820160988235784 3.184857364427983839050 207.72996955970089061
4.009497869018190385759 949.96726746476531389 4.009497869018190385759 204.27478994275489299
5.009497869018190385759 993.21438948472371067 5.009497869018190385759 202.12838008144643709
6.009497869018190385759 1027.97349796802200217 6.009497869018190385759 201.11408125918183032
7.009497869018204596614 1056.99864182516580513 7.009497869018204596614 200.66566669108269139
8.009497869018190385759 1081.87729647342803219 8.009497869018190385759 200.57133272791600120
9.009497869018204596614 1103.62962716780430128 9.009497869018204596614 200.64513995814095892
10.009497869018190385759 1122.90865210505899086 10.009497869018190385759 200.74854735730397692
11.009497869018190385759 1140.22019608439063632 11.009497869018190385759 200.82106065249607241
12.009497869018190385759 1155.88240041253447998 12.009497869018190385759 201.04267632926359965
13.009497869018190385759 1170.16818113513363642 13.009497869018190385759 201.19003575861799504
14.009497869018204596614 1183.31089232900922070 14.009497869018204596614 201.31375822918965923
15.009497869018190385759 1195.43968946005793441 15.009497869018190385759 201.58748772260591409
16.009497869018190385759 1206.68806818407256287 16.009497869018190385759 201.76842738118060083
17.009497869018190385759 1217.19517980830073611 17.009497869018190385759 201.79033735300961894
18.009497869018190385759 1227.02039343766341517 18.009497869018190385759 202.03596147425994900
19.009497869018204596614 1236.22079184735366653 19.009497869018204596614 202.16248749063680634
20.009497869018190385759 1244.87627423941125926 20.009497869018190385759 202.29348481606356813
21.009497869018204596614 1253.07291191687522769 21.009497869018204596614 202.29197662579937855
22.009497869018190385759 1260.83154641121200257 22.009497869018190385759 202.33919987600194190
23.009497869018190385759 1268.18220152958110702 23.009497869018190385759 202.63416868821923345
24.009497869018190385759 1275.14653752256390362 24.009497869018190385759 202.70072099177929204
25.009497869018190385759 1281.77304034496842178 25.009497869018190385759 202.71710844182209144
26.009497869018204596614 1288.11362242685686397 26.009497869018204596614 202.80013195771238088
27.009497869018190385759 1294.17498125992301539 27.009497869018190385759 202.76083242093616832
28.009497869018190385759 1299.96905336604208969 28.009497869018190385759 202.84600026457690092
29.009497869018190385759 1305.51312972916321087 29.009497869018190385759 203.09789188403104276
30.009497869018190385759 1310.81533182689099704 30.009497869018190385759 203.15986554886723070
31.009497869018190385759 1315.90234287432303972 31.009497869018190385759 203.17484274112456433
32.009497869018190385759 1320.80197000473049229 32.009497869018190385759 203.17872787215299013
33.009497869018190385759 1325.52808255899026335 33.009497869018190385759 203.21898845938085287
34.009497869018190385759 1330.08228563458919780 34.009497869018190385759 203.18240605835222823
35.009497869018190385759 1334.46955904625610856 35.009497869018190385759 203.28673088816850623
36.009497869018190385759 1338.69997365599965633 36.009497869018190385759 203.42777370763482736
37.009497869018190385759 1342.77972002507749494 37.009497869018190385759 203.52415884579596650
38.009497869018190385759 1346.71394818972157736 38.009497869018190385759 203.55010327367611467
39.009497869018190385759 1350.51882288035949387 39.009497869018190385759 203.52715207022782806
40.009497869018190385759 1354.20697464995123482 40.009497869018190385759 203.51140820589986902
41.009497869018190385759 1357.78875083843990978 41.009497869018190385759 203.52796252121729026
42.009497869018190385759 1361.26240662144414273 42.009497869018190385759 203.47464367028268839
43.009497869018190385759 1364.63117245102762354 43.009497869018190385759 203.49961173332877706
44.009497869018218807469 1367.89729762175397809 44.009497869018218807469 203.61787040639273982
46.009497869018190385759 1374.14330157944937127 46.009497869018190385759 203.73113986733790171
48.009497869018190385759 1380.02646861456901206 48.009497869018190385759 203.80688292895095515
50.009497869018190385759 1385.59388658578495779 50.009497869018190385759 203.72769044029166707
52.009497869018190385759 1390.89206365335735427 52.009497869018190385759 203.73049164912225706
54.009497869018190385759 1395.92836461698107087 54.009497869018190385759 203.74254894852205666
56.009497869018190385759 1400.71522975989751103 56.009497869018190385759 203.86882435735063268
58.009497869018218807469 1405.27247923017785070 58.009497869018218807469 203.94366618981166539
60.009497869018190385759 1409.61283991173945651 60.009497869018190385759 204.04478510495749788
62.009497869018190385759 1413.75807509631249559 62.009497869018190385759 204.05316058218855346
64.009497869018190385759 1417.73013919440859354 64.009497869018190385759 204.02122029446547913
66.009497869018190385759 1421.54052910373138729 66.009497869018190385759 203.99195327150385992
68.009497869018190385759 1425.19430498795691165 68.009497869018190385759 204.03374106330821292
70.009497869018190385759 1428.69733515597795304 70.009497869018190385759 204.06556413586403664
72.009497869018218807469 1432.06074682907842544 72.009497869018218807469 204.11933067918999996
74.009497869018190385759 1435.29194071366759999 74.009497869018190385759 204.16715186832246332
76.009497869018190385759 1438.39826274352549262 76.009497869018190385759 204.16959368757193261
78.009497869018190385759 1441.38994281409509313 78.009497869018190385759 204.16508378585740502
80.009497869018190385759 1444.27623422145256882 80.009497869018190385759 204.13022842492705422
82.009497869018218807469 1447.06400265965748986 82.009497869018218807469 204.09630236742034981
84.009497869018190385759 1449.75556658082450667 84.009497869018190385759 204.07566739178935222
86.009497869018190385759 1452.35359762467032851 86.009497869018190385759 204.05203553391837090
88.009497869018190385759 1454.86256797051441936 88.009497869018190385759 204.02913065474459131
91.009497869018218807469 1458.47166073370044614 91.009497869018218807469 203.99915959014120403
94.009497869018190385759 1461.90765455840733011 94.009497869018190385759 204.00114752110872018
97.009497869018190385759 1465.18413282449932922 97.009497869018190385759 204.02249020809401259
99.504748934509109403734 1467.79755613382894808 99.504748934509109403734 204.08013161741843078
nan nan nan nan

