Time Pressure difference Time.1 Pressure.1 difference.1
(hr) (psi) (hr) (psi)
0.000200000000006639311 0.46517443841578610 0.000200000000006639311 0.37148485463421366
0.000399999999999067768 0.92870809198443693 0.000399999999999067768 0.96599441114943874
0.000600000000005707079 1.39088614448904613 0.000600000000005707079 1.41038655168396532
0.000799999999998135536 1.85184046368654487 0.000799999999998135536 1.86106594037118778
0.001007140329434719206 2.32804926437011828 0.001007140329434719206 2.33236833467738158
0.001267914553963578328 2.92592457866458977 0.001267914553963578328 2.92741980573860339
0.001596209851982166583 3.67615821442934498 0.001596209851982166583 3.67216261227628493
0.002009509145210586212 4.61699002095125888 0.002009509145210586212 4.60320929475294527
0.002529822128138903281 5.79597035277900918 0.002529822128138903281 5.76560782319264487
0.003184857364445292660 7.27208104343196116 0.003184857364445292660 7.21453080029868143
0.004009497869020606231 9.11827509334346686 0.004009497869020606231 9.01716822836218945
0.005047658755842121536 11.42446824149116225 0.005047658755842121536 11.25477521716978124
0.006354625877804664924 14.30102003772298325 0.006354625877804664924 14.02477595662379528
0.008000000000009777068 17.88269185627140345 0.008000000000009777068 17.44274033516493816
0.010071403294347192059 22.33303448603187746 0.010071403294347192059 21.64394993318690652
0.012679145539692626699 27.84906167993443660 0.012679145539692626699 26.78405359149979859
0.015962098519750611558 34.66593128404891644 0.015962098519750611558 33.03817657900194149
0.020095091452091651263 43.06119629603526278 0.020095091452091651263 40.59759281173762702
0.025298221281346400247 53.35793585464835331 0.025298221281346400247 49.66268271098152098
0.031848573644282396344 65.92573841188711015 0.031848573644282396344 60.43062587549067644
0.040094978690191851456 81.17813090991081992 0.040094978690191851456 73.07597438393054290
0.050476587558421215363 99.56457061622138838 0.050476587558421215363 87.72377836510263194
0.063546258777947173257 121.55544124504812942 0.063546258777947173257 104.41157020079947415
0.079999999999998294697 147.61647155464120829 0.079999999999998294697 123.04333095785219143
0.100714032943542974863 178.17246227962806415 0.100714032943542974863 143.34145797743701678
0.126791455396897845276 213.55952421613261549 0.126791455396897845276 164.79478319845424039
0.159620985197506115583 253.96484221961151206 0.159620985197506115583 186.63606003659847943
0.200950914520774404082 299.36857619944794351 0.200950914520774404082 207.84782672478937116
0.252982212813464002465 349.48645718730540466 0.252982212813464002465 227.23698548834272515
0.318485736442795541734 403.74624957337078968 0.318485736442795541734 243.57563342314031729
0.400949786901819038576 461.29549798484003986 0.400949786901819038576 255.80218777035145195
0.504765875584169521062 521.07084909421280372 0.504765875584169521062 263.24946393119932964
0.635462587779443310865 581.91086706087958191 0.635462587779443310865 265.80764787071808541
0.799999999999997157829 642.70007012252153800 0.799999999999997157829 263.97512829915655175
1.007140329435330272645 702.50436516864567693 1.007140329435330272645 258.76199762190799447
1.267914553968893187630 760.66944340166423899 1.267914553968893187630 251.46608741377519891
1.596209851975103788391 816.85175891916901492 1.596209851975103788391 243.39220895341739492
2.009509145207687197399 870.98651829916423139 2.009509145207687197399 235.63568862795568748
2.529822128134711078928 923.21809713398238273 2.529822128134711078928 228.94783977175970335
3.184857364427983839050 973.80575557987322100 3.184857364427983839050 223.70919798737017459
4.009497869018190385759 1023.04167265436262824 4.009497869018190385759 219.98823532296680128
5.009497869018190385759 1069.61549636816380371 5.009497869018190385759 217.67671701078845103
6.009497869018190385759 1107.04838242710070517 6.009497869018190385759 216.58439520219582164
7.009497869018204596614 1138.30622965787074463 7.009497869018204596614 216.10148720578138182
8.009497869018190385759 1165.09862697138419207 8.009497869018190385759 215.99989678390954850
9.009497869018204596614 1188.52421387302001676 9.009497869018204596614 216.07938149338255585
10.009497869018190385759 1209.28624072852494464 10.009497869018190385759 216.19074330786580163
11.009497869018190385759 1227.92944193703601741 11.009497869018190385759 216.26883454884193725
12.009497869018190385759 1244.79643121349886314 12.009497869018190385759 216.50749758536079526
13.009497869018190385759 1260.18111814552844407 13.009497869018190385759 216.66619235543478794
14.009497869018204596614 1274.33480712354867137 14.009497869018204596614 216.79943193912731658
15.009497869018190385759 1287.39658864929310766 15.009497869018190385759 217.09421754742172084
16.009497869018190385759 1299.51022727515510269 16.009497869018190385759 217.28907564127140972
17.009497869018190385759 1310.82557825509343274 17.009497869018190385759 217.31267099554881383
18.009497869018190385759 1321.40657754825292614 18.009497869018190385759 217.57718927997225933
19.009497869018204596614 1331.31469891253482274 19.009497869018204596614 217.71344806683964634
20.009497869018190385759 1340.63598764244284212 20.009497869018190385759 217.85452210960690422
21.009497869018204596614 1349.46313591048078706 21.009497869018204596614 217.85289790470702087
22.009497869018190385759 1357.81858844284397492 22.009497869018190385759 217.90375371261751525
23.009497869018190385759 1365.73467857031823769 23.009497869018190385759 218.22141243346686679
24.009497869018190385759 1373.23473271660759565 24.009497869018190385759 218.29308414499308810
25.009497869018190385759 1380.37096652535069552 25.009497869018190385759 218.31073216811608972
26.009497869018204596614 1387.19928569046146549 26.009497869018204596614 218.40014210830563002
27.009497869018190385759 1393.72690289530169139 27.009497869018190385759 218.35781953023897017
28.009497869018190385759 1399.96667285573789741 28.009497869018190385759 218.44953874646745362
29.009497869018190385759 1405.93721663140649980 29.009497869018190385759 218.72080664434110986
30.009497869018190385759 1411.64728042895967519 30.009497869018190385759 218.78754751416471436
31.009497869018190385759 1417.12560001850170011 31.009497869018190385759 218.80367679813417681
32.009497869018190385759 1422.40212154355617713 32.009497869018190385759 218.80786078539551909
33.009497869018190385759 1427.49178121737395486 33.009497869018190385759 218.85121834087166803
34.009497869018190385759 1432.39630760648060459 34.009497869018190385759 218.81182190899468765
35.009497869018190385759 1437.12106358827577424 35.009497869018190385759 218.92417172571992978
36.009497869018190385759 1441.67689470646132577 36.009497869018190385759 219.07606399283750420
37.009497869018190385759 1446.07046771931436524 37.009497869018190385759 219.17986337239562999
38.009497869018190385759 1450.30732881970016024 38.009497869018190385759 219.20780352549738268
39.009497869018190385759 1454.40488617884852829 39.009497869018190385759 219.18308684486072480
40.009497869018190385759 1458.37674193071666195 40.009497869018190385759 219.16613191404601935
41.009497869018190385759 1462.23403936447380147 41.009497869018190385759 219.18395963823400052
42.009497869018190385759 1465.97489943847813265 42.009497869018190385759 219.12653933722751276
43.009497869018190385759 1469.60280110110670648 43.009497869018190385759 219.15342802050793125
44.009497869018218807469 1473.12016666958106725 44.009497869018218807469 219.28078351457679673
46.009497869018190385759 1479.84663247017601861 46.009497869018190385759 219.40276601097929188
48.009497869018190385759 1486.18235081568968781 48.009497869018190385759 219.48433546194715404
50.009497869018190385759 1492.17803170776846855 50.009497869018190385759 219.39905124339105669
52.009497869018190385759 1497.88376085746176614 52.009497869018190385759 219.40206792982399975
54.009497869018190385759 1503.30746958751797138 54.009497869018190385759 219.41505271379298847
56.009497869018190385759 1508.46255512604352589 56.009497869018190385759 219.55104161560839771
58.009497869018218807469 1513.37036224788380423 58.009497869018218807469 219.63164051210486605
60.009497869018190385759 1518.04459682802712450 60.009497869018190385759 219.74053780533887448
62.009497869018190385759 1522.50869625756718051 62.009497869018190385759 219.74955755004918956
64.009497869018190385759 1526.78630374782483159 64.009497869018190385759 219.71516031711666983
66.009497869018190385759 1530.88980057324920381 66.009497869018190385759 219.68364198469646453
68.009497869018190385759 1534.82463614087691894 68.009497869018190385759 219.72864422202425772
70.009497869018190385759 1538.59713016797627461 70.009497869018190385759 219.76291522323819549
72.009497869018218807469 1542.21926581593083938 72.009497869018218807469 219.82081765451232513
74.009497869018190385759 1545.69901307625741538 74.009497869018190385759 219.87231739665497798
76.009497869018190385759 1549.04428295456614251 76.009497869018190385759 219.87494704815438240
78.009497869018190385759 1552.26609226133336961 78.009497869018190385759 219.87009023092335269
80.009497869018190385759 1555.37440608464112302 80.009497869018190385759 219.83255368838297272
82.009497869018218807469 1558.37661824886185968 82.009497869018218807469 219.79601793414499866
84.009497869018190385759 1561.27522554858023796 84.009497869018190385759 219.77379565269623640
86.009497869018190385759 1564.07310513426045873 86.009497869018190385759 219.74834595960442130
88.009497869018190385759 1566.77507319901519622 88.009497869018190385759 219.72367916664805421
91.009497869018218807469 1570.66178848244658184 91.009497869018218807469 219.69140263553669001
94.009497869018190385759 1574.36208952443848830 94.009497869018190385759 219.69354348427091850
97.009497869018190385759 1577.89060458023004685 97.009497869018190385759 219.71652791640892133
99.504748934509109403734 1580.70506045181582522 99.504748934509109403734 219.77860328029674974
nan nan nan nan

