Time Pressure difference Time.1 Pressure.1 difference.1
(hr) (psi) (hr) (psi)
0.000200000000006639311 0.05814680480197326 0.000200000000006639311 0.04643560682927671
0.000399999999999067768 0.11608851149805462 0.000399999999999067768 0.12074930139367984
0.000600000000005707079 0.17386076806113077 0.000600000000005707079 0.17629831896049566
0.000799999999998135536 0.23148005796081811 0.000799999999998135536 0.23263324254639847
0.001007140329434719206 0.29100615804626478 0.001007140329434719206 0.29154604183467270
0.001267914553963578328 0.36574057233307372 0.001267914553963578328 0.36592747571732542
0.001596209851982166583 0.45951977680366812 0.001596209851982166583 0.45902032653453562
0.002009509145210586212 0.57712375261890736 0.002009509145210586212 0.57540116184411816
0.002529822128138903281 0.72449629409737615 0.002529822128138903281 0.72070097789908061
0.003184857364445292660 0.90901013042899514 0.003184857364445292660 0.90181635003733518
0.004009497869020606231 1.13978438666793336 0.004009497869020606231 1.12714602854527368
0.005047658755842121536 1.42805853018639528 0.005047658755842121536 1.40684690214622266
0.006354625877804664924 1.78762750471537291 0.006354625877804664924 1.75309699457797441
0.008000000000009777068 2.23533648203392543 0.008000000000009777068 2.18034254189561727
0.010071403294347192059 2.79162931075398468 0.010071403294347192059 2.70549374164836332
0.012679145539692626699 3.48113270999180457 0.012679145539692626699 3.34800669893747482
0.015962098519750611558 4.33324141050611455 0.015962098519750611558 4.12977207237524269
0.020095091452091651263 5.38264953700440785 0.020095091452091651263 5.07469910146720338
0.025298221281346400247 6.66974198183104416 0.025298221281346400247 6.20783533887269012
0.031848573644282396344 8.24071730148588877 0.031848573644282396344 7.55382823443633455
0.040094978690191851456 10.14726636373885249 0.040094978690191851456 9.13449679799131786
0.050476587558421215363 12.44557132702767355 0.050476587558421215363 10.96547229563782899
0.063546258777947173257 15.19443015563101618 0.063546258777947173257 13.05144627509993427
0.079999999999998294697 18.45205894433015104 0.079999999999998294697 15.38041636973152393
0.100714032943542974863 22.27155778495350802 0.100714032943542974863 17.91768224717962710
0.126791455396897845276 26.69494052701657694 0.126791455396897845276 20.59934789980678005
0.159620985197506115583 31.74560527745143901 0.159620985197506115583 23.32950750457480993
0.200950914520774404082 37.42107202493099294 0.200950914520774404082 25.98097834059867139
0.252982212813464002465 43.68580714841317558 0.252982212813464002465 28.40462318604284064
0.318485736442795541734 50.46828119667134871 0.318485736442795541734 30.44695417789253966
0.400949786901819038576 57.66193724810500498 0.400949786901819038576 31.97527347129393149
0.504765875584169521062 65.13385613677660047 0.504765875584169521062 32.90618299139991620
0.635462587779443310865 72.73885838260994774 0.635462587779443310865 33.22595598383976068
0.799999999999997157829 80.33750876531519225 0.799999999999997157829 32.99689103739456897
1.007140329435330272645 87.81304564608070962 1.007140329435330272645 32.34524970273849931
1.267914553968893187630 95.08368042520802987 1.267914553968893187630 31.43326092672189986
1.596209851975103788391 102.10646986489612686 1.596209851975103788391 30.42402611917717437
2.009509145207687197399 108.87331478739552892 2.009509145207687197399 29.45446107849446093
2.529822128134711078928 115.40226214174779784 2.529822128134711078928 28.61847997146996292
3.184857364427983839050 121.72571944748415262 3.184857364427983839050 27.96364974842127182
4.009497869018190385759 127.88020908179532853 4.009497869018190385759 27.49852941537085016
5.009497869018190385759 133.70193704602047546 5.009497869018190385759 27.20958962634855638
6.009497869018190385759 138.38104780338758815 6.009497869018190385759 27.07304940027447770
7.009497869018204596614 142.28827870723384308 7.009497869018204596614 27.01268590072267273
8.009497869018190385759 145.63732837142302401 8.009497869018190385759 26.99998709798869356
9.009497869018204596614 148.56552673412750210 9.009497869018204596614 27.00992268667281948
10.009497869018190385759 151.16078009106561808 10.009497869018190385759 27.02384291348322520
11.009497869018190385759 153.49118024212950218 11.009497869018190385759 27.03360431860524216
12.009497869018190385759 155.59955390168735789 12.009497869018190385759 27.06343719817009941
13.009497869018190385759 157.52263976819105551 13.009497869018190385759 27.08327404442934849
14.009497869018204596614 159.29185089044358392 14.009497869018204596614 27.09992899239091457
15.009497869018190385759 160.92457358116163846 15.009497869018190385759 27.13677719342771510
16.009497869018190385759 162.43877840939438784 16.009497869018190385759 27.16113445515892622
17.009497869018190385759 163.85319728188667909 17.009497869018190385759 27.16408387444360173
18.009497869018190385759 165.17582219353161577 18.009497869018190385759 27.19714865999653242
19.009497869018204596614 166.41433736406685284 19.009497869018204596614 27.21418100835495579
20.009497869018190385759 167.57949845530535526 20.009497869018190385759 27.23181526370086303
21.009497869018204596614 168.68289198881009838 21.009497869018204596614 27.23161223808837761
22.009497869018190385759 169.72732355535549686 22.009497869018190385759 27.23796921407718941
23.009497869018190385759 170.71683482128977971 23.009497869018190385759 27.27767655418335835
24.009497869018190385759 171.65434158957594946 24.009497869018190385759 27.28663551812413601
25.009497869018190385759 172.54637081566883694 25.009497869018190385759 27.28884152101451122
26.009497869018204596614 173.39991071130768319 26.009497869018204596614 27.30001776353820375
27.009497869018190385759 174.21586286191271142 27.009497869018190385759 27.29472744127987127
28.009497869018190385759 174.99583410696723718 28.009497869018190385759 27.30619234330843170
29.009497869018190385759 175.74215207892581248 29.009497869018190385759 27.34010083054263873
30.009497869018190385759 176.45591005361995940 30.009497869018190385759 27.34844343927058929
31.009497869018190385759 177.14070000231271251 31.009497869018190385759 27.35045959976677210
32.009497869018190385759 177.80026519294452214 32.009497869018190385759 27.35098259817443989
33.009497869018190385759 178.43647265217174436 33.009497869018190385759 27.35640229260895850
34.009497869018190385759 179.04953845081007557 34.009497869018190385759 27.35147773862433596
35.009497869018190385759 179.64013294853447178 35.009497869018190385759 27.36552146571499122
36.009497869018190385759 180.20961183830766572 36.009497869018190385759 27.38450799910468803
37.009497869018190385759 180.75880846491429566 37.009497869018190385759 27.39748292154945375
38.009497869018190385759 181.28841610246252003 38.009497869018190385759 27.40097544068717283
39.009497869018190385759 181.80061077235606604 39.009497869018190385759 27.39788585560759060
40.009497869018190385759 182.29709274133958274 40.009497869018190385759 27.39576648925575242
41.009497869018190385759 182.77925492055922518 41.009497869018190385759 27.39799495477925007
42.009497869018190385759 183.24686242980976658 42.009497869018190385759 27.39081741715343910
43.009497869018190385759 183.70035013763833831 43.009497869018190385759 27.39417850256349141
44.009497869018218807469 184.14002083369763341 44.009497869018218807469 27.41009793932209959
46.009497869018190385759 184.98082905877200233 46.009497869018190385759 27.42534575137241148
48.009497869018190385759 185.77279385196121098 48.009497869018190385759 27.43554193274339426
50.009497869018190385759 186.52225396347105857 50.009497869018190385759 27.42488140542388209
52.009497869018190385759 187.23547010718272077 52.009497869018190385759 27.42525849122799997
54.009497869018190385759 187.91343369843974642 54.009497869018190385759 27.42688158922412356
56.009497869018190385759 188.55781939075544074 56.009497869018190385759 27.44388020195104971
58.009497869018218807469 189.17129528098547553 58.009497869018218807469 27.45395506401310826
60.009497869018190385759 189.75557460350339056 60.009497869018190385759 27.46756722566735931
62.009497869018190385759 190.31358703219589756 62.009497869018190385759 27.46869469375614869
64.009497869018190385759 190.84828796847810395 64.009497869018190385759 27.46439503963958373
66.009497869018190385759 191.36122507165615048 66.009497869018190385759 27.46045524808705807
68.009497869018190385759 191.85307951760961487 68.009497869018190385759 27.46608052775303221
70.009497869018190385759 192.32464127099703433 70.009497869018190385759 27.47036440290477444
72.009497869018218807469 192.77740822699135492 72.009497869018218807469 27.47760220681404064
74.009497869018190385759 193.21237663453217692 74.009497869018190385759 27.48403967458187225
76.009497869018190385759 193.63053536932076781 76.009497869018190385759 27.48436838101929780
78.009497869018190385759 194.03326153266667120 78.009497869018190385759 27.48376127886541909
80.009497869018190385759 194.42180076058014038 80.009497869018190385759 27.47906921104787159
82.009497869018218807469 194.79707728110773246 82.009497869018218807469 27.47450224176812483
84.009497869018190385759 195.15940319357252974 84.009497869018190385759 27.47172445658702955
86.009497869018190385759 195.50913814178255734 86.009497869018190385759 27.46854324495055266
88.009497869018190385759 195.84688414987689953 88.009497869018190385759 27.46545989583100678
91.009497869018218807469 196.33272356030582273 91.009497869018218807469 27.46142532944208625
94.009497869018190385759 196.79526119055481104 94.009497869018190385759 27.46169293553386481
97.009497869018190385759 197.23632557252875586 97.009497869018190385759 27.46456598955111517
99.504748934509109403734 197.58813255647697815 99.504748934509109403734 27.47232541003709372
nan nan nan nan

