Time Pressure difference Time.1 Pressure.1 difference.1
(hr) (psi) (hr) (psi)
0.000200000000006639311 0.58146804801973262 0.000200000000006639311 0.46435606829276715
0.000399999999999067768 1.16088511498054614 0.000399999999999067768 1.20749301393679831
0.000600000000005707079 1.73860768061130755 0.000600000000005707079 1.76298318960495637
0.000799999999998135536 2.31480057960818097 0.000799999999998135536 2.32633242546398433
0.001007140329434719206 2.91006158046264840 0.001007140329434719206 2.91546041834672742
0.001267914553963578328 3.65740572333073732 0.001267914553963578328 3.65927475717325423
0.001596209851982166583 4.59519776803668112 0.001596209851982166583 4.59020326534535617
0.002009509145210586212 5.77123752618907293 0.002009509145210586212 5.75401161844118203
0.002529822128138903281 7.24496294097376126 0.002529822128138903281 7.20700977899080630
0.003184857364445292660 9.09010130428995211 0.003184857364445292660 9.01816350037335113
0.004009497869020606231 11.39784386667933269 0.004009497869020606231 11.27146028545273815
0.005047658755842121536 14.28058530186395281 0.005047658755842121536 14.06846902146222611
0.006354625877804664924 17.87627504715372950 0.006354625877804664924 17.53096994577974499
0.008000000000009777068 22.35336482033925520 0.008000000000009777068 21.80342541895617003
0.010071403294347192059 27.91629310753984683 0.010071403294347192059 27.05493741648363226
0.012679145539692626699 34.81132709991804575 0.012679145539692626699 33.48006698937474823
0.015962098519750611558 43.33241410506114732 0.015962098519750611558 41.29772072375242686
0.020095091452091651263 53.82649537004407847 0.020095091452091651263 50.74699101467202667
0.025298221281346400247 66.69741981831045052 0.025298221281346400247 62.07835338872689590
0.031848573644282396344 82.40717301485889834 0.031848573644282396344 75.53828234436335265
0.040094978690191851456 101.47266363738852135 0.040094978690191851456 91.34496797991319283
0.050476587558421215363 124.45571327027673192 0.050476587558421215363 109.65472295637830769
0.063546258777947173257 151.94430155631016532 0.063546258777947173257 130.51446275099937111
0.079999999999998294697 184.52058944330150325 0.079999999999998294697 153.80416369731523218
0.100714032943542974863 222.71557784953509440 0.100714032943542974863 179.17682247179629940
0.126791455396897845276 266.94940527016575516 0.126791455396897845276 205.99347899806778628
0.159620985197506115583 317.45605277451437587 0.159620985197506115583 233.29507504574809218
0.200950914520774404082 374.21072024930992939 0.200950914520774404082 259.80978340598670684
0.252982212813464002465 436.85807148413169898 0.252982212813464002465 284.04623186042840643
0.318485736442795541734 504.68281196671347288 0.318485736442795541734 304.46954177892541793
0.400949786901819038576 576.61937248105004983 0.400949786901819038576 319.75273471293934335
0.504765875584169521062 651.33856136776603307 0.504765875584169521062 329.06182991399913362
0.635462587779443310865 727.38858382609953424 0.635462587779443310865 332.25955983839759256
0.799999999999997157829 803.37508765315180881 0.799999999999997157829 329.96891037394567547
1.007140329435330272645 878.13045646080706774 1.007140329435330272645 323.45249702738499309
1.267914553968893187630 950.83680425208024189 1.267914553968893187630 314.33260926721897022
1.596209851975103788391 1021.06469864896132549 1.596209851975103788391 304.24026119177182181
2.009509145207687197399 1088.73314787395520398 2.009509145207687197399 294.54461078494466619
2.529822128134711078928 1154.02262141747792157 2.529822128134711078928 286.18479971469957945
3.184857364427983839050 1217.25719447484152624 3.184857364427983839050 279.63649748421272534
4.009497869018190385759 1278.80209081795328530 4.009497869018190385759 274.98529415370853712
5.009497869018190385759 1337.01937046020475464 5.009497869018190385759 272.09589626348559932
6.009497869018190385759 1383.81047803387559725 6.009497869018190385759 270.73049400274476284
7.009497869018204596614 1422.88278707233871501 7.009497869018204596614 270.12685900722669885
8.009497869018190385759 1456.37328371422995588 8.009497869018190385759 269.99987097988690721
9.009497869018204596614 1485.65526734127502095 9.009497869018204596614 270.09922686672820191
10.009497869018190385759 1511.60780091065635133 10.009497869018190385759 270.23842913483224493
11.009497869018190385759 1534.91180242129507860 11.009497869018190385759 270.33604318605239314
12.009497869018190385759 1555.99553901687340840 12.009497869018190385759 270.63437198170095144
13.009497869018190385759 1575.22639768191038456 13.009497869018190385759 270.83274044429344940
14.009497869018204596614 1592.91850890443561184 14.009497869018204596614 270.99928992390914573
15.009497869018190385759 1609.24573581161644142 15.009497869018190385759 271.36777193427718657
16.009497869018190385759 1624.38778409394399205 16.009497869018190385759 271.61134455158924084
17.009497869018190385759 1638.53197281886650671 17.009497869018190385759 271.64083874443605282
18.009497869018190385759 1651.75822193531621451 18.009497869018190385759 271.97148659996531705
19.009497869018204596614 1664.14337364066841474 19.009497869018204596614 272.14181008354955793
20.009497869018190385759 1675.79498455305360949 20.009497869018190385759 272.31815263700860896
21.009497869018204596614 1686.82891988810115436 21.009497869018204596614 272.31612238088376898
22.009497869018190385759 1697.27323555355474127 22.009497869018190385759 272.37969214077185143
23.009497869018190385759 1707.16834821289785395 23.009497869018190385759 272.77676554183358348
24.009497869018190385759 1716.54341589575938087 24.009497869018190385759 272.86635518124137434
25.009497869018190385759 1725.46370815668842624 25.009497869018190385759 272.88841521014506952
26.009497869018204596614 1733.99910711307688871 26.009497869018204596614 273.00017763538204463
27.009497869018190385759 1742.15862861912705739 27.009497869018190385759 272.94727441279871982
28.009497869018190385759 1749.95834106967208754 28.009497869018190385759 273.06192343308430281
29.009497869018190385759 1757.42152078925823844 29.009497869018190385759 273.40100830542638732
30.009497869018190385759 1764.55910053619936662 30.009497869018190385759 273.48443439270590716
31.009497869018190385759 1771.40700002312723882 31.009497869018190385759 273.50459599766770680
32.009497869018190385759 1778.00265192944516457 32.009497869018190385759 273.50982598174442728
33.009497869018190385759 1784.36472652171755726 33.009497869018190385759 273.56402292608959215
34.009497869018190385759 1790.49538450810064205 34.009497869018190385759 273.51477738624339509
35.009497869018190385759 1796.40132948534460411 35.009497869018190385759 273.65521465714994065
36.009497869018190385759 1802.09611838307682774 36.009497869018190385759 273.84507999104687315
37.009497869018190385759 1807.58808464914295655 37.009497869018190385759 273.97482921549453749
38.009497869018190385759 1812.88416102462520030 38.009497869018190385759 274.00975440687170703
39.009497869018190385759 1818.00610772356048983 39.009497869018190385759 273.97885855607592021
40.009497869018190385759 1822.97092741339588429 40.009497869018190385759 273.95766489255748866
41.009497869018190385759 1827.79254920559242237 41.009497869018190385759 273.97994954779250065
42.009497869018190385759 1832.46862429809789319 42.009497869018190385759 273.90817417153436963
43.009497869018190385759 1837.00350137638361048 43.009497869018190385759 273.94178502563488564
44.009497869018218807469 1841.40020833697667513 44.009497869018218807469 274.10097939322099592
46.009497869018190385759 1849.80829058772019380 46.009497869018190385759 274.25345751372412906
48.009497869018190385759 1857.72793851961205291 48.009497869018190385759 274.35541932743393545
50.009497869018190385759 1865.22253963471052884 50.009497869018190385759 274.24881405423877823
52.009497869018190385759 1872.35470107182732136 52.009497869018190385759 274.25258491227998547
54.009497869018190385759 1879.13433698439757791 54.009497869018190385759 274.26881589224126401
56.009497869018190385759 1885.57819390755435052 56.009497869018190385759 274.43880201951049003
58.009497869018218807469 1891.71295280985486897 58.009497869018218807469 274.53955064013109677
60.009497869018190385759 1897.55574603503373510 60.009497869018190385759 274.67567225667357889
62.009497869018190385759 1903.13587032195937354 62.009497869018190385759 274.68694693756145853
64.009497869018190385759 1908.48287968478098264 64.009497869018190385759 274.64395039639583729
66.009497869018190385759 1913.61225071656167529 66.009497869018190385759 274.60455248087060909
68.009497869018190385759 1918.53079517609580762 68.009497869018190385759 274.66080527753030083
70.009497869018190385759 1923.24641270997040010 70.009497869018190385759 274.70364402904772305
72.009497869018218807469 1927.77408226991337870 72.009497869018218807469 274.77602206814037800
74.009497869018190385759 1932.12376634532165554 74.009497869018190385759 274.84039674581867985
76.009497869018190385759 1936.30535369320750760 76.009497869018190385759 274.84368381019299932
78.009497869018190385759 1940.33261532666665516 78.009497869018190385759 274.83761278865415534
80.009497869018190385759 1944.21800760580140377 80.009497869018190385759 274.79069211047874433
82.009497869018218807469 1947.97077281107749513 82.009497869018218807469 274.74502241768124122
84.009497869018190385759 1951.59403193572552482 84.009497869018190385759 274.71724456587031682
86.009497869018190385759 1955.09138141782545972 86.009497869018190385759 274.68543244950552662
88.009497869018190385759 1958.46884149876950687 88.009497869018190385759 274.65459895831003223
91.009497869018218807469 1963.32723560305839783 91.009497869018218807469 274.61425329442084831
94.009497869018190385759 1967.95261190554856512 94.009497869018190385759 274.61692935533869786
97.009497869018190385759 1972.36325572528744487 97.009497869018190385759 274.64565989551118719
99.504748934509109403734 1975.88132556476966784 99.504748934509109403734 274.72325410037097981
nan nan nan nan

