Time Pressure difference Time.1 Pressure.1 difference.1
(hr) (psi) (hr) (psi)
0.000200000000006639311 0.64792153922198792 0.000200000000006639311 0.51742533324051188
0.000399999999999067768 1.29355769954975131 0.000399999999999067768 1.34549221552957543
0.000600000000005707079 1.93730570125259982 0.000600000000005707079 1.96446698270266573
0.000799999999998135536 2.57934921727768751 0.000799999999998135536 2.59219898837415430
0.001007140329434719206 3.24264004680123685 0.001007140329434719206 3.24865589472921057
0.001267914553963578328 4.07539494885425047 0.001267914553963578328 4.07747758656448323
0.001596209851982166583 5.12036322724087345 0.001596209851982166583 5.11479792424196855
0.002009509145210586212 6.43080752918210941 0.002009509145210586212 6.41161294626303135
0.002529822128138903281 8.07295870565647711 0.002529822128138903281 8.03066803944689767
0.003184857364445292660 10.12897002478023190 0.003184857364445292660 10.04881075755887743
0.004009497869020606231 12.70045459429982770 0.004009497869020606231 12.55962717521876471
0.005047658755842121536 15.91265219350554894 0.005047658755842121536 15.67629405248647956
0.006354625877804664924 19.91927790968558654 0.006354625877804664924 19.53450936815457339
0.008000000000009777068 24.90803508552088275 0.008000000000009777068 24.29524546683687802
0.010071403294347192059 31.10672660554440228 0.010071403294347192059 30.14693026408176024
0.012679145539692626699 38.78976448276581834 0.012679145539692626699 37.30636035958900720
0.015962098519750611558 48.28469000278241907 0.015962098519750611558 46.01746023503842054
0.020095091452091651263 59.97809484090625887 0.020095091452091651263 56.54664713063454684
0.025298221281346400247 74.31998208326021427 0.025298221281346400247 69.17302234743854683
0.031848573644282396344 91.82513564512848347 0.031848573644282396344 84.17122889800486973
0.040094978690191851456 113.06953948166150781 0.040094978690191851456 101.78439289190326633
0.050476587558421215363 138.67922335830837710 0.050476587558421215363 122.18669129425009601
0.063546258777947173257 169.30936459131706329 0.063546258777947173257 145.43040135111354516
0.079999999999998294697 205.60865680825025947 0.079999999999998294697 171.38178240557982690
0.100714032943542974863 248.16878674662481785 0.100714032943542974863 199.65417361143016706
0.126791455396897845276 297.45790872961327977 0.126791455396897845276 229.53559088356126949
0.159620985197506115583 353.73674452017314707 0.159620985197506115583 259.95736933669070368
0.200950914520774404082 416.97765970637397004 0.200950914520774404082 289.50233008095665355
0.252982212813464002465 486.78470822517539318 0.252982212813464002465 316.50865835876305709
0.318485736442795541734 562.36084762005214088 0.318485736442795541734 339.26606083937406311
0.400949786901819038576 642.51872933602714966 0.400949786901819038576 356.29590439441813032
0.504765875584169521062 725.77725409551067060 0.504765875584169521062 366.66889618988477650
0.635462587779443310865 810.51870769193953947 0.635462587779443310865 370.23208096278591483
0.799999999999997157829 895.18938338494058371 0.799999999999997157829 367.67964298811085655
1.007140329435330272645 978.48822291347073588 1.007140329435330272645 360.41849668765757997
1.267914553968893187630 1059.50386759517527935 1.267914553968893187630 350.25633604061545157
1.596209851975103788391 1137.75780706598538927 1.596209851975103788391 339.01057675654573131
2.009509145207687197399 1213.15979334526446110 2.009509145207687197399 328.20685201750973192
2.529822128134711078928 1285.91092100804667098 2.529822128134711078928 318.89163396780816129
3.184857364427983839050 1356.37230241482347992 3.184857364427983839050 311.59495433955129329
4.009497869018190385759 1424.95090119714791399 4.009497869018190385759 306.41218491413235370
5.009497869018190385759 1489.82158422708539547 5.009497869018190385759 303.19257012216962721
6.009497869018190385759 1541.96024695203277588 6.009497869018190385759 301.67112188877274548
7.009497869018204596614 1585.49796273774882138 7.009497869018204596614 300.99850003662402287
8.009497869018190385759 1622.81594471014182091 8.009497869018190385759 300.85699909187400181
9.009497869018204596614 1655.44444075170645192 9.009497869018204596614 300.96770993721139575
10.009497869018190385759 1684.36297815758871366 10.009497869018190385759 301.12282103595595117
11.009497869018190385759 1710.33029412658584079 11.009497869018190385759 301.23159097874412282
12.009497869018190385759 1733.82360061880171997 12.009497869018190385759 301.56401449389539948
13.009497869018190385759 1755.25227170270022725 13.009497869018190385759 301.78505363792697835
14.009497869018204596614 1774.96633849351405843 14.009497869018204596614 301.97063734378446043
15.009497869018190385759 1793.15953419008678793 15.009497869018190385759 302.38123158390885692
16.009497869018190385759 1810.03210227610884431 16.009497869018190385759 302.65264107177091546
17.009497869018190385759 1825.79276971245144523 17.009497869018190385759 302.68550602951444262
18.009497869018190385759 1840.53059015649500907 18.009497869018190385759 303.05394221138993771
19.009497869018204596614 1854.33118777103049979 19.009497869018204596614 303.24373123595518109
20.009497869018190385759 1867.31441135911700258 20.009497869018190385759 303.44022722409533799
21.009497869018204596614 1879.60936787531272785 21.009497869018204596614 303.43796493869905362
22.009497869018190385759 1891.24731961681823122 22.009497869018190385759 303.50879981400294128
23.009497869018190385759 1902.27330229437188791 23.009497869018190385759 303.95125303232885017
24.009497869018190385759 1912.71980628384608281 24.009497869018190385759 304.05108148766896647
25.009497869018190385759 1922.65956051745274635 25.009497869018190385759 304.07566266273306610
26.009497869018204596614 1932.17043364028540964 26.009497869018204596614 304.20019793656854290
27.009497869018190385759 1941.26247188988440939 27.009497869018190385759 304.14124863140426669
28.009497869018190385759 1949.95358004906324823 28.009497869018190385759 304.26900039686535138
29.009497869018190385759 1958.26969459374504368 29.009497869018190385759 304.64683782604657836
30.009497869018190385759 1966.22299774033672293 30.009497869018190385759 304.73979832330081763
31.009497869018190385759 1973.85351431148455958 31.009497869018190385759 304.76226411168681807
32.009497869018190385759 1981.20295500709607950 32.009497869018190385759 304.76809180822948520
33.009497869018190385759 1988.29212383848516765 33.009497869018190385759 304.82848268907127931
34.009497869018190385759 1995.12342845188345564 34.009497869018190385759 304.77360908752831392
35.009497869018190385759 2001.70433856938416284 35.009497869018190385759 304.93009633225273092
36.009497869018190385759 2008.04996048399993924 36.009497869018190385759 305.14166056145222683
37.009497869018190385759 2014.16958003761624241 37.009497869018190385759 305.28623826869392133
38.009497869018190385759 2020.07092228458236605 38.009497869018190385759 305.32515491051424306
39.009497869018190385759 2025.77823432053878605 39.009497869018190385759 305.29072810534177052
40.009497869018190385759 2031.31046197492696592 40.009497869018190385759 305.26711230884978931
41.009497869018190385759 2036.68312625765997836 41.009497869018190385759 305.29194378182592118
42.009497869018190385759 2041.89360993216632778 42.009497869018190385759 305.21196550542401837
43.009497869018190385759 2046.94675867654154899 43.009497869018190385759 305.24941759999319402
44.009497869018218807469 2051.84594643263108082 44.009497869018218807469 305.42680560958910974
46.009497869018190385759 2061.21495236917417060 46.009497869018190385759 305.59670980100685256
48.009497869018190385759 2070.03970292185340440 48.009497869018190385759 305.71032439342644693
50.009497869018190385759 2078.39082987867732299 50.009497869018190385759 305.59153566043755745
52.009497869018190385759 2086.33809548003637246 52.009497869018190385759 305.59573747368341401
54.009497869018190385759 2093.89254692547183367 54.009497869018190385759 305.61382342278312763
56.009497869018190385759 2101.07284463984660761 56.009497869018190385759 305.80323653602596323
58.009497869018218807469 2107.90871884526677604 58.009497869018218807469 305.91549928471749809
60.009497869018190385759 2114.41925986760952583 60.009497869018190385759 306.06717765743627524
62.009497869018190385759 2120.63711264446874338 62.009497869018190385759 306.07974087328278756
64.009497869018190385759 2126.59520879161300400 64.009497869018190385759 306.03183044169821869
66.009497869018190385759 2132.31079365559708094 66.009497869018190385759 305.98792990725581831
68.009497869018190385759 2137.79145748193559484 68.009497869018190385759 306.05061159496233358
70.009497869018190385759 2143.04600273396681587 70.009497869018190385759 306.09834620379604075
72.009497869018218807469 2148.09112024361775184 72.009497869018218807469 306.17899601878502835
74.009497869018190385759 2152.93791107050128630 74.009497869018190385759 306.25072780248365234
76.009497869018190385759 2157.59739411528835262 76.009497869018190385759 306.25439053135789891
78.009497869018190385759 2162.08491422114275338 78.009497869018190385759 306.24762567878610753
80.009497869018190385759 2166.41435133217919429 80.009497869018190385759 306.19534263739058133
82.009497869018218807469 2170.59600398948623479 82.009497869018218807469 306.14445355113053893
84.009497869018190385759 2174.63334987123653264 84.009497869018190385759 306.11350108768402833
86.009497869018190385759 2178.53039643700549277 86.009497869018190385759 306.07805330087751372
88.009497869018190385759 2182.29385195577151535 88.009497869018190385759 306.04369598211690118
91.009497869018218807469 2187.70749110055066922 91.009497869018218807469 305.99873938521182026
94.009497869018190385759 2192.86148183761088148 94.009497869018190385759 306.00172128166303764
97.009497869018190385759 2197.77619923674910751 97.009497869018190385759 306.03373531214100467
99.504748934509109403734 2201.69633420074342212 99.504748934509109403734 306.12019742612761775
nan nan nan nan

