Time Pressure difference Time.1 Pressure.1 difference.1
(hr) (psi) (hr) (psi)
0.000200000000020850166 0.52161511650009951 0.000200000000020850166 0.41642987036515888
0.000399999999999067768 1.04176115281469084 0.000399999999999067768 1.08439867458664096
0.000600000000019917934 1.56065930659654684 0.000600000000019917934 1.58395504913770813
0.000799999999998135536 2.07842007092894221 0.000799999999998135536 2.09097563484584814
0.001007140329434719206 2.61354664946200455 0.001007140329434719206 2.62160980581750325
0.001267914553977789183 3.28570341671133592 0.001267914553977789183 3.29213020419178504
0.001596209851982166583 4.12960873962520658 0.001596209851982166583 4.13214106520061986
0.002009509145224797066 5.18859326326430192 0.002009509145224797066 5.18348944192767647
0.002529822128153114136 6.51664420017466384 0.002529822128153114136 6.49785673372615502
0.003184857364431081805 8.18088853600675669 0.003184857364431081805 8.13882098200395454
0.004009497869034817086 10.26458625984836992 0.004009497869034817086 10.18423220475606961
0.005047658755856332391 12.87070623899509414 0.005047658755856332391 12.72887701038843034
0.006354625877790454069 16.12614467750172409 0.006354625877790454069 15.88738003624155404
0.008000000000009777068 20.18663427582315251 0.008000000000009777068 19.79721363280236801
0.010071403294361402914 25.24234430448374766 0.010071403294361402914 24.62154243726909542
0.012679145539692626699 31.52409307546607664 0.012679145539692626699 30.55150683530522215
0.015962098519750611558 39.30998957600382937 0.015962098519750611558 37.80741569229811461
0.020095091452091651263 48.93218032202570811 0.020095091452091651263 46.63773744203827221
0.025298221281360611101 60.78300453992598307 0.025298221281360611101 57.31484558208486391
0.031848573644296607199 75.31975023426400639 0.031848573644296607199 70.12596626341982642
0.040094978690191851456 93.06659600989233638 0.040094978690191851456 85.35699994544698654
0.050476587558435426217 114.61185533932896874 0.050476587558435426217 103.26733819686482718
0.063546258777947173257 140.59823922629766457 0.063546258777947173257 124.05361836535826114
0.080000000000012505552 171.70330441809613831 0.080000000000012505552 147.80156051888471325
0.100714032943542974863 208.60741051050908368 0.100714032943542974863 174.42440217468637798
0.126791455396883634421 251.94567931946642148 0.126791455396883634421 203.59986780152001984
0.159620985197506115583 302.24679287899107294 0.159620985197506115583 234.70338872457409707
0.200950914520774404082 359.85411396707661424 0.200950914520774404082 266.77580543080489406
0.252982212813464002465 424.84959915111863893 0.252982212813464002465 298.52889419411218341
0.318485736442809752589 496.97759796430119650 0.318485736442809752589 328.42391514843097866
0.400949786901833249431 575.60521145956590772 0.400949786901833249431 354.85706423450614011
0.504765875584169521062 659.73184863049243631 0.504765875584169521062 376.38822932957953071
0.635462587779443310865 748.05527754847048527 0.635462587779443310865 392.02258446352215060
0.800000000000011368684 839.11085598184820356 0.800000000000011368684 401.44199221100842578
1.007140329435344483500 931.44357654311284023 1.007140329435344483500 405.07421939781517040
1.267914553968907398485 1023.77792570497479119 1.267914553968907398485 404.03268831161409480
1.596209851975117999245 1115.16003464734103545 1.596209851975117999245 399.85957499731335929
2.009509145207687197399 1205.00690622892147985 2.009509145207687197399 394.19957501656620025
2.529822128134725289783 1293.09587810097173133 2.529822128134725289783 388.58132162968814782
3.184857364427983839050 1379.51031387852390253 3.184857364427983839050 384.12733831429176234
4.009497869018204596614 1464.49491872763951505 4.009497869018204596614 381.49489565674480218
5.009497869018190385759 1545.62749385299889582 5.009497869018190385759 380.91237358037227523
6.009497869018190385759 1611.37179252000646557 6.009497869018190385759 381.87025989800150683
7.009497869018204596614 1666.66324340398432469 7.009497869018204596614 383.61925541881726076
8.009497869018190385759 1714.36965201408406756 8.009497869018190385759 385.71609699565777873
9.009497869018204596614 1756.30624720816081208 9.009497869018204596614 387.96782941536559974
10.009497869018190385759 1793.69687521627884053 10.009497869018190385759 390.23767601927596615
11.009497869018190385759 1827.40760951552215374 11.009497869018190385759 392.35274053922040594
12.009497869018204596614 1858.07452524871882815 12.009497869018204596614 394.38580089112895166
13.009497869018190385759 1886.17717383990589042 13.009497869018190385759 396.32285709385388373
14.009497869018204596614 1912.09285713255553674 14.009497869018204596614 398.15896824084046557
15.009497869018190385759 1936.11855968709369336 15.009497869018190385759 399.90823824625022098
16.009497869018190385759 1958.49483554947391895 16.009497869018190385759 401.55938716731287741
17.009497869018204596614 1979.41894585512136473 17.009497869018204596614 403.08985452568606433
18.009497869018190385759 1999.05287541170491750 18.009497869018190385759 404.51699606536755027
19.009497869018204596614 2017.53103100965540762 19.009497869018204596614 405.79829230665586692
20.009497869018190385759 2034.96868911879914776 20.009497869018190385759 407.00844263639010023
21.009497869018190385759 2051.46402607082791292 21.009497869018190385759 408.15461093115027325
22.009497869018204596614 2067.10107818670212509 22.009497869018204596614 409.25942112567855702
23.009497869018190385759 2081.96067597343017042 23.009497869018190385759 410.34628598363480023
24.009497869018204596614 2096.11068286380441350 24.009497869018204596614 411.37762107378460996
25.009497869018204596614 2109.60922545777111736 25.009497869018204596614 412.37276231221653688
26.009497869018190385759 2122.50726708147021782 26.009497869018190385759 413.29628365169230619
27.009497869018204596614 2134.85128955564459829 27.009497869018204596614 414.14524299130295049
28.009497869018190385759 2146.67833390987698294 28.009497869018190385759 414.93350364867308144
29.009497869018190385759 2158.01881691331800539 29.009497869018190385759 415.68202044298141118
30.009497869018190385759 2168.90528658276843998 30.009497869018190385759 416.38766337802024964
31.009497869018218807469 2179.36979949336091522 31.009497869018218807469 417.03626117066443157
32.009497869018190385759 2189.44010665518317182 32.009497869018190385759 417.64507831127434656
33.009497869018190385759 2199.14129800512500879 33.009497869018190385759 418.26718494719483488
34.009497869018218807469 2208.49700579298360026 34.009497869018218807469 418.85138493734910980
35.009497869018190385759 2217.52725764941214948 35.009497869018190385759 419.41649261241150271
36.009497869018190385759 2226.25065113816890516 36.009497869018190385759 419.96874053046326480
37.009497869018190385759 2234.68445516820474950 37.009497869018190385759 420.50129598472562975
38.009497869018218807469 2242.84393104251421391 38.009497869018218807469 421.01418430468521592
39.009497869018190385759 2250.74339218666364104 39.009497869018190385759 421.49876724448802179
40.009497869018190385759 2258.39612563485661667 40.009497869018190385759 421.95246093782560592
41.009497869018218807469 2265.81461962943649269 41.009497869018218807469 422.40365166639077188
42.009497869018190385759 2273.01032589231863312 42.009497869018190385759 422.83060481653546958
43.009497869018190385759 2279.99387271040313863 43.009497869018190385759 423.24063789063001195
44.009497869018218807469 2286.77565653117744660 44.009497869018218807469 423.63025004667741769
46.009497869018190385759 2299.77146674634877854 46.009497869018190385759 424.36856568991868244
48.009497869018218807469 2312.06610224336100146 48.009497869018218807469 425.06045653092303382
50.009497869018190385759 2323.71882230319079099 50.009497869018190385759 425.70881257503708639
52.009497869018190385759 2334.78242638412666565 52.009497869018190385759 426.31907475589292744
54.009497869018218807469 2345.30380838636847329 54.009497869018218807469 426.89532557815152813
56.009497869018190385759 2355.32496782567204718 56.009497869018190385759 427.43552976234605012
58.009497869018218807469 2364.88306810315316397 58.009497869018218807469 427.93462576025638100
60.009497869018190385759 2374.01158770601023207 60.009497869018190385759 428.41434409447884946
62.009497869018190385759 2382.74067887248702391 62.009497869018190385759 428.86827757493415447
64.009497869018218807469 2391.09757360460662312 64.009497869018218807469 429.29677303477183159
66.009497869018190385759 2399.10687881376134101 66.009497869018190385759 429.69050502500925859
68.009497869018190385759 2406.79086276915859344 68.009497869018190385759 430.05971338462967424
70.009497869018190385759 2414.17013427315487206 70.009497869018190385759 430.41717610930209048
72.009497869018190385759 2421.26349650035444938 72.009497869018190385759 430.75460044885005573
74.009497869018218807469 2428.08814190827115453 74.009497869018218807469 431.07718028234478425
76.009497869018190385759 2434.65951886166112672 76.009497869018190385759 431.38382219764287129
78.009497869018190385759 2440.99178531596226094 78.009497869018190385759 431.66927398634675228
80.009497869018218807469 2447.09826491725698361 80.009497869018218807469 431.95230133522147753
82.009497869018190385759 2452.99176849919604138 82.009497869018190385759 432.23116697560317334
84.009497869018218807469 2458.68394960496334534 84.009497869018218807469 432.49086463170829120
86.009497869018190385759 2464.18555133279187430 86.009497869018190385759 432.74143593320798118
88.009497869018190385759 2469.50623550178988808 88.009497869018190385759 432.98366530441290934
91.009497869018218807469 2477.16764778435344851 91.009497869018218807469 433.33769701505389094
94.009497869018218807469 2484.47049710564897396 94.009497869018218807469 433.69286976632400865
97.009497869018218807469 2491.44112366659373947 97.009497869018218807469 434.07819552456265910
99.504748934509137825444 2497.00364475512697027 99.504748934509137825444 434.21995658634665460
nan nan nan nan

