Time Pressure difference Time.1 Pressure.1 difference.1
(hr) (psi) (hr) (psi)
0.000200000000020850166 0.33473071966487278 0.000200000000020850166 0.26723127031394750
0.000399999999999067768 0.66851870156738935 0.000399999999999067768 0.69588004117582203
0.000600000000019917934 1.00150589260893064 0.000600000000019917934 1.01645523057722342
0.000799999999998135536 1.33376319838274493 0.000799999999998135536 1.34182035166063174
0.001007140329434719206 1.67716449002099988 0.001007140329434719206 1.68233877666314302
0.001267914553977789183 2.10850075945010884 0.001267914553977789183 2.11262495587466459
0.001596209851982166583 2.65005146826267213 0.001596209851982166583 2.65167651158574813
0.002009509145224797066 3.32962274696737870 0.002009509145224797066 3.32634752403957590
0.002529822128153114136 4.18185925584456974 0.002529822128153114136 4.16980296766184821
0.003184857364431081805 5.24983770702344366 0.003184857364431081805 5.22284212698661410
0.004009497869034817086 6.58698767948868369 0.004009497869034817086 6.53542289572722357
0.005047658755856332391 8.25938632852710697 0.005047658755856332391 8.16837171208047330
0.006354625877790454069 10.34846545387451400 0.006354625877790454069 10.19524546911679330
0.008000000000009777068 12.95416180438969889 0.008000000000009777068 12.70426288856585195
0.010071403294361402914 16.19851075590278455 0.010071403294361402914 15.80012993983988068
0.012679145539692626699 20.22963297677202021 0.012679145539692626699 19.60550518252866681
0.015962098519750611558 25.22599649542920730 0.015962098519750611558 24.26176516559894480
0.020095091452091651263 31.40074628945280466 0.020095091452091651263 29.92835698907869713
0.025298221281360611101 39.00565418724549005 0.025298221281360611101 36.78006810442707319
0.031848573644296607199 48.33417093058662317 0.031848573644296607199 45.00121720407354786
0.040094978690191851456 59.72267228023344643 0.040094978690191851456 54.77527225798588262
0.050476587558435426217 73.54869060788149682 0.050476587558435426217 66.26868995754223590
0.063546258777947173257 90.22466625509228777 0.063546258777947173257 79.60765637140028161
0.080000000000012505552 110.18540076511582981 0.080000000000012505552 94.84717975973016735
0.100714032943542974863 133.86749432441905583 0.100714032943542974863 111.93158292420162070
0.126791455396883634421 161.67851714290600285 0.126791455396883634421 130.65405529301361298
0.159620985197506115583 193.95773492075380773 0.159620985197506115583 150.61379881529200020
0.200950914520774404082 230.92549033237560252 0.200950914520774404082 171.19530189269806897
0.252982212813464002465 272.63437652531973754 0.252982212813464002465 191.57188592392864734
0.318485736442809752589 318.92033754715504301 0.318485736442809752589 210.75611115416828056
0.400949786901833249431 369.37722964682330939 0.400949786901833249431 227.71878485112418389
0.504765875584169521062 423.36295381861219767 0.504765875584169521062 241.53575863028751769
0.635462587779443310865 480.04184212107259100 0.635462587779443310865 251.56863302356597956
0.800000000000011368684 538.47400471446621850 0.800000000000011368684 257.61325296343369473
1.007140329435344483500 597.72573462878108330 1.007140329435344483500 259.94412486834318088
1.267914553968907398485 656.97850964825613573 1.267914553968907398485 259.27575380506442571
1.596209851975117999245 715.62021331668540824 1.596209851975117999245 256.59778459222496849
2.009509145207687197399 773.27672485709456396 2.009509145207687197399 252.96565084661813216
2.529822128134725289783 829.80515744377635201 2.529822128134725289783 249.36030671459286623
3.184857364427983839050 885.25900715453042267 3.184857364427983839050 246.50209767620955859
4.009497869018204596614 939.79530612617645602 4.009497869018204596614 244.81280724469451116
5.009497869018190385759 991.85968156490207548 5.009497869018190385759 244.43899132625799098
6.009497869018190385759 1034.04909615535439116 6.009497869018190385759 245.05368588995952450
7.009497869018204596614 1069.53071192962693203 7.009497869018204596614 246.17605084997350673
8.009497869018190385759 1100.14485630840113117 8.009497869018190385759 247.52163549243647367
9.009497869018204596614 1127.05639749186116205 9.009497869018204596614 248.96661664712155471
10.009497869018190385759 1151.05070177095581130 10.009497869018190385759 250.42322203147804771
11.009497869018190385759 1172.68354559674435222 11.009497869018190385759 251.78050069634682018
12.009497869018204596614 1192.36311094782422515 12.009497869018204596614 253.08515566739646374
13.009497869018190385759 1210.39713544185042338 13.009497869018190385759 254.32820288029157041
14.009497869018204596614 1227.02774112168776810 14.009497869018204596614 255.50647165773676761
15.009497869018190385759 1242.44550884378804767 15.009497869018190385759 256.62901275993448280
16.009497869018190385759 1256.80480688923239541 16.009497869018190385759 257.68858762488389402
17.009497869018204596614 1270.23222162358888454 17.009497869018204596614 258.67071874817111166
18.009497869018190385759 1282.83170189636484793 18.009497869018190385759 259.58654365341260473
19.009497869018204596614 1294.68949919887131728 19.009497869018204596614 260.40877675092724530
20.009497869018190385759 1305.87958871795558480 20.009497869018190385759 261.18535411220574360
21.009497869018190385759 1316.46497214417763644 21.009497869018190385759 261.92087293830184080
22.009497869018204596614 1326.49957724401429005 22.009497869018204596614 262.62985145485419025
23.009497869018190385759 1336.03527454982872769 23.009497869018190385759 263.32731409459364613
24.009497869018204596614 1345.11561336642216702 24.009497869018204596614 263.98914218588407721
25.009497869018204596614 1353.77789468070318435 25.009497869018204596614 264.62774396787148135
26.009497869018190385759 1362.05482266533817892 26.009497869018190385759 265.22038584654774240
27.009497869018204596614 1369.97622562249171096 27.009497869018204596614 265.76517981766733101
28.009497869018190385759 1377.56587351222992766 28.009497869018190385759 266.27102224588412582
29.009497869018190385759 1384.84328537590340602 29.009497869018190385759 266.75136025242278492
30.009497869018190385759 1391.82934791856018819 30.009497869018190385759 267.20418525691428613
31.009497869018218807469 1398.54463247742751264 31.009497869018218807469 267.62040326716203253
32.009497869018190385759 1405.00694742362861689 32.009497869018190385759 268.01109324752155771
33.009497869018190385759 1411.23239346507216396 33.009497869018190385759 268.41031135942597530
34.009497869018218807469 1417.23613588307694044 34.009497869018218807469 268.78520402826706004
35.009497869018190385759 1423.03102680368328947 35.009497869018190385759 269.14784478153160308
36.009497869018190385759 1428.62900065076746614 36.009497869018190385759 269.50223317480362084
37.009497869018190385759 1434.04113922418218863 37.009497869018190385759 269.84398452522998468
38.009497869018218807469 1439.27723600339686527 38.009497869018218807469 270.17311508724225178
39.009497869018190385759 1444.34647619621864578 39.009497869018190385759 270.48408152791193970
40.009497869018190385759 1449.25738635485231498 40.009497869018190385759 270.77522572920975108
41.009497869018218807469 1454.01798043099188362 41.009497869018218807469 271.06476372859151525
42.009497869018190385759 1458.63560722070792508 42.009497869018190385759 271.33874799532452471
43.009497869018190385759 1463.11708710556149526 43.009497869018190385759 271.60187431516544621
44.009497869018218807469 1467.46909169118544014 44.009497869018218807469 271.85189612867998221
46.009497869018190385759 1475.80875971143109382 46.009497869018190385759 272.32568785515485388
48.009497869018218807469 1483.69847007018233853 48.009497869018218807469 272.76968786936623701
50.009497869018190385759 1491.17625061813032517 50.009497869018190385759 273.18575074480884268
52.009497869018190385759 1498.27598381019583940 52.009497869018190385759 273.57736803602682585
54.009497869018218807469 1505.02776238806791298 54.009497869018218807469 273.94715956687116432
56.009497869018190385759 1511.45853827029577587 56.009497869018190385759 274.29381925832080924
58.009497869018218807469 1517.59215994517649051 58.009497869018218807469 274.61409901494158703
60.009497869018190385759 1523.45011121898437523 60.009497869018190385759 274.92194374215762309
62.009497869018190385759 1529.05174137836343107 62.009497869018190385759 275.21324181958351573
64.009497869018218807469 1534.41452573671426762 64.009497869018218807469 275.48821581689975346
66.009497869018190385759 1539.55425503494575423 66.009497869018190385759 275.74088140936106583
68.009497869018190385759 1544.48521926110015556 68.009497869018190385759 275.97780970383081467
70.009497869018190385759 1549.22064349057586696 70.009497869018190385759 276.20720059243427613
72.009497869018190385759 1553.77259409178805072 72.009497869018190385759 276.42373245364098011
74.009497869018218807469 1558.15210380419307512 74.009497869018218807469 276.63073830220531590
76.009497869018190385759 1562.36908614848630350 76.009497869018190385759 276.82751647396509043
78.009497869018190385759 1566.43262656422416512 78.009497869018190385759 277.01069652308558489
80.009497869018218807469 1570.35127509817607461 80.009497869018218807469 277.19232076129657116
82.009497869018190385759 1574.13325271524854543 82.009497869018190385759 277.37127434899372247
84.009497869018218807469 1577.78603772420433415 84.009497869018218807469 277.53792746270454472
86.009497869018190385759 1581.31652418330463661 86.009497869018190385759 277.69872401446309595
88.009497869018190385759 1584.73091227264535519 88.009497869018190385759 277.85416738483820609
91.009497869018218807469 1589.64739181065988305 91.009497869018218807469 278.08135652399158744
94.009497869018218807469 1594.33377441652328343 94.009497869018218807469 278.30927789144681128
97.009497869018218807469 1598.80696311725682790 97.009497869018218807469 278.55654903885152862
99.504748934509137825444 1602.37654273298744556 99.504748934509137825444 278.64751991130208353
nan nan nan nan

