Time Pressure difference Time.1 Pressure.1 difference.1
(hr) (psi) (hr) (psi)
0.000200000000020850166 0.70600772137752321 0.000200000000020850166 0.56363915574902079
0.000399999999999067768 1.41002703804536211 0.000399999999999067768 1.46773705955198186
0.000600000000019917934 2.11235734173099488 0.000600000000019917934 2.14388820345071940
0.000799999999998135536 2.81314818517452414 0.000799999999998135536 2.83014218092192804
0.001007140329434719206 3.53744371344379660 0.001007140329434719206 3.54835722124980535
0.001267914553977789183 4.44721003854241381 0.001267914553977789183 4.45590871586467685
0.001596209851982166583 5.58943858070290656 0.001596209851982166583 5.59286609143395896
0.002009509145224797066 7.02277750601060013 0.002009509145224797066 7.01586946757726881
0.002529822128153114136 8.82029867858035743 0.002529822128153114136 8.79486978290960408
0.003184857364431081805 11.07285868727029232 0.003184857364431081805 11.01592011895439782
0.004009497869034817086 13.89315019246992655 0.004009497869034817086 13.78439072299786439
0.005047658755856332391 17.42054188399017534 0.005047658755856332391 17.22857557138561546
0.006354625877790454069 21.82678817814723615 0.006354625877790454069 21.50361947580465483
0.008000000000009777068 27.32267378097083110 0.008000000000009777068 26.79559170044906224
0.010071403294361402914 34.16559340575029324 0.010071403294361402914 33.32533610139925173
0.012679145539692626699 42.66796037284420606 0.012679145539692626699 41.35156179937808929
0.015962098519750611558 53.20619608217079133 0.015962098519750611558 51.17245754530794954
0.020095091452091651263 66.22986190083098279 0.020095091452091651263 63.12432615562504878
0.025298221281360611101 82.26999022123739280 0.025298221281360611101 77.57582602670721883
0.031848573644296607199 101.94552181389236978 0.031848573644296607199 94.91571866864148888
0.040094978690191851456 125.96593408982242579 0.040094978690191851456 115.53097126374193238
0.050476587558435426217 155.12751120769050317 0.050476587558435426217 139.77267112632978296
0.063546258777947173257 190.30016455788697272 0.063546258777947173257 167.90696753273013542
0.080000000000012505552 232.40096935570335290 0.080000000000012505552 200.04988286791720498
0.100714032943542974863 282.35079448078460018 0.100714032943542974863 236.08398383516470176
0.126791455396883634421 341.00927933367267997 0.126791455396883634421 275.57306947657963292
0.159620985197506115583 409.09199673111851325 0.159620985197506115583 317.67178410173244174
0.200950914520774404082 487.06368928664824125 0.200950914520774404082 361.08190225507036075
0.252982212813464002465 575.03528547524012993 0.252982212813464002465 404.05980902069319427
0.318485736442809752589 672.66076157588531714 0.318485736442809752589 444.52281508943684685
0.400949786901833249431 779.08348684813859109 0.400949786901833249431 480.30016655944302784
0.504765875584169521062 892.94915817821436121 0.504765875584169521062 509.44266708621438511
0.635462587779443310865 1012.49520050350304246 0.635462587779443310865 530.60381655094545295
0.800000000000011368684 1135.73921589899850915 0.800000000000011368684 543.35301493528208994
1.007140329435344483500 1260.71184723192027377 1.007140329435344483500 548.26924600022755385
1.267914553968907398485 1385.68668288093726915 1.267914553968907398485 546.85953035807642664
1.596209851975117999245 1509.37265836025449062 1.596209851975117999245 541.21120819700047377
2.009509145207687197399 1630.98068518245759151 2.009509145207687197399 533.55038019758160317
2.529822128134725289783 1750.20938914940438735 2.529822128134725289783 525.94605634591539456
3.184857364427983839050 1867.17160317953062076 3.184857364427983839050 519.91757574386622309
4.009497869018204596614 1982.19853649441643029 4.009497869018204596614 516.35455622330107417
5.009497869018190385759 2092.01173531058793742 5.009497869018190385759 515.56611073776502963
6.009497869018190385759 2180.99685293312995782 6.009497869018190385759 516.86261291926962258
7.009497869018204596614 2255.83400779201701880 7.009497869018204596614 519.22988392674301394
8.009497869018190385759 2320.40478377702447688 8.009497869018190385759 522.06796567883623084
9.009497869018204596614 2377.16609892824271810 9.009497869018204596614 525.11569268003313482
10.009497869018190385759 2427.77443301566381706 10.009497869018190385759 528.18793728723653658
11.009497869018190385759 2473.40201924871644223 11.009497869018190385759 531.05068385085564842
12.009497869018204596614 2514.90978735893486373 12.009497869018204596614 533.80243751187845191
13.009497869018190385759 2552.94681172598757257 13.009497869018190385759 536.42424925123532375
14.009497869018204596614 2588.02377159661182304 14.009497869018204596614 538.90943153616944983
15.009497869018190385759 2620.54263651915562150 15.009497869018190385759 541.27707405941509933
16.009497869018190385759 2650.82899716091196751 16.009497869018190385759 543.51190938250942963
17.009497869018204596614 2679.14984709689997544 17.009497869018204596614 545.58340182616746006
18.009497869018190385759 2705.72443328017425301 18.009497869018190385759 547.51504244516308972
19.009497869018204596614 2730.73467572962908889 19.009497869018204596614 549.24928098830821455
20.009497869018190385759 2754.33660151429876350 20.009497869018190385759 550.88722331358530937
21.009497869018190385759 2776.66309261178867018 21.009497869018190385759 552.43856575076074478
22.009497869018204596614 2797.82789245015419510 22.009497869018204596614 553.93392986755861784
23.009497869018190385759 2817.94040537805040003 23.009497869018190385759 555.40500491415536999
24.009497869018204596614 2837.09248476788798143 24.009497869018204596614 556.80092024317980304
25.009497869018204596614 2855.36280515781118083 25.009497869018204596614 558.14784707863702806
26.009497869018190385759 2872.82034557205361125 26.009497869018190385759 559.39783615276826367
27.009497869018204596614 2889.52801930302257460 27.009497869018204596614 560.54690532262338820
28.009497869018190385759 2905.53596150222165306 28.009497869018190385759 561.61381863275812520
29.009497869018190385759 2920.88534136356793169 29.009497869018190385759 562.62693849766594667
30.009497869018190385759 2935.62021273145455780 30.009497869018190385759 563.58202845751145560
31.009497869018218807469 2949.78396428241558169 31.009497869018218807469 564.45990763545341906
32.009497869018190385759 2963.41415709698321734 32.009497869018190385759 565.28394357417710125
33.009497869018190385759 2976.54475048464337306 33.009497869018190385759 566.12596688712665127
34.009497869018218807469 2989.20773077075773472 34.009497869018218807469 566.91668343431024368
35.009497869018190385759 3001.43020541719806715 35.009497869018190385759 567.68155847221305521
36.009497869018190385759 3013.23734628573811278 36.009497869018190385759 568.42902778804727859
37.009497869018190385759 3024.65252689963972443 37.009497869018190385759 569.14984329142805564
38.009497869018218807469 3035.69640348111033745 38.009497869018218807469 569.84403926589561706
39.009497869018190385759 3046.38834929723589084 39.009497869018190385759 570.49992381817639853
40.009497869018190385759 3056.74634839112786722 40.009497869018190385759 571.11399967699333047
41.009497869018218807469 3066.78730363856811891 41.009497869018218807469 571.72468776501932552
42.009497869018190385759 3076.52671498164181685 42.009497869018190385759 572.30257021346358215
43.009497869018190385759 3085.97896784051408758 43.009497869018190385759 572.85755128508833423
44.009497869018218807469 3095.15813383996874109 44.009497869018218807469 573.38489257910157448
46.009497869018190385759 3112.74800435413499144 46.009497869018190385759 574.38420515355232965
48.009497869018218807469 3129.38883265423055491 48.009497869018218807469 575.32068161032577791
50.009497869018190385759 3145.16082636578357778 50.009497869018190385759 576.19823358086227927
52.009497869018190385759 3160.13544972373802011 52.009497869018190385759 577.02422538616076508
54.009497869018218807469 3174.37617377135848074 54.009497869018218807469 577.80418270928146285
56.009497869018190385759 3187.93984498697636809 56.009497869018190385759 578.53535079298421806
58.009497869018218807469 3200.87676415235728200 58.009497869018218807469 579.21087881563357769
60.009497869018190385759 3213.23224450654242901 60.009497869018190385759 579.86017910876910264
62.009497869018190385759 3225.04709720002256290 62.009497869018190385759 580.47457952021341043
64.009497869018218807469 3236.35818083426056546 64.009497869018218807469 581.05454948973886076
66.009497869018190385759 3247.19880094219297462 66.009497869018190385759 581.58746699244886713
68.009497869018190385759 3257.59909769710975525 68.009497869018190385759 582.08719168301786340
70.009497869018190385759 3267.58696517863381814 70.009497869018190385759 582.57101861927833397
72.009497869018190385759 3277.18785354347392058 72.009497869018190385759 583.02772353745626788
74.009497869018218807469 3286.42503283762835053 74.009497869018218807469 583.46433636941571876
76.009497869018190385759 3295.31941247199347345 76.009497869018190385759 583.87937717833824536
78.009497869018190385759 3303.89015528434401858 78.009497869018190385759 584.26573708343107683
80.009497869018218807469 3312.15529487208368664 80.009497869018218807469 584.64881550149414124
82.009497869018190385759 3320.13217073935766166 82.009497869018190385759 585.02626103385773604
84.009497869018218807469 3327.83655599397889091 84.009497869018218807469 585.37776263845876201
86.009497869018190385759 3335.28299145361961564 86.009497869018190385759 585.71691169303619517
88.009497869018190385759 3342.48455442121212400 88.009497869018190385759 586.04476991839328548
91.009497869018218807469 3352.85430034506453012 91.009497869018218807469 586.52395296623535614
94.009497869018218807469 3362.73873015892013427 94.009497869018218807469 587.00468041620285931
97.009497869018218807469 3372.17349540860641355 97.009497869018218807469 587.52622005713101316
99.504748934509137825444 3379.70238541697108303 99.504748934509137825444 587.71809410572393517
nan nan nan nan

