Time Pressure difference Time.1 Pressure.1 difference.1
(hr) (psi) (hr) (psi)
0.000200000000020850166 0.28323368587027697 0.000200000000020850166 0.22611876718872478
0.000399999999999067768 0.56566967055702166 0.000399999999999067768 0.58882157330261864
0.000600000000019917934 0.84742806297678741 0.000600000000019917934 0.86007750279611217
0.000799999999998135536 1.12856886017001479 0.000799999999998135536 1.13538645140514993
0.001007140329434719206 1.41913918386392313 0.001007140329434719206 1.42351742640727474
0.001267914553977789183 1.78411602722701534 0.001267914553977789183 1.78760573189394711
0.001596209851982166583 2.24235124237610739 0.001596209851982166583 2.24372627903409416
0.002009509145224797066 2.81737309358778187 0.002009509145224797066 2.81460175111041000
0.002529822128153114136 3.53849629340694305 0.002529822128153114136 3.52829481879079410
0.003184857364431081805 4.44217036748137595 0.003184857364431081805 4.41932795360405795
0.004009497869034817086 5.57360495956734692 0.004009497869034817086 5.52997321946149611
0.005047658755856332391 6.98871150875370528 0.005047658755856332391 6.91169914099117033
0.006354625877790454069 8.75639384558612832 0.006354625877790454069 8.62674616617574941
0.008000000000009777068 10.96121383448359232 0.008000000000009777068 10.74976090570956622
0.010071403294361402914 13.70643217807158898 0.010071403294361402914 13.36934071832605042
0.012679145539692626699 17.11738174957632452 0.012679145539692626699 16.58927361598579608
0.015962098519750611558 21.34507395767086990 0.015962098519750611558 20.52918590935295740
0.020095091452091651263 26.56986224492160531 0.020095091452091651263 25.32399437537428355
0.025298221281360611101 33.00478431228464871 0.025298221281360611101 31.12159608836136471
0.031848573644296607199 40.89814463357329544 0.031848573644296607199 38.07795301883146522
0.040094978690191851456 50.53456885250522390 0.040094978690191851456 46.34830729521882375
0.050476587558435426217 62.23350743743819180 0.050476587558435426217 56.07350688715111886
0.063546258777947173257 76.34394836969347864 0.063546258777947173257 67.36032462195409209
0.080000000000012505552 93.23380064740570106 0.080000000000012505552 80.25530595054091521
0.100714032943542974863 113.27249519758535712 0.100714032943542974863 94.71133939740136043
0.126791455396883634421 136.80489912092042459 0.126791455396883634421 110.55343140178077022
0.159620985197506115583 164.11808339448401739 0.159620985197506115583 127.44244515140090357
0.200950914520774404082 195.39849181970242853 0.200950914520774404082 144.85756313997526945
0.252982212813464002465 230.69062629065516035 0.252982212813464002465 162.09928808947810808
0.318485736442809752589 269.85567023220812644 0.318485736442809752589 178.33209405352701538
0.400949786901833249431 312.54996354731207475 0.400949786901833249431 192.68512564325891390
0.504765875584169521062 358.23019169267189454 0.504765875584169521062 204.37641114870481829
0.635462587779443310865 406.18925102552299222 0.635462587779443310865 212.86576640455581355
0.800000000000011368684 455.63185014300995590 0.800000000000011368684 217.98044481521316129
1.007140329435344483500 505.76792930127629688 1.007140329435344483500 219.95272104244421030
1.267914553968907398485 555.90489277929361833 1.267914553968907398485 219.38717629659299746
1.596209851975117999245 605.52479588334915661 1.596209851975117999245 217.12120234726728540
2.009509145207687197399 654.31107487908002440 2.009509145207687197399 214.04785840867688762
2.529822128134725289783 702.14282552934923842 2.529822128134725289783 210.99718260465550657
3.184857364427983839050 749.06531374614110064 3.184857364427983839050 208.57869803371573880
4.009497869018204596614 795.21141287599539282 4.009497869018204596614 207.14929843781843033
5.009497869018190385759 839.26588440107116185 5.009497869018190385759 206.83299266067982103
6.009497869018190385759 874.96461982376149535 6.009497869018190385759 207.35311882996575150
7.009497869018204596614 904.98752547891490394 7.009497869018204596614 208.30281225766987063
8.009497869018190385759 930.89180149172398160 8.009497869018190385759 209.44138387821544711
9.009497869018204596614 953.66310557003635040 9.009497869018204596614 210.66406023987210006
10.009497869018190385759 973.96597842157802916 10.009497869018190385759 211.89657248817377422
11.009497869018190385759 992.27069242801451310 11.009497869018190385759 213.04503905075500825
12.009497869018204596614 1008.92263234046663456 12.009497869018204596614 214.14897787241235960
13.009497869018190385759 1024.18219152771962399 13.009497869018190385759 215.20078705255443197
14.009497869018204596614 1038.25424248758213253 14.009497869018204596614 216.19778371039268450
15.009497869018190385759 1051.30004594474371515 15.009497869018190385759 217.14762618148301954
16.009497869018190385759 1063.45022121396596049 16.009497869018190385759 218.04418952874792126
17.009497869018204596614 1074.81187983534437080 17.009497869018204596614 218.87522355614481739
18.009497869018190385759 1085.47297852769338533 18.009497869018190385759 219.65015232211837315
19.009497869018204596614 1095.50649932212172644 19.009497869018204596614 220.34588802001539420
20.009497869018190385759 1104.97503660750089693 20.009497869018190385759 221.00299194109720702
21.009497869018190385759 1113.93189950661189869 21.009497869018190385759 221.62535402471695534
22.009497869018204596614 1122.42271920647363004 22.009497869018204596614 222.22525892333817410
23.009497869018190385759 1130.49138615754736747 23.009497869018190385759 222.81541961850231814
24.009497869018204596614 1138.17474977158803995 24.009497869018204596614 223.37542800344033367
25.009497869018204596614 1145.50437242213342870 25.009497869018204596614 223.91578335742968875
26.009497869018190385759 1152.50792687067087172 26.009497869018190385759 224.41724956246346778
27.009497869018204596614 1159.21065244980081843 27.009497869018204596614 224.87822907648777004
28.009497869018190385759 1165.63266220265609263 28.009497869018190385759 225.30624959267120744
29.009497869018190385759 1171.79047224114901837 29.009497869018190385759 225.71268944435774984
30.009497869018190385759 1177.70175593108933754 30.009497869018190385759 226.09584906354285749
31.009497869018218807469 1183.38391978859272058 31.009497869018218807469 226.44803353375252186
32.009497869018190385759 1188.85203243537807793 32.009497869018190385759 226.77861736328750908
33.009497869018190385759 1194.11971754736873663 33.009497869018190385759 227.11641730412964080
34.009497869018218807469 1199.19980728568066297 34.009497869018218807469 227.43363417776441793
35.009497869018190385759 1204.10317652619369255 35.009497869018190385759 227.74048404591133021
36.009497869018190385759 1208.83992362757271621 36.009497869018190385759 228.04035114791076921
37.009497869018190385759 1213.41942549738496382 37.009497869018190385759 228.32952536750229910
38.009497869018218807469 1217.84996892595131612 38.009497869018218807469 228.60802045843576025
39.009497869018190385759 1222.13932601218516538 39.009497869018190385759 228.87114590823313165
40.009497869018190385759 1226.29471153102895187 40.009497869018190385759 229.11749869394671464
41.009497869018218807469 1230.32290651853168129 41.009497869018218807469 229.36249238573128650
42.009497869018190385759 1234.23012918675271976 42.009497869018190385759 229.59432522681302657
43.009497869018190385759 1238.02215062778282118 43.009497869018190385759 229.81697057437074250
44.009497869018218807469 1241.70461604638762765 44.009497869018218807469 230.02852749349841588
46.009497869018190385759 1248.76125821736468424 46.009497869018190385759 230.42942818513100178
48.009497869018218807469 1255.43716698246180385 48.009497869018218807469 230.80512050484833253
50.009497869018190385759 1261.76451975380268777 50.009497869018190385759 231.15717370714591539
52.009497869018190385759 1267.77198630093494103 52.009497869018190385759 231.48854218433041297
54.009497869018218807469 1273.48502971298034936 54.009497869018218807469 231.80144271042939863
56.009497869018190385759 1278.92645545948107610 56.009497869018190385759 232.09477014165608466
58.009497869018218807469 1284.11644303053390104 58.009497869018218807469 232.36577608956596919
60.009497869018190385759 1289.07317103144828252 60.009497869018190385759 232.62626008951795598
62.009497869018190385759 1293.81301193553849771 62.009497869018190385759 232.87274307810912433
64.009497869018218807469 1298.35075254645039422 64.009497869018218807469 233.10541338353056062
66.009497869018190385759 1302.69975426033852273 66.009497869018190385759 233.31920734638242720
68.009497869018190385759 1306.87210860554637293 68.009497869018190385759 233.51968513401070027
70.009497869018190385759 1310.87900603048706216 70.009497869018190385759 233.71378511667518296
72.009497869018190385759 1314.73065653920525619 72.009497869018190385759 233.89700438385008852
74.009497869018218807469 1318.43639552662489223 74.009497869018218807469 234.07216317878911127
76.009497869018190385759 1322.00461135641148758 76.009497869018190385759 234.23866778566275570
78.009497869018190385759 1325.44299170818976563 78.009497869018190385759 234.39366628876473442
80.009497869018218807469 1328.75877123691816450 80.009497869018218807469 234.54734833648171843
82.009497869018190385759 1331.95890614367181115 82.009497869018190385759 234.69877060299472760
84.009497869018218807469 1335.04972422817286315 84.009497869018218807469 234.83978477613462132
86.009497869018190385759 1338.03705892433458757 86.009497869018190385759 234.97584339685337795
88.009497869018190385759 1340.92615653839220613 88.009497869018190385759 235.10737240255542702
91.009497869018218807469 1345.08625460901976112 91.009497869018218807469 235.29960936645440484
94.009497869018218807469 1349.05165527551980631 94.009497869018218807469 235.49246590814726687
97.009497869018218807469 1352.83666109921728093 97.009497869018218807469 235.70169534056668681
99.504748934509137825444 1355.85707462022014624 99.504748934509137825444 235.77867069417868606
nan nan nan nan

