Time Pressure difference Time.1 Pressure.1 difference.1
(hr) (psi) (hr) (psi)
0.000200000000020850166 0.54985542535520038 0.000200000000020850166 0.43897543659511967
0.000399999999999067768 1.09816223433650562 0.000399999999999067768 1.14310815696872003
0.000600000000019917934 1.64515360026578672 0.000600000000019917934 1.66971057727573680
0.000799999999998135536 2.19094599833592341 0.000799999999998135536 2.20418132208272510
0.001007140329434719206 2.75504439799975653 0.001007140329434719206 2.76354409466749562
0.001267914553977789183 3.46359181825303253 0.001267914553977789183 3.47036655282637252
0.001596209851982166583 4.35318628285332299 0.001596209851982166583 4.35585570885797768
0.002009509145224797066 5.46950436350472557 0.002009509145224797066 5.46412422063076697
0.002529822128153114136 6.86945614731787835 0.002529822128153114136 6.84965152504253982
0.003184857364431081805 8.62380288349756796 0.003184857364431081805 8.57945778676213067
0.004009497869034817086 10.82031226754716791 0.004009497869034817086 10.73560783367598326
0.005047658755856332391 13.56752791435470051 0.005047658755856332391 13.41802003324385417
0.006354625877790454069 16.99921620462761140 0.006354625877790454069 16.74752481527374215
0.008000000000009777068 21.27954122706198703 0.008000000000009777068 20.86903730082033093
0.010071403294361402914 26.60896804071375854 0.010071403294361402914 25.95455588132506364
0.012679145539692626699 33.23081149037984261 0.012679145539692626699 32.20556930728034217
0.015962098519750611558 41.43823741929066529 0.015962098519750611558 39.85431399411043429
0.020095091452091651263 51.58137479805895254 0.020095091452091651263 49.16271048826327217
0.025298221281360611101 64.07380414877546571 0.025298221281360611101 60.41787862315315749
0.031848573644296607199 79.39757110681971142 0.031848573644296607199 73.92259501016548029
0.040094978690191851456 98.10523337348521977 0.040094978690191851456 89.97823879599664565
0.050476587558435426217 120.81695578763660137 0.050476587558435426217 108.85824504191801054
0.063546258777947173257 148.21024580861316622 0.063546258777947173257 130.76989706666748248
0.080000000000012505552 180.99934319232426105 0.080000000000012505552 155.80355583360139349
0.100714032943542974863 219.90144228974048701 0.100714032943542974863 183.86776152809298424
0.126791455396883634421 265.58605049281328547 0.126791455396883634421 214.62279058058319947
0.159620985197506115583 318.61047274823579301 0.159620985197506115583 247.41026008864341179
0.200950914520774404082 379.33666153854250069 0.200950914520774404082 281.21908152100775169
0.252982212813464002465 447.85101057012821002 0.252982212813464002465 314.69128655493989299
0.318485736442809752589 523.88402842733660236 0.318485736442809752589 346.20482775200849801
0.400949786901833249431 606.76855093349149683 0.400949786901833249431 374.06907089688388623
0.504765875584169521062 695.44981495762101531 0.504765875584169521062 396.76593601302812431
0.635462587779443310865 788.55508556861070701 0.635462587779443310865 413.24673712555994598
0.800000000000011368684 884.54042461780818485 0.800000000000011368684 423.17611280841964572
1.007140329435344483500 981.87205043238952840 1.007140329435344483500 427.00498923782430438
1.267914553968907398485 1079.20539302021211370 1.267914553968907398485 425.90706952593711776
1.596209851975117999245 1175.53494098175110594 1.596209851975117999245 421.50802332519333504
2.009509145207687197399 1270.24613363621983808 2.009509145207687197399 415.54159022446947347
2.529822128134725289783 1363.10425366694767035 2.529822128134725289783 409.61916388352477725
3.184857364427983839050 1454.19717800570492727 3.184857364427983839050 404.92404134404642946
4.009497869018204596614 1543.78286018741641783 4.009497869018204596614 402.14907790567684742
5.009497869018190385759 1629.30796326542258612 5.009497869018190385759 401.53501800988283321
6.009497869018190385759 1698.61166663733160931 6.009497869018190385759 402.54476441477225990
7.009497869018204596614 1756.89660371566492358 7.009497869018204596614 404.38845077588700860
8.009497869018190385759 1807.18584336516505573 8.009497869018190385759 406.59881562281123024
9.009497869018204596614 1851.39289116529062085 9.009497869018204596614 408.97245712256693650
10.009497869018190385759 1890.80785253690532954 10.009497869018190385759 411.36519351076543671
11.009497869018190385759 1926.34369028547075686 11.009497869018190385759 413.59476789325458412
12.009497869018204596614 1958.67091674307584981 12.009497869018204596614 415.73789839160411930
13.009497869018190385759 1988.29504630894530237 13.009497869018190385759 417.77982706390332623
14.009497869018204596614 2015.61380799642029160 14.009497869018204596614 419.71534550228722082
15.009497869018190385759 2040.94026514786014559 15.009497869018190385759 421.55932120862678403
16.009497869018190385759 2064.52799543591027032 16.009497869018190385759 423.29986354261325232
17.009497869018204596614 2086.58493973899749108 17.009497869018204596614 424.91319059873274000
18.009497869018190385759 2107.28185274291172391 18.009497869018190385759 426.41759776317411479
19.009497869018204596614 2126.76041803884072579 19.009497869018204596614 427.76826354618822279
20.009497869018190385759 2145.14215317937123473 20.009497869018190385759 429.04393156893354444
21.009497869018190385759 2162.53054977529882308 21.009497869018190385759 430.25215356118070531
22.009497869018204596614 2179.01419388470822014 22.009497869018204596614 431.41677832038089946
23.009497869018190385759 2194.67829218855240470 23.009497869018190385759 432.56248618020100594
24.009497869018204596614 2209.59438225451958715 24.009497869018204596614 433.64965788351173615
25.009497869018204596614 2223.82373766408318261 25.009497869018204596614 434.69867619536205439
26.009497869018190385759 2237.42008090435228951 26.009497869018190385759 435.67219709780300718
27.009497869018204596614 2250.43241032776541033 27.009497869018204596614 436.56711920420792694
28.009497869018190385759 2262.89977236996537613 28.009497869018190385759 437.39805639398338144
29.009497869018190385759 2274.85423056786112284 29.009497869018190385759 438.18709798288807633
30.009497869018190385759 2286.33009509202656773 30.009497869018190385759 438.93094451632072150
31.009497869018218807469 2297.36115806465795686 31.009497869018218807469 439.61465747608252741
32.009497869018190385759 2307.97667293906215491 32.009497869018190385759 440.25643605424141924
33.009497869018190385759 2318.20308802451063457 33.009497869018190385759 440.91222362267984636
34.009497869018218807469 2328.06531502381403698 34.009497869018218807469 441.52805227472151728
35.009497869018190385759 2337.58446586609989026 35.009497869018190385759 442.12375495129998626
36.009497869018190385759 2346.78014498959828416 36.009497869018190385759 442.70590164198512184
37.009497869018190385759 2355.67055624419026572 37.009497869018190385759 443.26728971638277699
38.009497869018218807469 2364.27178718175855465 38.009497869018218807469 443.80794587532108153
39.009497869018190385759 2372.59892615855278564 39.009497869018190385759 444.31876419721510274
40.009497869018190385759 2380.66597957050180412 40.009497869018190385759 444.79702092490532550
41.009497869018218807469 2388.48611177497878089 41.009497869018218807469 445.27263917699156082
42.009497869018190385759 2396.07139449158466959 42.009497869018190385759 445.72270762507400832
43.009497869018190385759 2403.43303142402373851 43.009497869018190385759 446.15493994203347938
44.009497869018218807469 2410.58198188477626900 44.009497869018218807469 446.56564574984150795
46.009497869018190385759 2424.28138692051425096 46.009497869018190385759 447.34393389606077562
48.009497869018218807469 2437.24165554953015089 48.009497869018218807469 448.07328379533606721
50.009497869018190385759 2449.52525535782206134 50.009497869018190385759 448.75674191827158666
52.009497869018190385759 2461.18784437307613189 52.009497869018190385759 449.40004377133936941
54.009497869018218807469 2472.27885533722292166 54.009497869018218807469 450.00749288652281166
56.009497869018190385759 2482.84256162515112010 56.009497869018190385759 450.57694379406541429
58.009497869018218807469 2492.91813866924758258 58.009497869018218807469 451.10306091288168773
60.009497869018190385759 2502.54087748627216570 60.009497869018190385759 451.60875125882961356
62.009497869018190385759 2511.74256276048799918 62.009497869018190385759 452.08726075574270453
64.009497869018218807469 2520.55190083797697298 64.009497869018218807469 452.53895501436136328
66.009497869018190385759 2528.99483085144902361 66.009497869018190385759 452.95400370470719054
68.009497869018190385759 2537.09482667704287451 68.009497869018190385759 453.34320105195035921
70.009497869018190385759 2544.87361288030069773 70.009497869018190385759 453.72001685407326477
72.009497869018190385759 2552.35101064209356991 72.009497869018190385759 454.07570939034826552
74.009497869018218807469 2559.54514322177601571 74.009497869018218807469 454.41575373712140617
76.009497869018190385759 2566.47229536054101118 76.009497869018190385759 454.73899728477641702
78.009497869018190385759 2573.14739152733591254 78.009497869018190385759 455.03990346968396352
80.009497869018218807469 2579.58447671214025831 80.009497869018218807469 455.33825395528128865
82.009497869018190385759 2585.79705532877051155 82.009497869018190385759 455.63221741695747369
84.009497869018218807469 2591.79741184472231907 84.009497869018218807469 455.90597513724662804
86.009497869018190385759 2597.59687099093707729 86.009497869018190385759 456.17011240092944035
88.009497869018190385759 2603.20561767863864588 88.009497869018190385759 456.42545610114865440
91.009497869018218807469 2611.28181979815599334 91.009497869018218807469 456.79865513370327790
94.009497869018218807469 2618.98004631200592485 94.009497869018218807469 457.17305698297212757
97.009497869018218807469 2626.32806348293843257 97.009497869018218807469 457.57924432684791327
99.504748934509137825444 2632.19174017180557712 99.504748934509137825444 457.72868035057564384
nan nan nan nan

