Time Pressure difference Time.1 Pressure.1 difference.1
(hr) (psi) (hr) (psi)
0.000200000000020850166 0.65783307685999814 0.000200000000020850166 0.52517907218026394
0.000399999999999067768 1.31381342839050208 0.000399999999999067768 1.36758558960608201
0.000600000000019917934 1.96822001723640971 0.000600000000019917934 1.99759936133290572
0.000799999999998135536 2.62119219136261528 0.000799999999998135536 2.63702659681196128
0.001007140329434719206 3.29606520123233748 0.001007140329434719206 3.30623402262334798
0.001267914553977789183 4.14375335355951968 0.001267914553977789183 4.15185847407626429
0.001596209851982166583 5.20804159519612053 0.001596209851982166583 5.21123522872434819
0.002009509145224797066 6.54357621736517103 0.002009509145224797066 6.53713955096611432
0.002529822128153114136 8.21844300404193362 0.002529822128153114136 8.19474925654636088
0.003184857364431081805 10.31729891802126176 0.003184857364431081805 10.26424556966103907
0.004009497869034817086 12.94514700286609710 0.004009497869034817086 12.84380876778153890
0.005047658755856332391 16.23184608484731584 0.005047658755856332391 16.05297865004400748
0.006354625877790454069 20.33743086716777881 0.006354625877790454069 20.03631367627916049
0.008000000000009777068 25.45830309944576086 0.008000000000009777068 24.96718661971253894
0.010071403294361402914 31.83429409100497409 0.010071403294361402914 31.05137199095082678
0.012679145539692626699 39.75649954740307379 0.012679145539692626699 38.52992581777346714
0.015962098519750611558 49.57565564362266741 0.015962098519750611558 47.68068985398105752
0.020095091452091651263 61.71064779465663719 0.020095091452091651263 58.81701919441768922
0.025298221281360611101 76.65627324143531496 0.025298221281360611101 72.28241672135543183
0.031848573644296607199 94.98923914894442078 0.031848573644296607199 88.43911668889889199
0.040094978690191851456 117.37061152839923750 0.040094978690191851456 107.64768145986307957
0.050476587558435426217 144.54233985469517165 0.050476587558435426217 130.23524180241548720
0.063546258777947173257 177.31497685864292180 0.063546258777947173257 156.44978621873210045
0.080000000000012505552 216.54302085849064952 0.080000000000012505552 186.39942027222400611
0.100714032943542974863 263.08450497503696397 0.100714032943542974863 219.97472376170640018
0.126791455396883634421 317.74041086149264856 0.126791455396883634421 256.76926002994241571
0.159620985197506115583 381.17748401299513716 0.159620985197506115583 295.99535648067308102
0.200950914520774404082 453.82875519414756127 0.200950914520774404082 336.44337245413612436
0.252982212813464002465 535.79758364281190097 0.252982212813464002465 376.48866911104585142
0.318485736442809752589 626.76155666835427382 0.318485736442809752589 414.19067005980468821
0.400949786901833249431 725.92249598085379603 0.400949786901833249431 447.52674342950456321
0.504765875584169521062 832.01850973781847642 0.504765875584169521062 474.68069686150801090
0.635462587779443310865 943.40729270444046506 0.635462587779443310865 494.39790906864573117
0.800000000000011368684 1058.24171646118429635 0.800000000000011368684 506.27716215146278955
1.007140329435344483500 1174.68680353844797537 1.007140329435344483500 510.85793274374145767
1.267914553968907398485 1291.13394451964973086 1.267914553968907398485 509.54440946305470561
1.596209851975117999245 1406.38017108390772592 1.596209851975117999245 504.28150222591108331
2.009509145207687197399 1519.69023842883098041 2.009509145207687197399 497.14341307821729288
2.529822128134725289783 1630.78333671332711674 2.529822128134725289783 490.05797250113533892
3.184857364427983839050 1739.76459966845663985 3.184857364427983839050 484.44084704604949820
4.009497869018204596614 1846.94263635715060445 4.009497869018204596614 481.12095121041704715
5.009497869018190385759 1949.26269925410065298 5.009497869018190385759 480.38630553448217597
6.009497869018190385759 2032.17589120357501997 6.009497869018190385759 481.59434050830759588
7.009497869018204596614 2101.90651078973814947 7.009497869018204596614 483.80008008232999828
8.009497869018190385759 2162.07128088400395427 8.009497869018190385759 486.44450449133904613
9.009497869018204596614 2214.95947100137482266 9.009497869018204596614 489.28426894421909310
10.009497869018190385759 2262.11453052753586235 10.009497869018190385759 492.14687803704873659
11.009497869018190385759 2304.62870499409791591 11.009497869018190385759 494.81428424691483769
12.009497869018204596614 2343.30417833914862058 12.009497869018204596614 497.37827118753847344
13.009497869018190385759 2378.74573516115515304 13.009497869018190385759 499.82118283173929285
14.009497869018204596614 2411.42920835825498216 14.009497869018204596614 502.13678797252487129
15.009497869018190385759 2441.72913896843692783 15.009497869018190385759 504.34287371183154391
16.009497869018190385759 2469.94890088405009010 16.009497869018190385759 506.42521438935000333
17.009497869018204596614 2496.33726929499380276 17.009497869018204596614 508.35535793685238559
18.009497869018190385759 2521.09853077399748145 18.009497869018190385759 510.15519249008139013
19.009497869018204596614 2544.40219197396072559 19.009497869018204596614 511.77109475616481404
20.009497869018190385759 2566.39363341096986915 20.009497869018190385759 513.29727160512891260
21.009497869018190385759 2587.19666982180797277 21.009497869018190385759 514.74275773482645491
22.009497869018204596614 2606.91728331826107024 22.009497869018204596614 516.13608524130165733
23.009497869018190385759 2625.65741301107755135 23.009497869018190385759 517.50678104942483060
24.009497869018204596614 2643.50264463078519839 24.009497869018204596614 518.80744568540978889
25.009497869018204596614 2660.52628433527752350 25.009497869018204596614 520.06246457209476830
26.009497869018190385759 2676.79260434478419484 26.009497869018190385759 521.22716027410865536
27.009497869018204596614 2692.36022504469838168 27.009497869018204596614 522.29782237119741239
28.009497869018190385759 2707.27586059971736177 28.009497869018190385759 523.29193453781692824
29.009497869018190385759 2721.57787101170060851 29.009497869018190385759 524.23592387076644172
30.009497869018190385759 2735.30730409801390124 30.009497869018190385759 525.12584298629303703
31.009497869018218807469 2748.50458789608592269 31.009497869018218807469 525.94381982032837186
32.009497869018190385759 2761.20472049507179690 32.009497869018190385759 526.71162742440969851
33.009497869018190385759 2773.43934398098554084 33.009497869018190385759 527.49619502894631751
34.009497869018218807469 2785.23826208287073314 34.009497869018218807469 528.23295679996897434
35.009497869018190385759 2796.62673257696587825 35.009497869018190385759 528.94564036469728308
36.009497869018190385759 2807.62820971565270156 36.009497869018190385759 529.64210589192168754
37.009497869018190385759 2818.26447212295852296 37.009497869018190385759 530.31373633742475704
38.009497869018218807469 2828.55476653769301265 38.009497869018218807469 530.96056364539924743
39.009497869018190385759 2838.51714428636569210 39.009497869018190385759 531.57169372234795901
40.009497869018190385759 2848.16836226561554213 40.009497869018190385759 532.14386793432777267
41.009497869018218807469 2857.52416997852469649 41.009497869018218807469 532.71288554105331059
42.009497869018190385759 2866.59900972407103836 42.009497869018190385759 533.25133601066249867
43.009497869018190385759 2875.40628532904383974 43.009497869018190385759 533.76844778563520322
44.009497869018218807469 2883.95910823677149892 44.009497869018218807469 534.25980579135125481
46.009497869018190385759 2900.34872876291137800 46.009497869018190385759 535.19092997836878567
48.009497869018218807469 2915.85406524958898444 48.009497869018218807469 536.06350568868003847
50.009497869018190385759 2930.54985233141269418 50.009497869018190385759 536.88117764240337237
52.009497869018190385759 2944.50267786023596273 52.009497869018190385759 537.65080765392872308
54.009497869018218807469 2957.77168191401869990 54.009497869018218807469 538.37754435970703071
56.009497869018190385759 2970.40983203492396569 56.009497869018190385759 539.05882097416895249
58.009497869018218807469 2982.46399671607878190 58.009497869018218807469 539.68825414350794745
60.009497869018190385759 2993.97639723433167092 60.009497869018190385759 540.29324924017078047
62.009497869018190385759 3004.98505997931488309 62.009497869018190385759 540.86572585883413922
64.009497869018218807469 3015.52432849498154610 64.009497869018218807469 541.40612140690961951
66.009497869018190385759 3025.62523570143184770 66.009497869018190385759 541.90267512708169306
68.009497869018190385759 3035.31586514836544666 68.009497869018190385759 542.36830095641187199
70.009497869018190385759 3044.62220755467978961 70.009497869018190385759 542.81911381937459282
72.009497869018190385759 3053.56797647815437813 72.009497869018190385759 543.24465534313560511
74.009497869018218807469 3062.17485412635460307 74.009497869018218807469 543.65147577009076940
76.009497869018190385759 3070.46232315037514127 76.009497869018190385759 544.03819614734572951
78.009497869018190385759 3078.44823880611784261 78.009497869018190385759 544.39819267067935016
80.009497869018218807469 3086.14940416316494520 80.009497869018218807469 544.75513162021570679
82.009497869018190385759 3093.58197555949573143 82.009497869018190385759 545.10682204566512610
84.009497869018218807469 3100.76064982027219230 84.009497869018218807469 545.43433883489331038
86.009497869018190385759 3107.69897556619662282 86.009497869018190385759 545.75034595398210513
88.009497869018190385759 3114.40913776658817369 88.009497869018190385759 546.05583267690292359
91.009497869018218807469 3124.07130102740120492 91.009497869018218807469 546.50231852853937653
94.009497869018218807469 3133.28126386572330375 94.009497869018218807469 546.95024339956785298
97.009497869018218807469 3142.07224513366600149 97.009497869018218807469 547.43619562970320658
99.504748934509137825444 3149.08739911793054489 99.504748934509137825444 547.61497709615696294
nan nan nan nan

