Time Pressure difference Time.1 Pressure.1 difference.1
(hr) (psi) (hr) (psi)
0.000200000000020850166 0.38539715614020092 0.000200000000020850166 0.30768066855005366
0.000399999999999067768 0.76970887723888004 0.000399999999999067768 0.80121175956719959
0.000600000000019917934 1.15309859595668440 0.000600000000019917934 1.17031073694251053
0.000799999999998135536 1.53564795049526959 0.000799999999998135536 1.54492467287973478
0.001007140329434719206 1.93102809769167227 0.001007140329434719206 1.93698558901165874
0.001267914553977789183 2.42765347986315305 0.001267914553977789183 2.43240193430730667
0.001596209851982166583 3.05117588405429263 0.001596209851982166583 3.05304690167689063
0.002009509145224797066 3.83361030916343370 0.002009509145224797066 3.82983933288923817
0.002529822128153114136 4.81484539630739494 0.002529822128153114136 4.80096421090594916
0.003184857364431081805 6.04447815399225341 0.003184857364431081805 6.01339639434687090
0.004009497869034817086 7.58402551683064274 0.004009497869034817086 7.52465564173059942
0.005047658755856332391 9.50956639314287244 0.005047658755856332391 9.40477537073285319
0.006354625877790454069 11.91485848783566759 0.006354625877790454069 11.73844639620395114
0.008000000000009777068 14.91496545220054770 0.008000000000009777068 14.62724064589219530
0.010071403294361402914 18.65039451796251058 0.010071403294361402914 18.19171288358735339
0.012679145539692626699 23.29168660352907594 0.012679145539692626699 22.57308785283698072
0.015962098519750611558 29.04432350838499488 0.015962098519750611558 27.93414153061516458
0.020095091452091651263 36.15371284939479324 0.020095091452091651263 34.45845568965884809
0.025298221281360611101 44.90973583841664407 0.025298221281360611101 42.34727444281429598
0.031848573644296607199 55.65026131958360622 0.031848573644296607199 51.81281583794076084
0.040094978690191851456 68.76258049138540684 0.040094978690191851456 63.06631843103089352
0.050476587558435426217 84.68137082396280846 0.050476587558435426217 76.29943459131412453
0.063546258777947173257 103.88150159395242156 0.063546258777947173257 91.65745051198445026
0.080000000000012505552 126.86358797770158446 0.080000000000012505552 109.20370076554539196
0.100714032943542974863 154.13031604598123181 0.100714032943542974863 128.87408058766638419
0.126791455396883634421 186.15094777744013754 0.126791455396883634421 150.43047557309759554
0.159620985197506115583 223.31610174498700871 0.159620985197506115583 173.41142096847514154
0.200950914520774404082 265.87947274000561038 0.200950914520774404082 197.10823840747369218
0.252982212813464002465 313.90161465942520636 0.252982212813464002465 220.56911927717840172
0.318485736442809752589 367.19363926024800548 0.318485736442809752589 242.65716023705729754
0.400949786901833249431 425.28792693827801941 0.400949786901833249431 262.18738503950771701
0.504765875584169521062 487.44518752316645305 0.504765875584169521062 278.09576179765116422
0.635462587779443310865 552.70326239250050548 0.635462587779443310865 289.64725985839851319
0.800000000000011368684 619.97999550251199707 0.800000000000011368684 296.60682227055400517
1.007140329435344483500 688.20034954777759140 1.007140329435344483500 299.29050605188893996
1.267914553968907398485 756.42190689029985151 1.267914553968907398485 298.52096716017342715
1.596209851975117999245 823.93989821077423130 1.596209851975117999245 295.43764776871563527
2.009509145207687197399 890.32357402901209298 2.009509145207687197399 291.25573695491516446
2.529822128134725289783 955.40841948861600486 2.529822128134725289783 287.10467075824095673
3.184857364427983839050 1019.25602808859071047 3.184857364427983839050 283.81382958253408333
4.009497869018204596614 1082.04720109812865303 4.009497869018204596614 281.86884010307255721
5.009497869018190385759 1141.99228845189736603 5.009497869018190385759 281.43844162626231764
6.009497869018190385759 1190.56769383643791116 6.009497869018190385759 282.14617928769536093
7.009497869018204596614 1231.41997601823027253 7.009497869018204596614 283.43843075530446640
8.009497869018190385759 1266.66802314416395348 8.009497869018190385759 284.98768949997645450
9.009497869018204596614 1297.65302341494680149 9.009497869018204596614 286.65138988651222007
10.009497869018190385759 1325.27921990502113658 10.009497869018190385759 288.32847400150325257
11.009497869018190385759 1350.18651403694639157 11.009497869018190385759 289.89119683152591733
12.009497869018204596614 1372.84487215828880835 12.009497869018204596614 291.39333059471948673
13.009497869018190385759 1393.60861251865662780 13.009497869018190385759 292.82453135596847460
14.009497869018204596614 1412.75650590685654606 14.009497869018204596614 294.18114850915600300
15.009497869018190385759 1430.50798040575068626 15.009497869018190385759 295.47360278066895489
16.009497869018190385759 1447.04077021489797517 16.009497869018190385759 296.69355994527575149
17.009497869018204596614 1462.50062241524869933 17.009497869018204596614 297.82435111451962939
18.009497869018190385759 1477.00722004941258092 18.009497869018190385759 298.87879964065376726
19.009497869018204596614 1490.65987004535054439 19.009497869018204596614 299.82548985714703349
20.009497869018190385759 1503.54374482662888113 20.009497869018190385759 300.71961366765128787
21.009497869018190385759 1515.73138231984717095 21.009497869018190385759 301.56646412747409158
22.009497869018204596614 1527.28487305514295258 22.009497869018204596614 302.38275701005545670
23.009497869018190385759 1538.26393893578301686 23.009497869018190385759 303.18579091784482671
24.009497869018204596614 1548.71872109682362861 24.009497869018204596614 303.94779646215931734
25.009497869018204596614 1558.69216658026380173 25.009497869018204596614 304.68306005233836231
26.009497869018190385759 1568.22192981815646817 26.009497869018190385759 305.36540702927578650
27.009497869018204596614 1577.34235406659104228 27.009497869018204596614 305.99266361140860226
28.009497869018190385759 1586.08080722003637675 28.009497869018190385759 306.57507275952912096
29.009497869018190385759 1594.45976281493585702 29.009497869018190385759 307.12811701519643748
30.009497869018190385759 1602.50326906752320610 30.009497869018190385759 307.64948376974746225
31.009497869018218807469 1610.23501109063613512 31.009497869018218807469 308.12870252100043444
32.009497869018190385759 1617.67549281529454674 32.009497869018190385759 308.57852919813899462
33.009497869018190385759 1624.84325202926424936 33.009497869018190385759 309.03817486544329540
34.009497869018218807469 1631.75574950309601263 34.009497869018218807469 309.46981307472930212
35.009497869018190385759 1638.42778272185864807 35.009497869018190385759 309.88734486012572233
36.009497869018190385759 1644.87309256068533614 36.009497869018190385759 310.29537516900467153
37.009497869018190385759 1651.10443821345052129 37.009497869018190385759 310.68885563202661615
38.009497869018218807469 1657.13309554733541518 38.009497869018218807469 311.06780496397124125
39.009497869018190385759 1662.96964008696158999 39.009497869018190385759 311.42584076662808457
40.009497869018190385759 1668.62388900409814596 40.009497869018190385759 311.76105394132332549
41.009497869018218807469 1674.10506928034783414 41.009497869018218807469 312.09441779172823317
42.009497869018190385759 1679.42164206056668263 42.009497869018190385759 312.40987362240838365
43.009497869018190385759 1684.58146009176289226 43.009497869018190385759 312.71282799562470700
44.009497869018218807469 1689.59220482558316689 44.009497869018218807469 313.00069430200375109
46.009497869018190385759 1699.19420472978663383 46.009497869018190385759 313.54620140146863605
48.009497869018218807469 1708.27813923713301847 48.009497869018218807469 314.05740737316602917
50.009497869018190385759 1716.88779227496911517 50.009497869018190385759 314.53644750767068672
52.009497869018190385759 1725.06217490801714121 52.009497869018190385759 314.98734185785718864
54.009497869018218807469 1732.83593485871801931 54.009497869018218807469 315.41310679659608240
56.009497869018190385759 1740.24010361641990130 56.009497869018190385759 315.81223855052320459
58.009497869018218807469 1747.30213949022800080 58.009497869018218807469 316.18099737700470087
60.009497869018190385759 1754.04677817768924797 60.009497869018190385759 316.53543894878691844
62.009497869018190385759 1760.49629776565916472 62.009497869018190385759 316.87082929103416973
64.009497869018218807469 1766.67081871423170014 64.009497869018218807469 317.18742466263392998
66.009497869018190385759 1772.58852192609128906 66.009497869018190385759 317.47833492293676727
68.009497869018190385759 1778.26586038995151284 68.009497869018190385759 317.75112581284736279
70.009497869018190385759 1783.71806099163040926 70.009497869018190385759 318.01523839922958814
72.009497869018190385759 1788.95901652255497538 72.009497869018190385759 318.26454555456433582
74.009497869018218807469 1794.00142969018747863 74.009497869018218807469 318.50288479459868540
76.009497869018190385759 1798.85671457294688480 76.009497869018190385759 318.72944824793995622
78.009497869018190385759 1803.53533182580667926 78.009497869018190385759 318.94035530201415440
80.009497869018218807469 1808.04712567134924939 80.009497869018218807469 319.14947105022736196
82.009497869018190385759 1812.40156143889657869 82.009497869018190385759 319.35551190554116374
84.009497869018218807469 1816.60724938965427100 84.009497869018218807469 319.54739042852332886
86.009497869018190385759 1820.67212709938780790 86.009497869018190385759 319.73252591243391407
88.009497869018190385759 1824.60333323699114771 88.009497869018190385759 319.91149793192289508
91.009497869018218807469 1830.26399454130569211 91.009497869018218807469 320.17307550156846219
94.009497869018218807469 1835.65973034557532628 94.009497869018218807469 320.43549613308016433
97.009497869018218807469 1840.81000219952170482 97.009497869018218807469 320.72019541942211163
99.504748934509137825444 1844.91989039232316827 99.504748934509137825444 320.82493607653640311
nan nan nan nan

