Time Pressure difference Time.1 Pressure.1 difference.1
(hr) (psi) (hr) (psi)
0.000200000000020850166 0.34054490089974648 0.000200000000020850166 0.27187300453776297
0.000399999999999067768 0.68013068893952755 0.000399999999999067768 0.70796728754860316
0.000600000000019917934 1.01890177659965642 0.000600000000019917934 1.03411078048799432
0.000799999999998135536 1.35693030108418222 0.000799999999998135536 1.36512740491528284
0.001007140329434719206 1.70629637942583123 0.001007140329434719206 1.71156054201461205
0.001267914553977789183 2.14512484212045829 0.001267914553977789183 2.14932067471119748
0.001596209851982166583 2.69608213892728443 0.001596209851982166583 2.69773540880932128
0.002009509145224797066 3.38745738525217188 0.002009509145224797066 3.38412527259609419
0.002529822128153114136 4.25449700966817268 0.002529822128153114136 4.24223130705051510
0.003184857364431081805 5.34102595503625821 0.003184857364431081805 5.31356146914270955
0.004009497869034817086 6.70140185754431794 0.004009497869034817086 6.64894140756367591
0.005047658755856332391 8.40284961463055424 0.005047658755856332391 8.31025409913894464
0.006354625877790454069 10.52821547416513859 0.006354625877790454069 10.37233410009400814
0.008000000000009777068 13.17917205905651912 0.008000000000009777068 12.92493246727543088
0.010071403294361402914 16.47987446630308028 0.010071403294361402914 16.07457388420434441
0.012679145539692626699 20.58101617984249998 0.012679145539692626699 19.94604745617060715
0.015962098519750611558 25.66416516904708800 0.015962098519750611558 24.68318540420736440
0.020095091452091651263 31.94616868157729783 0.020095091452091651263 30.44820438094854964
0.025298221281360611101 39.68317175377332973 0.025298221281360611101 37.41892784817642337
0.031848573644296607199 49.17372228670102885 0.031848573644296607199 45.78287606369765683
0.040094978690191851456 60.76003879626728832 0.040094978690191851456 55.72670378604022545
0.050476587558435426217 74.82621128841542202 0.050476587558435426217 67.41975901387671399
0.063546258777947173257 91.79184408086312885 0.063546258777947173257 80.99041963343454142
0.080000000000012505552 112.09929110098632066 0.080000000000012505552 96.49464938334830322
0.100714032943542974863 136.19273616131962967 0.100714032943542974863 113.87580396755002710
0.126791455396883634421 164.48682885506562457 0.126791455396883634421 132.92348057105607495
0.159620985197506115583 197.32672783501010372 0.159620985197506115583 153.22991939024743147
0.200950914520774404082 234.93660306767742441 0.200950914520774404082 174.16891755832804733
0.252982212813464002465 277.36996122923352459 0.252982212813464002465 194.89943729233436898
0.318485736442809752589 324.45989676013289227 0.318485736442809752589 214.41688727843424545
0.400949786901833249431 375.79321130321977762 0.400949786901833249431 231.67419798749608617
0.504765875584169521062 430.71665276831515712 0.504765875584169521062 245.73116882982102993
0.635462587779443310865 488.38003788992494947 0.635462587779443310865 255.93831151280900826
0.800000000000011368684 547.82715119834040252 0.800000000000011368684 262.08792485113605153
1.007140329435344483500 608.10806748833806523 1.007140329435344483500 264.45928336481563292
1.267914553968907398485 668.39004703668740603 1.267914553968907398485 263.77930287860152703
1.596209851975117999245 728.05034109141695353 1.596209851975117999245 261.05481807149436690
2.009509145207687197399 786.70833049977363771 2.009509145207687197399 257.35959515412764631
2.529822128134725289783 844.21864653088914565 2.529822128134725289783 253.69162717861806300
3.184857364427983839050 900.63571447483241172 3.184857364427983839050 250.78377182939428280
4.009497869018204596614 956.11929407377749612 4.009497869018204596614 249.06513888418052716
5.009497869018190385759 1009.08801350275405184 5.009497869018190385759 248.68482988527492239
6.009497869018190385759 1052.01024670892138602 6.009497869018190385759 249.31020152576530791
7.009497869018204596614 1088.10816846438478933 7.009497869018204596614 250.45206165878195748
8.009497869018190385759 1119.25407217480005784 8.009497869018190385759 251.82101873920333901
9.009497869018204596614 1146.63305948303491277 9.009497869018204596614 253.29109882213361971
10.009497869018190385759 1171.04413827814369142 10.009497869018190385759 254.77300504443178397
11.009497869018190385759 1193.05273869643974649 11.009497869018190385759 256.15385926923619309
12.009497869018204596614 1213.07413272607436738 12.009497869018204596614 257.48117574102366234
13.009497869018190385759 1231.42140330312327023 13.009497869018190385759 258.74581434471349439
14.009497869018204596614 1248.34087806424804512 14.009497869018204596614 259.94454932921115642
15.009497869018190385759 1264.02644820335740405 15.009497869018190385759 261.08658866395319365
16.009497869018190385759 1278.63516333643997314 16.009497869018190385759 262.16456805509278638
17.009497869018204596614 1292.29580859968109507 17.009497869018204596614 263.16375852791605894
18.009497869018190385759 1305.11413840573095513 18.009497869018190385759 264.09549106178457123
19.009497869018204596614 1317.17790241076227176 19.009497869018204596614 264.93200612377216885
20.009497869018190385759 1328.56236073042623502 20.009497869018190385759 265.72207242184703091
21.009497869018190385759 1339.33160937745105912 21.009497869018190385759 266.47036700919045416
22.009497869018204596614 1349.54051282889804497 22.009497869018204596614 267.19166028905760868
23.009497869018190385759 1359.24184259411845233 23.009497869018190385759 267.90123766447493381
24.009497869018204596614 1368.47990441745196222 24.009497869018204596614 268.57456152906320312
25.009497869018204596614 1377.29264719376760695 25.009497869018204596614 269.22425564969552170
26.009497869018190385759 1385.71334315828471517 26.009497869018190385759 269.82719155604115713
27.009497869018204596614 1393.77233872263445846 27.009497869018204596614 270.38144844973601266
28.009497869018190385759 1401.49381672460117443 28.009497869018190385759 270.89607722285978753
29.009497869018190385759 1408.89763524595605304 29.009497869018190385759 271.38475856946240583
30.009497869018190385759 1416.00504378811319839 30.009497869018190385759 271.84544902068205374
31.009497869018218807469 1422.83697100681206393 31.009497869018218807469 272.26889662415987914
32.009497869018190385759 1429.41153459972133533 32.009497869018190385759 272.66637278283832302
33.009497869018190385759 1435.74511493965155751 33.009497869018190385759 273.07252520437879184
34.009497869018218807469 1441.85314072471851432 34.009497869018218807469 273.45392965654957607
35.009497869018190385759 1447.74868731888386719 35.009497869018190385759 273.82286938071450777
36.009497869018190385759 1453.44389644370903625 36.009497869018190385759 274.18341340364639791
37.009497869018190385759 1458.95004238688511577 37.009497869018190385759 274.53110088174764769
38.009497869018218807469 1464.27708873794722422 38.009497869018218807469 274.86594835178493668
39.009497869018190385759 1469.43438024925490026 39.009497869018190385759 275.18231619464978621
40.009497869018190385759 1474.43059157689685890 40.009497869018190385759 275.47851749125555898
41.009497869018218807469 1479.27387587272119163 41.009497869018218807469 275.77308468665637520
42.009497869018190385759 1483.97170957938010361 42.009497869018190385759 276.05182798531774324
43.009497869018190385759 1488.53103154660084328 43.009497869018190385759 276.31952473751317712
44.009497869018218807469 1492.95862926398513082 44.009497869018218807469 276.57388936168433702
46.009497869018190385759 1501.44315504140627127 46.009497869018190385759 277.05591072112525808
48.009497869018218807469 1509.46990751556995747 48.009497869018218807469 277.50762289439245478
50.009497869018190385759 1517.07757507055453061 50.009497869018190385759 277.93091266841594233
52.009497869018190385759 1524.30062869027369743 52.009497869018190385759 278.32933224508934700
54.009497869018218807469 1531.16968381912602126 54.009497869018218807469 278.70554695388875643
56.009497869018190385759 1537.71216052312979627 56.009497869018190385759 279.05822802955714224
58.009497869018218807469 1543.95232153231336270 58.009497869018218807469 279.38407095812914349
60.009497869018190385759 1549.91202382080291500 60.009497869018190385759 279.69726286422985595
62.009497869018190385759 1555.61095276706964796 62.009497869018190385759 279.99362070975001870
64.009497869018218807469 1561.06688722593753482 64.009497869018218807469 280.27337093034464033
66.009497869018190385759 1566.29589221917558461 66.009497869018190385759 280.53042525518117145
68.009497869018190385759 1571.31250594801758780 68.009497869018190385759 280.77146892945563650
70.009497869018190385759 1576.13018320381138437 70.009497869018190385759 281.00484427518131270
72.009497869018190385759 1580.76119994449913975 72.009497869018190385759 281.22513723571415767
74.009497869018218807469 1585.21678054520862133 74.009497869018218807469 281.43573871936524711
76.009497869018190385759 1589.50701072178503637 76.009497869018190385759 281.63593487425731610
78.009497869018190385759 1593.64113372538940894 78.009497869018190385759 281.82229671083149469
80.009497869018218807469 1597.62784811476990399 80.009497869018218807469 282.00707571248540262
82.009497869018190385759 1601.47551765074899777 82.009497869018190385759 282.18913767515493873
84.009497869018218807469 1605.19175053827211741 84.009497869018218807469 282.35868550796243426
86.009497869018190385759 1608.78356058351073443 86.009497869018190385759 282.52227505193513935
88.009497869018190385759 1612.25725566199662353 88.009497869018190385759 282.68041843122500723
91.009497869018218807469 1617.25913310761916364 91.009497869018218807469 282.91155378371354345
94.009497869018218807469 1622.02691690018514237 94.009497869018218807469 283.14343408310958239
97.009497869018218807469 1626.57780366768065505 97.009497869018218807469 283.39500026285145395
99.504748934509137825444 1630.20938590700939130 99.504748934509137825444 283.48755127452568559
nan nan nan nan

