Time Pressure difference Time.1 Pressure.1 difference.1
(hr) (psi) (hr) (psi)
0.000200000000020850166 0.29486204834002439 0.000200000000020850166 0.23540223563635573
0.000399999999999067768 0.58889364530129829 0.000399999999999067768 0.61299606604818069
0.000600000000019917934 0.88221983095823908 0.000600000000019917934 0.89538860261765352
0.000799999999998135536 1.17490306557288959 0.000799999999998135536 1.18200055791445235
0.001007140329434719206 1.47740296267358562 0.001007140329434719206 1.48196095711021303
0.001267914553977789183 1.85736419256771379 0.001267914553977789183 1.86099716956701222
0.001596209851982166583 2.33441258370533156 0.001596209851982166583 2.33584407348124179
0.002009509145224797066 2.93304237015736824 0.002009509145224797066 2.93015724822344792
0.002529822128153114136 3.68377180105414936 0.002529822128153114136 3.67315149756812920
0.003184857364431081805 4.62454686350700417 0.003184857364431081805 4.60076663791624885
0.004009497869034817086 5.80243331567861720 0.004009497869034817086 5.75701024313440257
0.005047658755856332391 7.27563808096060249 0.005047658755856332391 7.19546391510810945
0.006354625877790454069 9.11589388616737573 0.006354625877790454069 8.98092342813017730
0.008000000000009777068 11.41123434381722923 0.008000000000009777068 11.19110006312872763
0.010071403294361402914 14.26915959887218044 0.010071403294361402914 13.91822860705498144
0.012679145539692626699 17.82014815571728761 0.012679145539692626699 17.27035816326967321
0.015962098519750611558 22.22141130490662420 0.015962098519750611558 21.37202638656979303
0.020095091452091651263 27.66070702917058455 0.020095091452091651263 26.36368915911398858
0.025298221281360611101 34.35981944534032095 0.025298221281360611101 32.39931557586007216
0.031848573644296607199 42.57724734580210679 0.031848573644296607199 39.64127073807967605
0.040094978690191851456 52.60930188457289347 0.040094978690191851456 48.25117035132751653
0.050476587558435426217 64.78854879850602799 0.050476587558435426217 58.37564499982007504
0.063546258777947173257 79.47830402123514659 0.063546258777947173257 70.12585114602258329
0.080000000000012505552 97.06158131914669696 0.080000000000012505552 83.55024519777718695
0.100714032943542974863 117.92297887138650481 0.100714032943542974863 98.59978148409820164
0.126791455396883634421 142.42152254523975330 0.126791455396883634421 115.09228195786560889
0.159620985197506115583 170.85606922299655253 0.159620985197506115583 132.67468630131179452
0.200950914520774404082 203.42071729030604388 0.200950914520774404082 150.80479447123525460
0.252982212813464002465 240.16179569848264919 0.252982212813464002465 168.75439082628949450
0.318485736442809752589 280.93478865816388179 0.318485736442809752589 185.65364630205891672
0.400949786901833249431 325.38192686010489751 0.400949786901833249431 200.59595191600266162
0.504765875584169521062 372.93758959207775661 0.504765875584169521062 212.76723154777187119
0.635462587779443310865 422.86564256322770916 0.635462587779443310865 221.60512338304195623
0.800000000000011368684 474.33814311075815340 0.800000000000011368684 226.92978859061781804
1.007140329435344483500 526.53259502039020390 1.007140329435344483500 228.98303803538914281
1.267914553968907398485 578.72796755615604525 1.267914553968907398485 228.39427444366720010
1.596209851975117999245 630.38505143281224719 1.596209851975117999245 226.03526930580613907
2.009509145207687197399 681.17428616443805822 2.009509145207687197399 222.83574702369588749
2.529822128134725289783 730.96980370357471202 2.529822128134725289783 219.65982353270587168
3.184857364427983839050 779.81872838674519244 3.184857364427983839050 217.14204634008530093
4.009497869018204596614 827.85938877119758672 4.009497869018204596614 215.65396171679046233
5.009497869018190385759 873.72254827677488720 5.009497869018190385759 215.32466977871362701
6.009497869018190385759 910.88692093089537138 6.009497869018190385759 215.86615010157728989
7.009497869018204596614 942.14243854843061854 7.009497869018204596614 216.85483387528682897
8.009497869018190385759 969.11023322452194861 8.009497869018190385759 218.04015037174923464
9.009497869018204596614 992.81642955238396553 9.009497869018204596614 219.31302458989614479
10.009497869018190385759 1013.95285143595367572 10.009497869018190385759 220.59613851408118990
11.009497869018190385759 1033.00907862740496057 11.009497869018190385759 221.79175619653381091
12.009497869018204596614 1050.34467589696669165 12.009497869018204596614 222.94101801966684206
13.009497869018190385759 1066.23072725026531771 13.009497869018190385759 224.03600998139827993
14.009497869018204596614 1080.88051637270268657 14.009497869018204596614 225.07393905334134843
15.009497869018190385759 1094.46192466388265530 15.009497869018190385759 226.06277798952041280
16.009497869018190385759 1107.11093410838111595 16.009497869018190385759 226.99615038916573440
17.009497869018204596614 1118.93905378752856450 17.009497869018204596614 227.86130311563462669
18.009497869018190385759 1130.03785154642559974 18.009497869018190385759 228.66804713886222089
19.009497869018204596614 1140.48330574590386277 19.009497869018204596614 229.39234676570515603
20.009497869018190385759 1150.34058063244242476 20.009497869018190385759 230.07642856037975321
21.009497869018190385759 1159.66517397315874405 21.009497869018190385759 230.72434216649418204
22.009497869018204596614 1168.50459037624068515 22.009497869018204596614 231.34887659174503938
23.009497869018190385759 1176.90452224612681675 23.009497869018190385759 231.96326675826489350
24.009497869018204596614 1184.90333187364740297 24.009497869018204596614 232.54626668979861392
25.009497869018204596614 1192.53387744826227390 25.009497869018204596614 233.10880672107782630
26.009497869018190385759 1199.82496785656348948 26.009497869018190385759 233.63086098145024039
27.009497869018204596614 1206.80287865008585868 27.009497869018204596614 234.11076634062510493
28.009497869018190385759 1213.48854862739858618 28.009497869018190385759 234.55635954662253084
29.009497869018190385759 1219.89917198125476716 29.009497869018190385759 234.97948607843693480
30.009497869018190385759 1226.05314767019558531 30.009497869018190385759 235.37837659107833588
31.009497869018218807469 1231.96859684736182317 31.009497869018218807469 235.74502024774821507
32.009497869018190385759 1237.66120678756374218 32.009497869018190385759 236.08917643392098284
33.009497869018190385759 1243.14516049652775109 33.009497869018190385759 236.44084499403527388
34.009497869018218807469 1248.43381696896381072 34.009497869018218807469 236.77108543432950682
35.009497869018190385759 1253.53849755659439325 35.009497869018190385759 237.09053324427722487
36.009497869018190385759 1258.46971521345517431 36.009497869018190385759 237.40271160559626651
37.009497869018190385759 1263.23723182279059074 37.009497869018190385759 237.70375808053756828
38.009497869018218807469 1267.84967439505180664 38.009497869018218807469 237.99368698752110163
39.009497869018190385759 1272.31513411825721960 39.009497869018190385759 238.26761524170899520
40.009497869018190385759 1276.64112197511803970 40.009497869018190385759 238.52408221803835886
41.009497869018218807469 1280.83469740199029729 41.009497869018218807469 238.77913430186103483
42.009497869018190385759 1284.90233390409730418 42.009497869018190385759 239.02048520679949206
43.009497869018190385759 1288.85003950986174459 43.009497869018190385759 239.25227141906631800
44.009497869018218807469 1292.68369119198723638 44.009497869018218807469 239.47251395950715391
46.009497869018190385759 1300.03004887731503914 46.009497869018190385759 239.88987391707189545
48.009497869018218807469 1306.98004187323749647 48.009497869018218807469 240.28099055490076807
50.009497869018190385759 1313.56716865865087129 50.009497869018190385759 240.64749755436011469
52.009497869018190385759 1319.82127606109065709 52.009497869018190385759 240.99247060245539842
54.009497869018218807469 1325.76887257509679330 54.009497869018218807469 241.31821748446463971
56.009497869018190385759 1331.43369996514888953 56.009497869018190385759 241.62358768412872223
58.009497869018218807469 1336.83676620480787278 58.009497869018218807469 241.90571997594111053
60.009497869018190385759 1341.99699623508536206 60.009497869018190385759 242.17689833366239327
62.009497869018190385759 1346.93143471295047675 62.009497869018190385759 242.43350085844207342
64.009497869018218807469 1351.65547552489715599 64.009497869018218807469 242.67572361042036277
66.009497869018190385759 1356.18302862879818349 66.009497869018190385759 242.89829503802278055
68.009497869018190385759 1360.52668197938101002 68.009497869018190385759 243.10700358526040077
70.009497869018190385759 1364.69808545695877910 70.009497869018190385759 243.30907248216917083
72.009497869018190385759 1368.70786824462720688 72.009497869018190385759 243.49981394799644363
74.009497869018218807469 1372.56574900865643940 74.009497869018218807469 243.68216401310891683
76.009497869018190385759 1376.28046050300895331 76.009497869018190385759 243.85550458624720704
78.009497869018190385759 1379.86000603052002589 78.009497869018190385759 244.01686666425649719
80.009497869018218807469 1383.31191727010559589 80.009497869018218807469 244.17685823885926766
82.009497869018190385759 1386.64343601467294320 82.009497869018190385759 244.33449725531707486
84.009497869018218807469 1389.86114985630888441 84.009497869018218807469 244.48130086665042882
86.009497869018190385759 1392.97113172474723797 86.009497869018190385759 244.62294547179749316
88.009497869018190385759 1395.97884331709451544 88.009497869018190385759 244.75987449532894402
91.009497869018218807469 1400.30973720293854967 91.009497869018218807469 244.96000388589831687
94.009497869018218807469 1404.43794024284329680 94.009497869018218807469 245.16077829147295120
97.009497869018218807469 1408.37834220006493524 97.009497869018218807469 245.37859778856650905
99.504748934509137825444 1411.52276096826449248 99.504748934509137825444 245.45873342062589018
nan nan nan nan

