Time Pressure difference Time.1 Pressure.1 difference.1
(hr) (psi) (hr) (psi)
0.000200000000020850166 0.22675306816007509 0.000200000000020850166 0.18102763472880312
0.000399999999999067768 0.45286750751339272 0.000399999999999067768 0.47140260853846011
0.000600000000019917934 0.67843947563830787 0.000600000000019917934 0.68856644652005461
0.000799999999998135536 0.90351700535605306 0.000799999999998135536 0.90897507693139568
0.001007140329434719206 1.13614368678841937 0.001007140329434719206 1.13964884870729044
0.001267914553977789183 1.42833922414362213 0.001267914553977789183 1.43113303462477282
0.001596209851982166583 1.79519615591987480 0.001596209851982166583 1.79629699171937762
0.002009509145224797066 2.25555089310693369 0.002009509145224797066 2.25333219370422855
0.002529822128153114136 2.83287239912051492 0.002529822128153114136 2.82470523615802582
0.003184857364431081805 3.55634167249975297 0.003184857364431081805 3.53805434408770658
0.004009497869034817086 4.46215294416975361 0.004009497869034817086 4.42722196162166703
0.005047658755856332391 5.59506815803449165 0.005047658755856332391 5.53341309528032088
0.006354625877790454069 7.01025079133434836 0.006354625877790454069 6.90645660811137674
0.008000000000009777068 8.77539993200592505 0.008000000000009777068 8.60611356967364038
0.010071403294361402914 10.97318470561156367 0.010071403294361402914 10.70331383021411042
0.012679145539692626699 13.70394491974878726 0.012679145539692626699 13.28114867203555072
0.015962098519750611558 17.08857827109720873 0.015962098519750611558 16.43538930572831802
0.020095091452091651263 21.27147329285512711 0.020095091452091651263 20.27404828292428007
0.025298221281360611101 26.42318509458565501 0.025298221281360611101 24.91553000622478820
0.031848573644296607199 32.74250288846190671 0.031848573644296607199 30.48469552534014682
0.040094978690191851456 40.45729412531942870 0.040094978690191851456 37.10582959411947002
0.050476587558435426217 49.82330654082294785 0.050476587558435426217 44.89169319704473793
0.063546258777947173257 61.11993520506251798 0.063546258777947173257 53.92776721933567785
0.080000000000012505552 74.64172309894942714 0.080000000000012505552 64.25131532110752630
0.100714032943542974863 90.68443163912257887 0.100714032943542974863 75.82462069058819054
0.126791455396883634421 109.52415677422663975 0.126791455396883634421 88.50758584365439674
0.159620985197506115583 131.39072365599452041 0.159620985197506115583 102.02870242326231676
0.200950914520774404082 156.43339667677057037 0.200950914520774404082 115.97101095956963945
0.252982212813464002465 184.68780345263596132 0.252982212813464002465 129.77450336782263207
0.318485736442809752589 216.04280930613728628 0.318485736442809752589 142.77026884637209037
0.400949786901833249431 250.22328459946098178 0.400949786901833249431 154.26111231850347849
0.504765875584169521062 286.79425903841467971 0.504765875584169521062 163.62099778180768794
0.635462587779443310865 325.18963498524277611 0.635462587779443310865 170.41746108048016595
0.800000000000011368684 364.77271287109005016 0.800000000000011368684 174.51220362039057932
1.007140329435344483500 404.91098152272263633 1.007140329435344483500 176.09118136242599917
1.267914553968907398485 445.04995814881863225 1.267914553968907398485 175.63841386794689470
1.596209851975117999245 484.77498321452884511 1.596209851975117999245 173.82430569150722022
2.009509145207687197399 523.83262006448342163 2.009509145207687197399 171.36382799287034118
2.529822128134725289783 562.12607439739690562 2.529822128134725289783 168.92149809698224772
3.184857364427983839050 599.69158549177859641 3.184857364427983839050 166.98529197420646142
4.009497869018204596614 636.63552995644215571 4.009497869018204596614 165.84093393995433985
5.009497869018190385759 671.90494557622400862 5.009497869018190385759 165.58770380165861980
6.009497869018190385759 700.48487158911109418 6.009497869018190385759 166.00410979642421694
7.009497869018204596614 724.52080485555359246 7.009497869018204596614 166.76442154353043179
8.009497869018190385759 745.25941878956211895 8.009497869018190385759 167.67594662390854410
9.009497869018204596614 763.48981765577696024 9.009497869018204596614 168.65480482546945495
10.009497869018190385759 779.74402378032493743 10.009497869018190385759 169.64153750519483310
11.009497869018190385759 794.39853088811719317 11.009497869018190385759 170.56098434268656661
12.009497869018204596614 807.72984935175190913 12.009497869018204596614 171.44478287146210960
13.009497869018190385759 819.94644658964057271 13.009497869018190385759 172.28684711245560379
14.009497869018204596614 831.21234075985307754 14.009497869018204596614 173.08502918749911714
15.009497869018190385759 841.65663502321115175 15.009497869018190385759 173.84546025672977976
16.009497869018190385759 851.38390144109303037 16.009497869018190385759 174.56323677814714301
17.009497869018204596614 860.47989206759245917 17.009497869018204596614 175.22855141005140922
18.009497869018190385759 869.01502386527943145 18.009497869018190385759 175.84894892650532938
19.009497869018204596614 877.04772526375143116 19.009497869018204596614 176.40594554095073931
20.009497869018190385759 884.62810848635706407 20.009497869018190385759 176.93201407601034703
21.009497869018190385759 891.79885209766860044 21.009497869018190385759 177.43026876465609121
22.009497869018204596614 898.59648781046132626 22.009497869018204596614 177.91054453393348922
23.009497869018190385759 905.05615372730335366 23.009497869018190385759 178.38301922536990674
24.009497869018204596614 911.20735099015701053 24.009497869018204596614 178.83135438398596762
25.009497869018204596614 917.07534800950861609 25.009497869018204596614 179.26395559113871059
26.009497869018190385759 922.68229922490661465 26.009497869018190385759 179.66542267024200896
27.009497869018204596614 928.04841090555896699 27.009497869018204596614 180.03447665067790240
28.009497869018190385759 933.18978528247828308 28.009497869018190385759 180.37714410205055060
29.009497869018190385759 938.11964493206346560 29.009497869018190385759 180.70253436454444795
30.009497869018190385759 942.85213891257285468 30.009497869018190385759 181.00928678694191376
31.009497869018218807469 947.40120264599943312 31.009497869018218807469 181.29124092291621650
32.009497869018190385759 951.77889986761942964 32.009497869018190385759 181.55590187735333529
33.009497869018190385759 955.99613750859725769 33.009497869018190385759 181.82633995315950415
34.009497869018218807469 960.06318882401990322 34.009497869018218807469 182.08029950301960298
35.009497869018190385759 963.98876009281775623 35.009497869018190385759 182.32595936813430626
36.009497869018190385759 967.78093592471350348 36.009497869018190385759 182.56602892486696987
37.009497869018190385759 971.44722334541381770 37.009497869018190385759 182.79753790418806147
38.009497869018218807469 974.99425664746240727 38.009497869018218807469 183.02049731716414271
39.009497869018190385759 978.42825806840619407 39.009497869018190385759 183.23115200277902659
40.009497869018190385759 981.75500365973869066 40.009497869018190385759 183.42837871978724706
41.009497869018218807469 984.97992222744608171 41.009497869018218807469 183.62451736452973705
42.009497869018190385759 988.10799198822132894 42.009497869018190385759 183.81011960973594910
43.009497869018190385759 991.14383320054173510 43.009497869018190385759 183.98836647156369395
44.009497869018218807469 994.09196533919009653 44.009497869018218807469 184.15773608717029219
46.009497869018190385759 999.74141786903385309 46.009497869018190385759 184.47869177284681541
48.009497869018218807469 1005.08606037012350498 48.009497869018218807469 184.77946597602229417
50.009497869018190385759 1010.15165364454003338 50.009497869018190385759 185.06131502067694328
52.009497869018190385759 1014.96115032303600856 52.009497869018190385759 185.32660415343752902
54.009497869018218807469 1019.53493581127168000 54.009497869018218807469 185.57710809368688842
56.009497869018190385759 1023.89126786052304396 56.009497869018190385759 185.81194207821732789
58.009497869018218807469 1028.04630189834529119 58.009497869018218807469 186.02890578431527047
60.009497869018190385759 1032.01459147092487001 60.009497869018190385759 186.23744576081642776
62.009497869018190385759 1035.80924415953654716 62.009497869018190385759 186.43477671649208105
64.009497869018218807469 1039.44209807970946713 64.009497869018218807469 186.62104942435144039
66.009497869018190385759 1042.92385018496315752 66.009497869018190385759 186.79220998698650646
68.009497869018190385759 1046.26418078977758341 68.009497869018190385759 186.95270979936924505
70.009497869018190385759 1049.47204881619632033 70.009497869018190385759 187.10810362713291966
72.009497869018190385759 1052.55562825572724250 72.009497869018190385759 187.25478650085358368
74.009497869018218807469 1055.52239289961471513 74.009497869018218807469 187.39501626923583899
76.009497869018190385759 1058.37905835865217341 76.009497869018190385759 187.52831761139569267
78.009497869018190385759 1061.13177928544223505 78.009497869018190385759 187.65240732209022667
80.009497869018218807469 1063.78634764715161509 80.009497869018218807469 187.77544309636220987
82.009497869018190385759 1066.34833248452309817 82.009497869018190385759 187.89666972028609848
84.009497869018218807469 1068.82279974865446093 84.009497869018218807469 188.00956376505791923
86.009497869018190385759 1071.21441960804486371 86.009497869018190385759 188.11849046141048802
88.009497869018190385759 1073.52739218469537263 88.009497869018190385759 188.22379080908396531
91.009497869018218807469 1076.85791058141467147 91.009497869018218807469 188.37769312915560249
94.009497869018218807469 1080.03255686280613190 94.009497869018218807469 188.53209147485102903
97.009497869018218807469 1083.06278146652880423 97.009497869018218807469 188.69959773599617847
99.504748934509137825444 1085.48088378686247779 99.504748934509137825444 188.76122316572076443
nan nan nan nan

