Time Pressure difference Time.1 Pressure.1 difference.1
(hr) (psi) (hr) (psi)
0.000200000000020850166 0.62294798945075569 0.000200000000020850166 0.49732866683737126
0.000399999999999067768 1.24414150415767222 0.000399999999999067768 1.29506211136939586
0.000600000000019917934 1.86384471329205459 0.000600000000019917934 1.89166606186828190
0.000799999999998135536 2.48218957515399152 0.000799999999998135536 2.49718427728405423
0.001007140329434719206 3.12127386480334978 0.001007140329434719206 3.13090343051453424
0.001267914553977789183 3.92400885753742390 0.001267914553977789183 3.93168416105706831
0.001596209851982166583 4.93185757120844759 0.001596209851982166583 4.93488184538290486
0.002009509145224797066 6.19656838765641105 0.002009509145224797066 6.19047305962700189
0.002529822128153114136 7.78261648110031601 0.002529822128153114136 7.76017922021435691
0.003184857364431081805 9.77016942994437443 0.003184857364431081805 9.71992951672446814
0.004009497869034817086 12.25866193453228981 0.004009497869034817086 12.16269769676282131
0.005047658755856332391 15.37106636822662509 0.005047658755856332391 15.20168432769319011
0.006354625877790454069 19.25893074542403482 0.006354625877790454069 18.97378189041587149
0.008000000000009777068 24.10824157144485014 0.008000000000009777068 23.64316914745505471
0.010071403294361402914 30.14611182860319616 0.010071403294361402914 29.40470832476404439
0.012679145539692626699 37.64820032898018098 0.012679145539692626699 36.48667217592183931
0.015962098519750611558 46.94664360191540453 0.015962098519750611558 45.15216842233055417
0.020095091452091651263 58.43811344190968526 0.020095091452091651263 55.69793484319856702
0.025298221281360611101 72.59116784226829111 0.025298221281360611101 68.44925825885930237
0.031848573644296607199 89.95193101225797250 0.031848573644296607199 83.74916353115425238
0.040094978690191851456 111.14641243219624300 0.040094978690191851456 101.93909229153699414
0.050476587558435426217 136.87721577149162044 0.050476587558435426217 123.32882746440860444
0.063546258777947173257 167.91190990401790373 0.063546258777947173257 148.15320664652659843
0.080000000000012505552 205.05967884326767603 0.080000000000012505552 176.51460253051516247
0.100714032943542974863 249.13305395363346406 0.100714032943542974863 208.30939750161590496
0.126791455396883634421 300.89054058853469087 0.126791455396883634421 243.15270836168789970
0.159620985197506115583 360.96352652745747491 0.159620985197506115583 280.29863303094043658
0.200950914520774404082 429.76207878233668680 0.200950914520774404082 318.60167846035619732
0.252982212813464002465 507.38407541932957656 0.252982212813464002465 356.52336090061163532
0.318485736442809752589 593.52420139048706460 0.318485736442809752589 392.22601331420901261
0.400949786901833249431 687.42660604247521405 0.400949786901833249431 423.79426461127326320
0.504765875584169521062 787.89631603960083339 0.504765875584169521062 449.50823566430682376
0.635462587779443310865 893.37811809132631424 0.635462587779443310865 468.17983813318727471
0.800000000000011368684 1002.12283755793987439 0.800000000000011368684 479.42913082524893298
1.007140329435344483500 1112.39280638110608379 1.007140329435344483500 483.76698176490663172
1.267914553968907398485 1222.66472018906210906 1.267914553968907398485 482.52311502183209768
1.596209851975117999245 1331.79940443551868157 1.596209851975117999245 477.53930135029457915
2.009509145207687197399 1439.10060457275653789 2.009509145207687197399 470.77974723316026484
2.529822128134725289783 1544.30240219065080964 2.529822128134725289783 464.07004971698427198
3.184857364427983839050 1647.50435574664447813 3.184857364427983839050 458.75080212694081183
4.009497869018204596614 1748.99870867154413645 4.009497869018204596614 455.60696137350100798
5.009497869018190385759 1845.89270762698924955 5.009497869018190385759 454.91127418038087171
6.009497869018190385759 1924.40898788217327819 6.009497869018190385759 456.05524669347312283
7.009497869018204596614 1990.44177158119123305 7.009497869018204596614 458.14401522947918011
8.009497869018190385759 2047.41598568560971216 8.009497869018190385759 460.64820501073779724
9.009497869018204596614 2097.49949905433186359 9.009497869018204596614 463.33737589414681679
10.009497869018190385759 2142.15391148440949109 10.009497869018190385759 466.04817995932643271
11.009497869018190385759 2182.41354639592600506 11.009497869018190385759 468.57413280957848656
12.009497869018204596614 2219.03804766964822193 12.009497869018204596614 471.00215074577499763
13.009497869018190385759 2252.60012799351807189 13.009497869018190385759 473.31551404520769211
14.009497869018204596614 2283.55038670289332003 14.009497869018204596614 475.50832194367887951
15.009497869018190385759 2312.24350281101942528 15.009497869018190385759 477.59741828771922201
16.009497869018190385759 2338.96676220080507846 16.009497869018190385759 479.56933180809659234
17.009497869018204596614 2363.95574743844099430 17.009497869018204596614 481.39711925838298612
18.009497869018190385759 2387.40391171780083823 18.009497869018190385759 483.10150803984976164
19.009497869018204596614 2409.47177270261408921 19.009497869018204596614 484.63171851909544330
20.009497869018190385759 2430.29700133614551305 20.009497869018190385759 486.07696174728118876
21.009497869018190385759 2449.99684642216652719 21.009497869018190385759 487.44579330949477480
22.009497869018204596614 2468.67166980895990491 22.009497869018204596614 488.76523223608103308
23.009497869018190385759 2486.41800474533874876 23.009497869018190385759 490.06323963013710454
24.009497869018204596614 2503.31689832460688194 24.009497869018204596614 491.29492962633503339
25.009497869018204596614 2519.43776925689189738 25.009497869018204596614 492.48339448115029882
26.009497869018190385759 2534.84148138710588682 26.009497869018190385759 493.58632601714839439
27.009497869018204596614 2549.58354644384326093 27.009497869018204596614 494.60021057878543616
28.009497869018190385759 2563.70820132548988113 28.009497869018190385759 495.54160467596301487
29.009497869018190385759 2577.25177179138336214 29.009497869018190385759 496.43553396852877313
30.009497869018190385759 2590.25312888069493056 30.009497869018190385759 497.27826040368665872
31.009497869018218807469 2602.75055671977816019 31.009497869018218807469 498.05285967834123539
32.009497869018190385759 2614.77719743851503154 32.009497869018190385759 498.77995021250916352
33.009497869018190385759 2626.36301513350917958 33.009497869018190385759 499.52291195922947509
34.009497869018218807469 2637.53623303302174463 34.009497869018218807469 500.22060303027370765
35.009497869018190385759 2648.32076948576332143 35.009497869018190385759 500.89549276959968438
36.009497869018190385759 2658.73883495800373566 36.009497869018190385759 501.55502451886530935
37.009497869018190385759 2668.81105314674096007 37.009497869018190385759 502.19103819831883584
38.009497869018218807469 2678.55565013039131372 38.009497869018218807469 502.80356405814325171
39.009497869018190385759 2687.98971996814907470 39.009497869018190385759 503.38228572192042520
40.009497869018190385759 2697.12913093334782388 40.009497869018190385759 503.92411736205286843
41.009497869018218807469 2705.98879732814839372 41.009497869018218807469 504.46295979266415088
42.009497869018190385759 2714.58239557203660297 42.009497869018190385759 504.97285607070318747
43.009497869018190385759 2722.92261868280684212 43.009497869018190385759 505.46254525154859039
44.009497869018218807469 2731.02188279997290010 44.009497869018218807469 505.92784639332495544
46.009497869018190385759 2746.54235678306031332 46.009497869018190385759 506.80959278254618994
48.009497869018218807469 2761.22544057726236133 48.009497869018218807469 507.63589553852267500
50.009497869018190385759 2775.14190561686791625 50.009497869018190385759 508.41020610076083130
52.009497869018190385759 2788.35480857976881452 52.009497869018190385759 509.13902239955365303
54.009497869018218807469 2800.92015332766959546 54.009497869018218807469 509.82722003760130747
56.009497869018190385759 2812.88809851792029804 56.009497869018190385759 510.47236834675089767
58.009497869018218807469 2824.30302719325663929 58.009497869018218807469 511.06842248438260867
60.009497869018190385759 2835.20492162341997755 60.009497869018190385759 511.64133450773749701
62.009497869018190385759 2845.62979164707849122 62.009497869018190385759 512.18345251783534877
64.009497869018218807469 2855.61015955964194291 64.009497869018218807469 512.69519072624018463
66.009497869018190385759 2865.17541259605286541 66.009497869018190385759 513.16541205216071830
68.009497869018190385759 2874.35214502686130800 68.009497869018190385759 513.60634560266282733
70.009497869018190385759 2883.16496927526486616 70.009497869018190385759 514.03325172289271450
72.009497869018190385759 2891.63634136188875345 72.009497869018190385759 514.43622665069665345
74.009497869018218807469 2899.78679368025996155 74.009497869018218807469 514.82147326713152324
76.009497869018190385759 2907.63477571058228932 76.009497869018190385759 515.18768574559260287
78.009497869018190385759 2915.19719583912683447 78.009497869018190385759 515.52859154420400500
80.009497869018218807469 2922.48996606360333317 80.009497869018218807469 515.86660191308305912
82.009497869018190385759 2929.52838594649210791 82.009497869018190385759 516.19964208869805589
84.009497869018218807469 2936.32637293586412852 84.009497869018218807469 516.50979056334585948
86.009497869018190385759 2942.89675716495867164 86.009497869018190385759 516.80903972914961741
88.009497869018190385759 2949.25107743048147313 88.009497869018190385759 517.09832639858234415
91.009497869018218807469 2958.40085324564506664 91.009497869018218807469 517.52113497020764044
94.009497869018218807469 2967.12240896375305965 94.009497869018218807469 517.94530624959077159
97.009497869018218807469 2975.44720183112303857 97.009497869018218807469 518.40548828570376827
99.504748934509137825444 2982.09034007379841569 99.504748934509137825444 518.57478891681535060
nan nan nan nan

