Time Pressure difference Time.1 Pressure.1 difference.1
(hr) (psi) (hr) (psi)
0.000200000000020850166 0.47510166662110970 0.000200000000020850166 0.37929599657463514
0.000399999999999067768 0.94886525383758469 0.000399999999999067768 0.98770070360439255
0.000600000000019917934 1.42149223467074015 0.000600000000019917934 1.44271064985154318
0.000799999999998135536 1.89308324931744432 0.000799999999998135536 1.90451920880863868
0.001007140329434719206 2.38049153422335458 0.001007140329434719206 2.38783568300575144
0.001267914553977789183 2.99271075534854170 0.001267914553977789183 2.99856445349952416
0.001596209851982166583 3.76136337430830903 0.001596209851982166583 3.76366988741202935
0.002009509145224797066 4.72591615698595646 0.002009509145224797066 4.72126745347552657
0.002529822128153114136 5.93554216958584124 0.002529822128153114136 5.91843001861681639
0.003184857364431081805 7.45138255190424381 0.003184857364431081805 7.41306624475519449
0.004009497869034817086 9.34927283540329235 0.004009497869034817086 9.27608411006444555
0.005047658755856332391 11.72299995016750529 0.005047658755856332391 11.59381791392067207
0.006354625877790454069 14.68814451517672914 0.006354625877790454069 14.47067098842383714
0.008000000000009777068 18.38655223848860487 0.008000000000009777068 18.03185700312572237
0.010071403294361402914 22.99143462128137116 0.010071403294361402914 22.42599088235337845
0.012679145539692626699 28.71302745090222075 0.012679145539692626699 27.82716864616972430
0.015962098519750611558 35.80464018706081220 0.015962098519750611558 34.43605378343076495
0.020095091452091651263 44.56880118502979116 0.020095091452091651263 42.47895830707944498
0.025298221281360611101 55.36286400770327987 0.025298221281360611101 52.20396763209003410
0.031848573644296607199 68.60333938534874676 0.031848573644296607199 63.87269538642697597
0.040094978690191851456 84.76766388162167232 0.040094978690191851456 77.74554772101221545
0.050476587558435426217 104.39168989505759555 0.050476587558435426217 94.05878574618897403
0.063546258777947173257 128.06081662013099276 0.063546258777947173257 112.99151226908426793
0.080000000000012505552 156.39218173113215471 0.080000000000012505552 134.62180352993959787
0.100714032943542974863 190.00547581530446450 0.100714032943542974863 158.87063382789906996
0.126791455396883634421 229.47918562218913507 0.126791455396883634421 185.44446557718063673
0.159620985197506115583 275.29484956494093240 0.159620985197506115583 213.77442412493056167
0.200950914520774404082 327.76521208466209600 0.200950914520774404082 242.98688010576498186
0.252982212813464002465 386.96492151980862673 0.252982212813464002465 271.90848324686646720
0.318485736442809752589 452.66112426047817507 0.318485736442809752589 299.13770615430337330
0.400949786901833249431 524.27735820839438929 0.400949786901833249431 323.21375914353109238
0.504765875584169521062 600.90225703286887438 0.504765875584169521062 342.82494773331131910
0.635462587779443310865 681.34971139765139014 0.635462587779443310865 357.06515654957752304
0.800000000000011368684 764.28568411085541356 0.800000000000011368684 365.64461710938979877
1.007140329435344483500 848.38491366665698479 1.007140329435344483500 368.95295142603544036
1.267914553968907398485 932.48562659752474246 1.267914553968907398485 368.00429572331728423
1.596209851975117999245 1015.71901244948901422 1.596209851975117999245 364.20330716315800146
2.009509145207687197399 1097.55406108748911720 2.009509145207687197399 359.04802055649025760
2.529822128134725289783 1177.78796540406960958 2.529822128134725289783 353.93075791748663050
3.184857364427983839050 1256.49665531610753533 3.184857364427983839050 349.87394508881351385
4.009497869018204596614 1333.90301514683096684 4.009497869018204596614 347.47624254085678785
5.009497869018190385759 1407.80083835018376703 5.009497869018190385759 346.94566510823716499
6.009497869018190385759 1467.68258809147096144 6.009497869018190385759 347.81813481155552381
7.009497869018204596614 1518.04359112592192105 7.009497869018204596614 349.41116894834948425
8.009497869018190385759 1561.49592508289197212 8.009497869018190385759 351.32103102152268548
9.009497869018204596614 1599.69295127877057894 9.009497869018204596614 353.37197201526936396
10.009497869018190385759 1633.74938315877602690 10.009497869018190385759 355.43941191564630344
11.009497869018190385759 1664.45406471795968173 11.009497869018190385759 357.36587195610519530
12.009497869018204596614 1692.38635102271837241 12.009497869018204596614 359.21764030211107865
13.009497869018190385759 1717.98303094972311555 13.009497869018190385759 360.98196537847837817
14.009497869018204596614 1741.58776159207309320 14.009497869018204596614 362.65434686904580985
15.009497869018190385759 1763.47104481053770542 15.009497869018190385759 364.24763101410053423
16.009497869018190385759 1783.85198397181375185 16.009497869018190385759 365.75154372564168170
17.009497869018204596614 1802.91025004638413520 17.009497869018204596614 367.14553628772677030
18.009497869018190385759 1820.79338333677605988 18.009497869018190385759 368.44541679839210246
19.009497869018204596614 1837.62380531452686228 19.009497869018204596614 369.61245732389681962
20.009497869018190385759 1853.50651301903371859 20.009497869018190385759 370.71469615925980179
21.009497869018190385759 1868.53092820463916723 21.009497869018190385759 371.75865836404130960
22.009497869018204596614 1882.77359350763322254 22.009497869018204596614 372.76495045205115275
23.009497869018190385759 1896.30813161911169118 23.009497869018190385759 373.75489742458455567
24.009497869018204596614 1909.19635445556696141 24.009497869018204596614 374.69426632835160262
25.009497869018204596614 1921.49120535325619130 25.009497869018204596614 375.60066885762398670
26.009497869018190385759 1933.23910313789974680 26.009497869018190385759 376.44183797574521577
27.009497869018204596614 1944.48238475450443730 27.009497869018204596614 377.21509393475366778
28.009497869018190385759 1955.25478821090700876 28.009497869018190385759 377.93306383286784467
29.009497869018190385759 1965.58401795289501024 29.009497869018190385759 378.61483390666455762
30.009497869018190385759 1975.49971962634299416 30.009497869018190385759 379.25755326787833610
31.009497869018218807469 1985.03109125828427750 31.009497869018218807469 379.84831431468160190
32.009497869018190385759 1994.20340924644074221 32.009497869018190385759 380.40284202874033781
33.009497869018190385759 2003.03952620848963306 33.009497869018190385759 380.96947418757235937
34.009497869018218807469 2011.56096705985123663 34.009497869018218807469 381.50157991108869737
35.009497869018190385759 2019.78597352780843721 35.009497869018190385759 382.01629581894809462
36.009497869018190385759 2027.73148479463793592 36.009497869018190385759 382.51929869972127563
37.009497869018190385759 2035.41322986658110494 37.009497869018190385759 383.00436513258449622
38.009497869018218807469 2042.84510916611179709 38.009497869018218807469 383.47151818834385040
39.009497869018190385759 2050.04015976237542418 39.009497869018190385759 383.91288991058468127
40.009497869018190385759 2057.01048385850026534 40.009497869018190385759 384.32612684145897219
41.009497869018218807469 2063.76745609560111916 41.009497869018218807469 384.73708400187183543
42.009497869018190385759 2070.32150702293984068 42.009497869018190385759 385.12596489658966448
43.009497869018190385759 2076.68231718208699021 43.009497869018190385759 385.49943451184770993
44.009497869018218807469 2082.85935594877901167 44.009497869018218807469 385.85430418264252239
46.009497869018190385759 2094.69630410654735897 46.009497869018190385759 386.52678276215522146
48.009497869018218807469 2105.89460268025868572 48.009497869018218807469 387.15697633071334849
50.009497869018190385759 2116.50822668379805691 50.009497869018190385759 387.74751718618023233
52.009497869018190385759 2126.58526734350425613 52.009497869018190385759 388.30336108339292878
54.009497869018218807469 2136.16843693790269754 54.009497869018218807469 388.82822648201067750
56.009497869018190385759 2145.29598980300079347 56.009497869018190385759 389.32025959245532931
58.009497869018218807469 2154.00177540605682225 58.009497869018218807469 389.77485021475581561
60.009497869018190385759 2162.31628689146191391 60.009497869018190385759 390.21179111790110028
62.009497869018190385759 2170.26698776283865300 62.009497869018190385759 390.62524645360247177
64.009497869018218807469 2177.87868169082003078 64.009497869018218807469 391.01553212721250929
66.009497869018190385759 2185.17378133992315270 66.009497869018190385759 391.37415425844795891
68.009497869018190385759 2192.17256927381959031 68.009497869018190385759 391.71043957963081539
70.009497869018190385759 2198.89381656726891379 70.009497869018190385759 392.03602664732613903
72.009497869018190385759 2205.35464967866664665 72.009497869018190385759 392.34336219226469211
74.009497869018218807469 2211.57072798014496584 74.009497869018218807469 392.63717694506561884
76.009497869018190385759 2217.55612227527080904 76.009497869018190385759 392.91647499530529331
78.009497869018190385759 2223.32372802664076517 78.009497869018190385759 393.17647248437953067
80.009497869018218807469 2228.88568078450816756 80.009497869018218807469 393.43426172571128063
82.009497869018190385759 2234.25364901519151317 82.009497869018190385759 393.68826036631372745
84.009497869018218807469 2239.43824709241880555 84.009497869018218807469 393.92480026964511808
86.009497869018190385759 2244.44926013114218222 86.009497869018190385759 394.15302763343146353
88.009497869018190385759 2249.29548838698065083 88.009497869018190385759 394.37365693331878447
91.009497869018218807469 2256.27371740867874905 91.009497869018218807469 394.69611893727841334
94.009497869018218807469 2262.92535723635592149 94.009497869018218807469 395.01962023302127136
97.009497869018218807469 2269.27439926320312225 97.009497869018218807469 395.37058573256348382
99.504748934509137825444 2274.34089936295004009 99.504748934509137825444 395.49970568055778131
nan nan nan nan

