Time Pressure difference Time.1 Pressure.1 difference.1
(hr) (psi) (hr) (psi)
0.000200000000020850166 0.23921202794909022 0.000200000000020850166 0.19097420806555054
0.000399999999999067768 0.47775033759654617 0.000399999999999067768 0.49730385076584804
0.000600000000019917934 0.71571636990414889 0.000600000000019917934 0.72639976775742032
0.000799999999998135536 0.95316079685913280 0.000799999999998135536 0.95891876247707686
0.001007140329434719206 1.19856916408448644 0.001007140329434719206 1.20226691731758106
0.001267914553977789183 1.50681940129437075 0.001267914553977789183 1.50976671784591421
0.001596209851982166583 1.89383330734404365 0.001596209851982166583 1.89499462862703560
0.002009509145224797066 2.37948226086006187 0.002009509145224797066 2.37714165489676876
0.002529822128153114136 2.98852472874252095 0.002529822128153114136 2.97990882056231321
0.003184857364431081805 3.75174506109864003 0.003184857364431081805 3.73245293442219594
0.004009497869034817086 4.70732618286039894 0.004009497869034817086 4.67047591555692421
0.005047658755856332391 5.90248948539902418 0.005047658755856332391 5.83744678183418397
0.006354625877790454069 7.39542940624282874 0.006354625877790454069 7.28593224591969424
0.008000000000009777068 9.25756476343482326 0.008000000000009777068 9.07897695262274063
0.010071403294361402914 11.57610694218362823 0.010071403294361402914 11.29140799670939188
0.012679145539692626699 14.45690892632839208 0.012679145539692626699 14.01088211555398644
0.015962098519750611558 18.02751114313551284 0.015962098519750611558 17.33843267417493195
0.020095091452091651263 22.44023556169332068 0.020095091452091651263 21.38800697978825127
0.025298221281360611101 27.87500845143102168 0.025298221281360611101 26.28451517140197780
0.031848573644296607199 34.54154150870706985 0.031848573644296607199 32.15967879596323087
0.040094978690191851456 42.68022237396336038 0.040094978690191851456 39.14461143995020365
0.050476587558435426217 52.56085085625278452 0.050476587558435426217 47.35826974633290831
0.063546258777947173257 64.47817340314287549 0.063546258777947173257 56.89083135226621124
0.080000000000012505552 78.74291667581478293 0.080000000000012505552 67.78160737171782557
0.100714032943542974863 95.66709271819526350 0.100714032943542974863 79.99080864062051432
0.126791455396883634421 115.54196758599732675 0.126791455396883634421 93.37064001088815246
0.159620985197506115583 138.60999418654367332 0.159620985197506115583 107.63467508388112037
0.200950914520774404082 165.02863825241729501 0.200950914520774404082 122.34304452877677249
0.252982212813464002465 194.83548496102255854 0.252982212813464002465 136.90497058583488865
0.318485736442809752589 227.91329333394702417 0.318485736442809752589 150.61478911265626834
0.400949786901833249431 263.97181672031047128 0.400949786901833249431 162.73699761072893466
0.504765875584169521062 302.55218535920670320 0.504765875584169521062 172.61116249509382214
0.635462587779443310865 343.05719734706929103 0.635462587779443310865 179.78105784314391258
0.800000000000011368684 384.81516962224890221 0.800000000000011368684 184.10078623689557276
1.007140329435344483500 427.15883765034476482 1.007140329435344483500 185.76652099772417159
1.267914553968907398485 469.50325255259991764 1.267914553968907398485 185.28887616838352415
1.596209851975117999245 511.41097130323919373 1.596209851975117999245 183.37509171851314704
2.009509145207687197399 552.61463215593846598 2.009509145207687197399 180.77942293753352487
2.529822128134725289783 593.01212244120995365 2.529822128134725289783 178.20289909132193884
3.184857364427983839050 632.64167260671160875 3.184857364427983839050 176.16030801674526174
4.009497869018204596614 671.61550412987298841 4.009497869018204596614 174.95307316742437820
5.009497869018190385759 708.82279972876392549 5.009497869018190385759 174.68592928526626906
6.009497869018190385759 738.97305134675457339 6.009497869018190385759 175.12521473029366348
7.009497869018204596614 764.32964028717742622 7.009497869018204596614 175.92730184812000971
8.009497869018190385759 786.20773850327429955 8.009497869018190385759 176.88891072412329208
9.009497869018204596614 805.43980763686352020 9.009497869018204596614 177.92155234335240266
10.009497869018190385759 822.58710201001315454 10.009497869018190385759 178.96250110438134584
11.009497869018190385759 838.04680181603566780 11.009497869018190385759 179.93246699887814088
12.009497869018204596614 852.11061030514497361 12.009497869018204596614 180.86482588637761637
13.009497869018190385759 864.99844914951097508 13.009497869018190385759 181.75315739335974285
14.009497869018204596614 876.88334849391083026 14.009497869018204596614 182.59519562637268564
15.009497869018190385759 887.90150507943155844 15.009497869018190385759 183.39740862248416420
16.009497869018190385759 898.16323668510904099 16.009497869018190385759 184.15462341430907145
17.009497869018204596614 907.75900701636135182 17.009497869018204596614 184.85649379521908031
18.009497869018190385759 916.76310209963537545 18.009497869018190385759 185.51097908730230301
19.009497869018204596614 925.23716071780370385 19.009497869018204596614 186.09857991133264932
20.009497869018190385759 933.23404851307986974 20.009497869018190385759 186.65355331095597080
21.009497869018190385759 940.79878902611199010 21.009497869018190385759 187.17918463084598102
22.009497869018204596614 947.96992120664049253 22.009497869018204596614 187.68584917865513262
23.009497869018190385759 954.78451382220998767 23.009497869018190385759 188.18428401797262950
24.009497869018204596614 961.27368895664915271 24.009497869018204596614 188.65725297651266601
25.009497869018204596614 967.46410339464648587 25.009497869018204596614 189.11362348076173134
26.009497869018190385759 973.37912885264870511 26.009497869018190385759 189.53714919058498367
27.009497869018204596614 979.04008183443590951 27.009497869018204596614 189.92648086225358384
28.009497869018190385759 984.46394930898804887 28.009497869018190385759 190.28797619556982568
29.009497869018190385759 989.66468036789126472 29.009497869018190385759 190.63124504391504388
30.009497869018190385759 994.65720149018693519 30.009497869018190385759 190.95485199501567308
31.009497869018218807469 999.45621378039493266 31.009497869018218807469 191.25229811648307532
32.009497869018190385759 1004.07444381638970299 32.009497869018190385759 191.53150088160353448
33.009497869018190385759 1008.52339781126750040 33.009497869018190385759 191.81679819234412321
34.009497869018218807469 1012.81391348468048363 34.009497869018218807469 192.08471156362506349
35.009497869018190385759 1016.95517548253303630 35.009497869018190385759 192.34386922352626925
36.009497869018190385759 1020.95571262387352363 36.009497869018190385759 192.59712941524429652
37.009497869018190385759 1024.82344440834867783 37.009497869018190385759 192.84135866815444160
38.009497869018218807469 1028.56536965007035178 38.009497869018218807469 193.07656859832698615
39.009497869018190385759 1032.18805246776923923 39.009497869018190385759 193.29879771721743964
40.009497869018190385759 1035.69758627840565168 40.009497869018190385759 193.50686106702829647
41.009497869018218807469 1039.09969817400906322 41.009497869018218807469 193.71377656038305304
42.009497869018190385759 1042.39963989966213376 42.009497869018190385759 193.90957673115002535
43.009497869018190385759 1045.60228557419759454 43.009497869018190385759 194.09761737659465552
44.009497869018218807469 1048.71240299518944994 44.009497869018218807469 194.27629301503677084
46.009497869018190385759 1054.67226500469519124 46.009497869018190385759 194.61488362849775058
48.009497869018218807469 1060.31056918166882497 48.009497869018218807469 194.93218388679272834
50.009497869018190385759 1065.65449175687740535 50.009497869018190385759 195.22951914269214058
52.009497869018190385759 1070.72824649463132118 52.009497869018190385759 195.50938460142862141
54.009497869018218807469 1075.55333887782512647 54.009497869018218807469 195.77365249443892026
56.009497869018190385759 1080.14902983088131805 56.009497869018190385759 196.02138944515232311
58.009497869018218807469 1084.53236244221056950 58.009497869018218807469 196.25027423400291582
60.009497869018190385759 1088.71868990339339689 60.009497869018190385759 196.47027245097117998
62.009497869018190385759 1092.72183999247818065 62.009497869018190385759 196.67844576684876756
64.009497869018218807469 1096.55430127090244241 64.009497869018218807469 196.87495323887625887
66.009497869018190385759 1100.22735843688406021 66.009497869018190385759 197.05551822802974016
68.009497869018190385759 1103.75122369031487324 68.009497869018190385759 197.22483671142251183
70.009497869018190385759 1107.13534820170184503 70.009497869018190385759 197.38876866159077395
72.009497869018190385759 1110.38835508296506305 72.009497869018190385759 197.54351103386753152
74.009497869018218807469 1113.51812877322004169 74.009497869018218807469 197.69144573457847969
76.009497869018190385759 1116.53175387286364639 76.009497869018190385759 197.83207132630755609
78.009497869018190385759 1119.43572320222483540 78.009497869018190385759 197.96297915297429881
80.009497869018218807469 1122.23614696842378180 80.009497869018218807469 198.09277513462387788
82.009497869018190385759 1124.93890020345315861 82.009497869018190385759 198.22066256206005619
84.009497869018218807469 1127.54932720737178897 84.009497869018218807469 198.33975957632483755
86.009497869018190385759 1130.07235475134416447 86.009497869018190385759 198.45467125599344627
88.009497869018190385759 1132.51241373330481110 88.009497869018190385759 198.56575733705562925
91.009497869018218807469 1136.02592764632777289 91.009497869018218807469 198.72811582855976553
94.009497869018218807469 1139.37500504208128405 94.009497869018218807469 198.89099759984284788
97.009497869018218807469 1142.57172550315135595 97.009497869018218807469 199.06770750171025952
99.504748934509137825444 1145.12269058833840063 99.504748934509137825444 199.13271894405704643
nan nan nan nan

