Time Pressure difference Time.1 Pressure.1 difference.1
(hr) (psi) (hr) (psi)
0.000200000000020850166 0.05149703379459581 0.000200000000020850166 0.04111250312522269
0.000399999999999067768 0.10284903101036758 0.000399999999999067768 0.10705846787320339
0.000600000000019917934 0.15407782963214317 0.000600000000019917934 0.15637772778111131
0.000799999999998135536 0.20519433821272998 0.000799999999998135536 0.20643390025548183
0.001007140329434719206 0.25802530615707692 0.001007140329434719206 0.25882135025586817
0.001267914553977789183 0.32438473222309366 0.001267914553977789183 0.32501922398071764
0.001596209851982166583 0.40770022588656496 0.001596209851982166583 0.40795023255165347
0.002009509145224797066 0.51224965337959671 0.002009509145224797066 0.51174577292916545
0.002529822128153114136 0.64336296243762603 0.002529822128153114136 0.64150814887105345
0.003184857364431081805 0.80766733954206837 0.003184857364431081805 0.80351417338255604
0.004009497869034817086 1.01338271992133588 0.004009497869034817086 1.00544967626572657
0.005047658755856332391 1.27067481977340102 0.005047658755856332391 1.25667257108930364
0.006354625877790454069 1.59207160828838679 0.006354625877790454069 1.56849930294104523
0.008000000000009777068 1.99294796990610790 0.008000000000009777068 1.95450198285628485
0.010071403294361402914 2.49207857783119779 0.010071403294361402914 2.43078922151382759
0.012679145539692626699 3.11225122719569525 0.012679145539692626699 3.01623156654287206
0.015962098519750611558 3.88092253775833962 0.015962098519750611558 3.73257925624599185
0.020095091452091651263 4.83088404453120113 0.020095091452091651263 4.60436261370441446
0.025298221281360611101 6.00086987496084490 0.025298221281360611101 5.65847201606570316
0.031848573644296607199 7.43602629701332596 0.031848573644296607199 6.92326418524208531
0.040094978690191851456 9.18810342772822253 0.040094978690191851456 8.42696496276705886
0.050476587558435426217 11.31518317044330679 0.050476587558435426217 10.19518307039111349
0.063546258777947173257 13.88071788539881446 0.063546258777947173257 12.24733174944619840
0.080000000000012505552 16.95160011771012876 0.080000000000012505552 14.59187380918925570
0.100714032943542974863 20.59499912683370226 0.100714032943542974863 17.22024352680024961
0.126791455396883634421 24.87361802198553562 0.126791455396883634421 20.10062389123286763
0.159620985197506115583 29.83965152626982231 0.159620985197506115583 23.17135366389107176
0.200950914520774404082 35.52699851267316689 0.200950914520774404082 26.33773875272277465
0.252982212813464002465 41.94375023466457719 0.252982212813464002465 29.47259783445056414
0.318485736442809752589 49.06466731494693079 0.318485736442809752589 32.42401710064127229
0.400949786901833249431 56.82726609951128438 0.400949786901833249431 35.03365920786525578
0.504765875584169521062 65.13276212594033154 0.504765875584169521062 37.15934748158269230
0.635462587779443310865 73.85259109554962720 0.635462587779443310865 38.70286661901014469
0.800000000000011368684 82.84215457145636208 0.800000000000011368684 39.63280814822057607
1.007140329435344483500 91.95780532750477221 1.007140329435344483500 39.99140382589894926
1.267914553968907398485 101.07361686896248898 1.267914553968907398485 39.88857750847145667
1.596209851975117999245 110.09541743333620900 1.596209851975117999245 39.47658224495769019
2.009509145207687197399 118.96564997801455377 2.009509145207687197399 38.91779243794125165
2.529822128134725289783 127.66233191442712780 2.529822128134725289783 38.36312410993735966
3.184857364427983839050 136.19369340838929361 3.184857364427983839050 37.92339964249377005
4.009497869018204596614 144.58389325018100635 4.009497869018204596614 37.66350880687608083
5.009497869018190385759 152.59379716383111258 5.009497869018190385759 37.60599866557815574
6.009497869018190385759 159.08447633159300949 6.009497869018190385759 37.70056705999378011
7.009497869018204596614 164.54318645071182914 7.009497869018204596614 37.87323859230361478
8.009497869018190385759 169.25305481667709273 8.009497869018190385759 38.08025161422099103
9.009497869018204596614 173.39329192182478323 9.009497869018204596614 38.30255640724947597
10.009497869018190385759 177.08472334937783899 10.009497869018190385759 38.52664954330431613
11.009497869018190385759 180.41285316872989597 11.009497869018190385759 38.73546164559182614
12.009497869018204596614 183.44047860735759059 12.009497869018204596614 38.93617779498406861
13.009497869018190385759 186.21494391413085623 13.009497869018190385759 39.12741582773716686
14.009497869018204596614 188.77349863410583453 14.009497869018204596614 39.30868794734412575
15.009497869018190385759 191.14546289904430409 15.009497869018190385759 39.48138657845145616
16.009497869018190385759 193.35458567526654861 16.009497869018190385759 39.64439809613597987
17.009497869018204596614 195.42034178824445689 17.009497869018204596614 39.79549519202632979
18.009497869018190385759 197.35872336867151944 18.009497869018190385759 39.93639133129424579
19.009497869018204596614 199.18299987674942031 19.009497869018204596614 40.06288873091188663
20.009497869018190385759 200.90455211045471628 20.009497869018190385759 40.18236217110857922
21.009497869018190385759 202.53307263756579459 21.009497869018190385759 40.29551891358489968
22.009497869018204596614 204.07685803754066001 22.009497869018204596614 40.40459253151603747
23.009497869018190385759 205.54388839228133179 23.009497869018190385759 40.51189447609133509
24.009497869018204596614 206.94086359483418391 24.009497869018204596614 40.61371418244370091
25.009497869018204596614 208.27352225856972723 25.009497869018204596614 40.71196061044175707
26.009497869018190385759 209.54689579466742089 26.009497869018190385759 40.80313628408427462
27.009497869018204596614 210.76557317269103464 27.009497869018204596614 40.88695074117958939
28.009497869018190385759 211.93321130957383502 28.009497869018190385759 40.96477265321293970
29.009497869018190385759 213.05281313475435923 29.009497869018190385759 41.03867080806504219
30.009497869018190385759 214.12759198747076539 30.009497869018190385759 41.10833619337142864
31.009497869018218807469 215.16071268883501943 31.009497869018218807469 41.17236973340954620
32.009497869018190385759 216.15491498825056738 32.009497869018190385759 41.23247588423409127
33.009497869018190385759 217.11267591770339891 33.009497869018190385759 41.29389405529629897
34.009497869018218807469 218.03632859739644800 34.009497869018218807469 41.35156985050262080
35.009497869018190385759 218.92785027748973903 35.009497869018190385759 41.40736073562024444
36.009497869018190385759 219.78907702319500572 36.009497869018190385759 41.46188202689286584
37.009497869018190385759 220.62171372679725323 37.009497869018190385759 41.51445915772769268
38.009497869018218807469 221.42726707744569126 38.009497869018218807469 41.56509462880649863
39.009497869018190385759 222.20715018403365093 39.009497869018190385759 41.61293561967875831
40.009497869018190385759 222.96267482382344838 40.009497869018190385759 41.65772703526303644
41.009497869018218807469 223.69507391246028760 41.009497869018218807469 41.70227134286023585
42.009497869018190385759 224.40547803395503479 42.009497869018190385759 41.74442276851146261
43.009497869018190385759 225.09493647777867409 43.009497869018190385759 41.78490374079468239
44.009497869018218807469 225.76447564479772723 44.009497869018218807469 41.82336863518153081
46.009497869018190385759 227.04750149406629589 46.009497869018190385759 41.89625967002382367
48.009497869018218807469 228.26130308772033572 48.009497869018218807469 41.96456736451787606
50.009497869018190385759 229.41173086432775108 50.009497869018190385759 42.02857703766289887
52.009497869018190385759 230.50399750926092679 52.009497869018190385759 42.08882585169644130
54.009497869018218807469 231.54273267508733625 54.009497869018218807469 42.14571685644171595
56.009497869018190385759 232.53208281081475661 56.009497869018190385759 42.19904911666473879
58.009497869018218807469 233.47571691464250421 58.009497869018218807469 42.24832292537562495
60.009497869018190385759 234.37694018753606429 60.009497869018190385759 42.29568365263963159
62.009497869018190385759 235.23872944282516073 62.009497869018190385759 42.34049874147439141
64.009497869018218807469 236.06377319026373129 64.009497869018218807469 42.38280243336918574
66.009497869018190385759 236.85450077460703255 66.009497869018190385759 42.42167406297861731
68.009497869018190385759 237.61311065555386790 68.009497869018190385759 42.45812456982012151
70.009497869018190385759 238.34163746008854901 70.009497869018190385759 42.49341547575912870
72.009497869018190385759 239.04193755258279452 72.009497869018190385759 42.52672806979092712
74.009497869018218807469 239.71570827756815447 74.009497869018218807469 42.55857512341619753
76.009497869018190385759 240.36447479207481592 76.009497869018190385759 42.58884868830232762
78.009497869018190385759 240.98963485603448476 78.009497869018190385759 42.61703023432085757
80.009497869018218807469 241.59250386125785326 80.009497869018218807469 42.64497242481485983
82.009497869018190385759 242.17434657157670586 82.009497869018190385759 42.67250374599903751
84.009497869018218807469 242.73631349603141416 84.009497869018218807469 42.69814268656993050
86.009497869018190385759 243.27946525896990693 86.009497869018190385759 42.72288061760970379
88.009497869018190385759 243.80475573425312064 88.009497869018190385759 42.74679498228280750
91.009497869018218807469 244.56113720163997982 91.009497869018218807469 42.78174715753716839
94.009497869018218807469 245.28211914100361923 94.009497869018218807469 42.81681198329950178
97.009497869018218807469 245.97030201803949012 97.009497869018218807469 42.85485369828484892
99.504748934509137825444 246.51946811276732774 99.504748934509137825444 42.86884921712339747
nan nan nan nan

