Time Pressure difference Time.1 Pressure.1 difference.1
(hr) (psi) (hr) (psi)
0.000200000000020850166 0.74504579538310389 0.000200000000020850166 0.59480508553749600
0.000399999999999067768 1.48799323897257629 0.000399999999999067768 1.54889428519779759
0.000600000000019917934 2.22915827709729708 0.000600000000019917934 2.26243260999446516
0.000799999999998135536 2.96869873188417399 0.000799999999998135536 2.98663239563172844
0.001007140329434719206 3.73304354230480628 0.001007140329434719206 3.74456050289538256
0.001267914553977789183 4.69311459361475869 0.001267914553977789183 4.70229425662425449
0.001596209851982166583 5.89850165516530289 0.001596209851982166583 5.90211868707795428
0.002009509145224797066 7.41109579163706833 0.002009509145224797066 7.40380577931389450
0.002529822128153114136 9.30800931139597765 0.002529822128153114136 9.28117434737637126
0.003184857364431081805 11.68512263821347297 0.003184857364431081805 11.62503570200246372
0.004009497869034817086 14.66135967370061799 0.004009497869034817086 14.54658644532833556
0.005047658755856332391 18.38379537639904271 0.005047658755856332391 18.18121445592105445
0.006354625877790454069 23.03368117152714589 0.006354625877790454069 22.69264314093738122
0.008000000000009777068 28.83345691944804301 0.008000000000009777068 28.27723030035624774
0.010071403294361402914 36.05474974700942425 0.010071403294361402914 35.16803115641779698
0.012679145539692626699 45.02724759346030226 0.012679145539692626699 43.63805992240251896
0.015962098519750611558 56.14818574789082106 0.015962098519750611558 54.00199343310733724
0.020095091452091651263 69.89198367652397792 0.020095091452091651263 66.61473007246549116
0.025298221281360611101 86.81903673935286747 0.025298221281360611101 81.86531287759574127
0.031848573644296607199 107.58250949066054147 0.031848573644296607199 100.16399958326047681
0.040094978690191851456 132.93110926890670953 0.040094978690191851456 121.91915438067825050
0.050476587558435426217 163.70515006270397862 0.050476587558435426217 147.50127764743271541
0.063546258777947173257 200.82264424520542434 0.063546258777947173257 177.19123514924578444
0.080000000000012505552 245.25137589654812587 0.080000000000012505552 211.11146462649614364
0.100714032943542974863 297.96313252854565690 0.100714032943542974863 249.13803941193262403
0.126791455396883634421 359.86508654388751438 0.126791455396883634421 290.81063920057874839
0.159620985197506115583 431.71237772683912226 0.159620985197506115583 335.23716510500474897
0.200950914520774404082 513.99544622367477587 0.200950914520774404082 381.04760743858599881
0.252982212813464002465 606.83135420151813832 0.252982212813464002465 426.40193963713153380
0.318485736442809752589 709.85494486302252426 0.318485736442809752589 469.10231192379393406
0.400949786901833249431 822.16222082680030780 0.400949786901833249431 506.85794047508278481
0.504765875584169521062 942.32399398336258400 0.504765875584169521062 537.61184985451086504
0.635462587779443310865 1068.48022923722624000 0.635462587779443310865 559.94308640729195758
0.800000000000011368684 1198.53891371929580600 0.800000000000011368684 573.39724046699768678
1.007140329435344483500 1330.42179643180293169 1.007140329435344483500 578.58531019082829516
1.267914553968907398485 1462.30700534611855801 1.267914553968907398485 577.09764556611128228
1.596209851975117999245 1592.83208770488045047 1.596209851975117999245 571.13700441495234372
2.009509145207687197399 1721.16432306901697302 2.009509145207687197399 563.05257769085972086
2.529822128134725289783 1846.98567302001833923 2.529822128134725289783 555.02777946151320521
3.184857364427983839050 1970.41520947298704414 3.184857364427983839050 548.66595934382121413
4.009497869018204596614 2091.80245557116677446 4.009497869018204596614 544.90592580270708822
5.009497869018190385759 2207.68767832187904787 5.009497869018190385759 544.07388391973552189
6.009497869018190385759 2301.59314950707948810 6.009497869018190385759 545.44207504539383535
7.009497869018204596614 2380.56835881110509945 7.009497869018204596614 547.94024221445715739
8.009497869018190385759 2448.70951887998944585 8.009497869018190385759 550.93525319284231045
9.009497869018204596614 2508.60940086898108348 9.009497869018204596614 554.15150156939955650
10.009497869018190385759 2562.01607813535338209 10.009497869018190385759 557.39362323135435417
11.009497869018190385759 2610.16660148952769305 11.009497869018190385759 560.41466284025580080
12.009497869018204596614 2653.96950501289893509 12.009497869018204596614 563.31857229194690717
13.009497869018190385759 2694.10975308024808328 13.009497869018190385759 566.08535479806835156
14.009497869018204596614 2731.12626249666027434 14.009497869018204596614 568.70795304464002129
15.009497869018190385759 2765.44322936197977469 15.009497869018190385759 571.20651227211214973
16.009497869018190385759 2797.40424759216284656 16.009497869018190385759 573.56492084248350238
17.009497869018204596614 2827.29107393637514178 17.009497869018204596614 575.75095463302614007
18.009497869018190385759 2855.33507841448954423 18.009497869018190385759 577.78940361566037609
19.009497869018204596614 2881.72824015232617967 19.009497869018204596614 579.61953534883809880
20.009497869018190385759 2906.63521359803053201 20.009497869018190385759 581.34804624974833587
21.009497869018190385759 2930.19622832091135933 21.009497869018190385759 582.98516879815576885
22.009497869018204596614 2952.53131709151557516 22.009497869018204596614 584.56321775435299060
23.009497869018190385759 2973.75593367542523993 23.009497869018190385759 586.11563459764397521
24.009497869018204596614 2993.96701039622985263 24.009497869018204596614 587.58873583309673450
25.009497869018204596614 3013.24757203124272564 25.009497869018204596614 589.01013979945571464
26.009497869018190385759 3031.67041173897860062 26.009497869018190385759 590.32924591650953516
27.009497869018204596614 3049.30192154683663830 27.009497869018204596614 591.54185185222740984
28.009497869018190385759 3066.19500878528560861 28.009497869018190385759 592.66775919245174009
29.009497869018190385759 3082.39311906249440653 29.009497869018190385759 593.73689862636035741
30.009497869018190385759 3097.94274214131110057 30.009497869018190385759 594.74479944280915333
31.009497869018218807469 3112.88966583685487421 31.009497869018218807469 595.67122017529618461
32.009497869018190385759 3127.27352813646393770 32.009497869018190385759 596.54082045416100755
33.009497869018190385759 3141.13016609967689874 33.009497869018190385759 597.42940270323845198
34.009497869018218807469 3154.49333470749388653 34.009497869018218807469 598.26384122420734002
35.009497869018190385759 3167.39164030497295244 35.009497869018190385759 599.07100935244125139
36.009497869018190385759 3179.85164660977306994 36.009497869018190385759 599.85980932456288883
37.009497869018190385759 3191.89801956350220280 37.009497869018190385759 600.62048168518936109
38.009497869018218807469 3203.55255755594771472 38.009497869018218807469 601.35306261353923674
39.009497869018190385759 3214.83570508190632609 39.009497869018190385759 602.04521372341685037
40.009497869018190385759 3225.76644059628461036 40.009497869018190385759 602.69324436501528908
41.009497869018218807469 3236.36260160446590817 41.009497869018218807469 603.33769991202632355
42.009497869018190385759 3246.64054510415598997 42.009497869018190385759 603.94753586056106087
43.009497869018190385759 3256.61545194463678854 43.009497869018190385759 604.53320412085201951
44.009497869018218807469 3266.30217182876731385 44.009497869018218807469 605.08970428641657691
46.009497869018190385759 3284.86465871253994919 46.009497869018190385759 606.14427296792518973
48.009497869018218807469 3302.42562693040554223 48.009497869018218807469 607.13253106407319137
50.009497869018190385759 3319.06971911777418427 50.009497869018190385759 608.05860649651003769
52.009497869018190385759 3334.87235106140406060 52.009497869018190385759 608.93027078986619927
54.009497869018218807469 3349.90050337989259788 54.009497869018218807469 609.75335516497125354
56.009497869018190385759 3364.21416582743268009 56.009497869018190385759 610.52495254271400427
58.009497869018218807469 3377.86642052313482054 58.009497869018218807469 611.23783329132163544
60.009497869018190385759 3390.90508626161044958 60.009497869018190385759 611.92303607125404596
62.009497869018190385759 3403.37323080990609014 62.009497869018190385759 612.57140921133100164
64.009497869018218807469 3415.30975083333169096 64.009497869018218807469 613.18344810858332039
66.009497869018190385759 3426.74979346487907605 66.009497869018190385759 613.74583281438424365
68.009497869018190385759 3437.72516545212602068 68.009497869018190385759 614.27318934078471102
70.009497869018190385759 3448.26530325321709824 70.009497869018190385759 614.78376906057962969
72.009497869018190385759 3458.39706426881866719 72.009497869018190385759 615.26572707423326847
74.009497869018218807469 3468.14500524159075212 74.009497869018218807469 615.72648202748928270
76.009497869018190385759 3477.53119174985658901 76.009497869018190385759 616.16447215172877350
78.009497869018190385759 3486.57584622359581772 78.009497869018190385759 616.57219548686782673
80.009497869018218807469 3495.29799941206965741 80.009497869018218807469 616.97645588804721228
82.009497869018190385759 3503.71594959200456287 82.009497869018190385759 617.37477193808285847
84.009497869018218807469 3511.84634203129326124 84.009497869018218807469 617.74570951376176708
86.009497869018190385759 3519.70452156929059129 86.009497869018190385759 618.10361151606298336
88.009497869018190385759 3527.30428860685560721 88.009497869018190385759 618.44959837270448588
91.009497869018218807469 3538.24742048179132325 91.009497869018218807469 618.95527742436843255
94.009497869018218807469 3548.67840112064868663 94.009497869018218807469 619.46258627451061329
97.009497869018218807469 3558.63485339002363617 97.009497869018218807469 620.01296398970180235
99.504748934509137825444 3566.58004672826245951 99.504748934509137825444 620.21544754451110748
nan nan nan nan

