Time Pressure difference Time.1 Pressure.1 difference.1
(hr) (psi) (hr) (psi)
0.000200000000020850166 0.37709118294752414 0.000200000000020850166 0.30104961965888877
0.000399999999999067768 0.75312032385011107 0.000399999999999067768 0.78394426474894097
0.000600000000019917934 1.12824733311279024 0.000600000000019917934 1.14508852278426687
0.000799999999998135536 1.50255208949321650 0.000799999999998135536 1.51162888251594740
0.001007140329434719206 1.88941111282762764 0.001007140329434719206 1.89524020993813136
0.001267914553977789183 2.37533336176265353 0.001267914553977789183 2.37997947882654515
0.001596209851982166583 2.98541778310484673 0.001596209851982166583 2.98724847707178531
0.002009509145224797066 3.75098939732801462 0.002009509145224797066 3.74729969209421210
0.002529822128153114136 4.71107717655939062 0.002529822128153114136 4.69749515463642453
0.003184857364431081805 5.91420922825966144 0.003184857364431081805 5.88379733412387740
0.004009497869034817086 7.42057669103687889 0.004009497869034817086 7.36248633910709493
0.005047658755856332391 9.30461884156651742 0.005047658755856332391 9.20208624636360994
0.006354625877790454069 11.65807274456334852 0.006354625877790454069 11.48546263766507280
0.008000000000009777068 14.59352223124795067 0.008000000000009777068 14.31199839059279455
0.010071403294361402914 18.24844636024780442 0.010071403294361402914 17.79965010592383479
0.012679145539692626699 22.78971059914267272 0.012679145539692626699 22.08659889049135572
0.015962098519750611558 28.41836826035945762 0.015962098519750611558 27.33211261831742434
0.020095091452091651263 35.37453800350266420 0.020095091452091651263 33.71581655841620062
0.025298221281360611101 43.94185360051973532 0.025298221281360611101 41.43461766602950291
0.031848573644296607199 54.45090223942016650 0.031848573644296607199 50.69616032419204288
0.040094978690191851456 67.28062832562279993 0.040094978690191851456 61.70713053381039970
0.050476587558435426217 82.85634128034291734 0.050476587558435426217 74.65505022512202515
0.063546258777947173257 101.64267612856551182 0.063546258777947173257 89.68207442336409940
0.080000000000012505552 124.12945892645802815 0.080000000000012505552 106.85017273180518771
0.100714032943542974863 150.80854199326614662 0.100714032943542974863 126.09662195431150167
0.126791455396883634421 182.13907390292635569 0.126791455396883634421 147.18843946160842506
0.159620985197506115583 218.50325472462094467 0.159620985197506115583 169.67410586139592965
0.200950914520774404082 260.14931168957446062 0.200950914520774404082 192.86021602800227015
0.252982212813464002465 307.13649365383412260 0.252982212813464002465 215.81547446517024014
0.318485736442809752589 359.27998324170818023 0.318485736442809752589 237.42748005953450274
0.400949786901833249431 416.12223885771163623 0.400949786901833249431 256.53679484469074623
0.504765875584169521062 476.93990330930506616 0.504765875584169521062 272.10231865546035124
0.635462587779443310865 540.79155415128275308 0.635462587779443310865 283.40486201662270105
0.800000000000011368684 606.61835766840624729 0.800000000000011368684 290.21443385955069516
1.007140329435344483500 673.36844546269617240 1.007140329435344483500 292.84027962835682501
1.267914553968907398485 740.11971062111229003 1.267914553968907398485 292.08732562654904541
1.596209851975117999245 806.18257281830062766 1.596209851975117999245 289.07045708404501738
2.009509145207687197399 871.13556596804210130 2.009509145207687197399 284.97867365847304200
2.529822128134725289783 934.81772079274060161 2.529822128134725289783 280.91707009534781037
3.184857364427983839050 997.28930334530218715 3.184857364427983839050 277.69715222084147399
4.009497869018204596614 1058.72721831584135543 4.009497869018204596614 275.79408061809260744
5.009497869018190385759 1117.38038568353749724 5.009497869018190385759 275.37295797052388480
6.009497869018190385759 1164.90890733134210677 6.009497869018190385759 276.06544266511576780
7.009497869018204596614 1204.88075239714771669 7.009497869018204596614 277.32984388557810007
8.009497869018190385759 1239.36914333502249974 8.009497869018190385759 278.84571343316662251
9.009497869018204596614 1269.68636342755576152 9.009497869018204596614 280.47355820792353143
10.009497869018190385759 1296.71716775189565851 10.009497869018190385759 282.11449826871228197
11.009497869018190385759 1321.08766675166725690 11.009497869018190385759 283.64354172739820115
12.009497869018204596614 1343.25769818936032607 12.009497869018204596614 285.11330191810912993
13.009497869018190385759 1363.57394414540976868 13.009497869018190385759 286.51365783536573417
14.009497869018204596614 1382.30916741748455934 14.009497869018204596614 287.84103754990695734
15.009497869018190385759 1399.67806703493715759 15.009497869018190385759 289.10563720349932737
16.009497869018190385759 1415.85454671888737721 16.009497869018190385759 290.29930218783448481
17.009497869018204596614 1430.98121244940284669 17.009497869018204596614 291.40572285774118200
18.009497869018190385759 1445.17516789317528492 18.009497869018190385759 292.43744620012239466
19.009497869018204596614 1458.53357974264895347 19.009497869018204596614 293.36373361022577910
20.009497869018190385759 1471.13978480881337418 20.009497869018190385759 294.23858751102090991
21.009497869018190385759 1483.06475770088491117 21.009497869018190385759 295.06718688334751732
22.009497869018204596614 1494.36925079102365999 22.009497869018204596614 295.86588724690773233
23.009497869018190385759 1505.11169887251162436 23.009497869018190385759 296.65161438944301153
24.009497869018204596614 1515.34116245249560961 24.009497869018204596614 297.39719740047485175
25.009497869018204596614 1525.09966299017196434 25.009497869018204596614 298.11661479258970076
26.009497869018190385759 1534.42404339966174120 26.009497869018190385759 298.78425601571382231
27.009497869018204596614 1543.34790678067315639 27.009497869018204596614 299.39799413702473885
28.009497869018190385759 1551.89803120236319955 28.009497869018190385759 299.96785136384960424
29.009497869018190385759 1560.09640585771740007 29.009497869018190385759 300.50897656228278265
30.009497869018190385759 1567.96656068244715243 30.009497869018190385759 301.01910696436499393
31.009497869018218807469 1575.53167033437262035 31.009497869018218807469 301.48799772528928997
32.009497869018190385759 1582.81179684944777364 32.009497869018190385759 301.92812986197219516
33.009497869018190385759 1589.82507849415060264 33.009497869018190385759 302.37786937265360621
34.009497869018218807469 1596.58859972932259552 34.009497869018218807469 302.80020503432564283
35.009497869018190385759 1603.11683912871512803 35.009497869018190385759 303.20873828986441367
36.009497869018190385759 1609.42324142791176200 36.009497869018190385759 303.60797484208643482
37.009497869018190385759 1615.52029083816069033 37.009497869018190385759 303.99297512271567712
38.009497869018218807469 1621.41902021226337638 38.009497869018218807469 304.36375744319599335
39.009497869018190385759 1627.12977715405281742 39.009497869018190385759 304.71407695700253271
40.009497869018190385759 1632.66216725832009615 40.009497869018190385759 305.04206570982933044
41.009497869018218807469 1638.02521864930577067 41.009497869018218807469 305.36824499449267023
42.009497869018190385759 1643.22721011960607029 42.009497869018190385759 305.67690220813233282
43.009497869018190385759 1648.27582517599216771 43.009497869018190385759 305.97332739227073262
44.009497869018218807469 1653.17857972158344637 44.009497869018218807469 306.25498968342600392
46.009497869018190385759 1662.57363997267907507 46.009497869018190385759 306.78874016436799366
48.009497869018218807469 1671.46180002943606269 48.009497869018218807469 307.28892876598575867
50.009497869018190385759 1679.88590020007745807 50.009497869018190385759 307.75764475966053624
52.009497869018190385759 1687.88411079362026612 52.009497869018190385759 308.19882155919651723
54.009497869018218807469 1695.49033281434935816 54.009497869018218807469 308.61541052942800434
56.009497869018190385759 1702.73492896951438524 56.009497869018190385759 309.00594030589985550
58.009497869018218807469 1709.64476579431789105 58.009497869018218807469 309.36675174387960396
60.009497869018190385759 1716.24404588937704830 60.009497869018190385759 309.71355448868371241
62.009497869018190385759 1722.55456721036489398 62.009497869018190385759 310.04171659079634082
64.009497869018218807469 1728.59601658676979241 64.009497869018218807469 310.35148878628410785
66.009497869018190385759 1734.38618309147727814 66.009497869018190385759 310.63612942890796376
68.009497869018190385759 1739.94116512292680454 68.009497869018190385759 310.90304120481187056
70.009497869018190385759 1745.27586140129369596 70.009497869018190385759 311.16146170959098072
72.009497869018190385759 1750.40386530439650414 72.009497869018190385759 311.40539586588840848
74.009497869018218807469 1755.33760577445059425 74.009497869018218807469 311.63859848437022038
76.009497869018190385759 1760.08825089680590281 76.009497869018190385759 311.86027910466543744
78.009497869018190385759 1764.66603588128464253 78.009497869018190385759 312.06664074809145859
80.009497869018218807469 1769.08059279050121404 80.009497869018218807469 312.27124969138623101
82.009497869018190385759 1773.34118295961002332 82.009497869018190385759 312.47285001102517299
84.009497869018218807469 1777.45623108384302213 84.009497869018218807469 312.66059322101204998
86.009497869018190385759 1781.43350367052175898 86.009497869018190385759 312.84173871604525630
88.009497869018190385759 1785.27998553791803715 88.009497869018190385759 313.01685357994182368
91.009497869018218807469 1790.81864983136370029 91.009497869018218807469 313.27279370196572472
94.009497869018218807469 1796.09809822605870977 94.009497869018218807469 313.52955871641898966
97.009497869018218807469 1801.13737284177341280 97.009497869018218807469 313.80812224227940987
99.504748934509137825444 1805.15868585800581059 99.504748934509137825444 313.91060555764551054
nan nan nan nan

