Time Pressure difference Time.1 Pressure.1 difference.1
(hr) (psi) (hr) (psi)
0.000200000000020850166 0.08970451048090883 0.000200000000020850166 0.07161532802458145
0.000399999999999067768 0.17915637659870481 0.000399999999999067768 0.18648894403719302
0.000600000000019917934 0.26839363871405580 0.000600000000019917934 0.27239991290903265
0.000799999999998135536 0.35743529882217484 0.000799999999998135536 0.35959453592890378
0.001007140329434719206 0.44946343653168236 0.001007140329434719206 0.45085009399409293
0.001267914553977789183 0.56505727548538898 0.001267914553977789183 0.56616251919221783
0.001596209851982166583 0.71018749025401640 0.001596209851982166583 0.71062298573513838
0.002009509145224797066 0.89230584782252331 0.002009509145224797066 0.89142812058628840
0.002529822128153114136 1.12069677327844541 0.002529822128153114136 1.11746580771086745
0.003184857364431081805 1.40690439791199018 0.003184857364431081805 1.39966985040832337
0.004009497869034817086 1.76524731857264960 0.004009497869034817086 1.75142846833384636
0.005047658755856332391 2.21343355702463374 0.005047658755856332391 2.18904254318781888
0.006354625877790454069 2.77328602734106111 0.006354625877790454069 2.73222459221988512
0.008000000000009777068 3.47158678628805895 0.008000000000009777068 3.40461635723352796
0.010071403294361402914 4.34104010331886059 0.010071403294361402914 4.23427799876602151
0.012679145539692626699 5.42134084737314659 0.012679145539692626699 5.25408079333274447
0.015962098519750611558 6.76031667867581820 0.015962098519750611558 6.50191225281559859
0.020095091452091651263 8.41508833563499614 0.020095091452091651263 8.02050261742059334
0.025298221281360611101 10.45312816928663402 0.025298221281360611101 9.85669318927574167
0.031848573644296607199 12.95307806576514942 0.031848573644296607199 12.05987954848621158
0.040094978690191851456 16.00508339023625837 0.040094978690191851456 14.67922928998132726
0.050476587558435426217 19.71031907109479064 0.050476587558435426217 17.75935115487484239
0.063546258777947173257 24.17931502617858186 0.063546258777947173257 21.33406175709982833
0.080000000000012505552 29.52859375343054538 0.080000000000012505552 25.41810276439418459
0.100714032943542974863 35.87515976932321848 0.100714032943542974863 29.99655324023268932
0.126791455396883634421 43.32823784474899753 0.126791455396883634421 35.01399000408305540
0.159620985197506115583 51.97874781995388105 0.159620985197506115583 40.36300315645542014
0.200950914520774404082 61.88573934465648563 0.200950914520774404082 45.87864169829128969
0.252982212813464002465 73.06330686038344879 0.252982212813464002465 51.33936396968807259
0.318485736442809752589 85.46748500023012696 0.318485736442809752589 56.48054591724608997
0.400949786901833249431 98.98943127011642673 0.400949786901833249431 61.02637410402335405
0.504765875584169521062 113.45706950970252080 0.504765875584169521062 64.72918593566016909
0.635462587779443310865 128.64644900515096992 0.635462587779443310865 67.41789669117896722
0.800000000000011368684 144.30568860834333123 0.800000000000011368684 69.03779483883583623
1.007140329435344483500 160.18456411887927970 1.007140329435344483500 69.66244537414655724
1.267914553968907398485 176.06371970722494780 1.267914553968907398485 69.48332856314382866
1.596209851975117999245 191.77911423871469765 1.596209851975117999245 68.76565939444242304
2.009509145207687197399 207.23048705847693896 2.009509145207687197399 67.79228360157507893
2.529822128134725289783 222.37954591545371841 2.529822128134725289783 66.82608715924573062
3.184857364427983839050 237.24062722751682486 3.184857364427983839050 66.06011550627947315
4.009497869018204596614 251.85581404870237066 4.009497869018204596614 65.60740243778414538
5.009497869018190385759 265.80854989828640100 5.009497869018190385759 65.50722348197484735
6.009497869018190385759 277.11489425503293660 6.009497869018190385759 65.67195552386012025
7.009497869018204596614 286.62361510769159167 7.009497869018204596614 65.97273819304500364
8.009497869018190385759 294.82790193872784812 8.009497869018190385759 66.33334152154624519
9.009497869018204596614 302.03992786382383429 9.009497869018204596614 66.72058212875714389
10.009497869018190385759 308.47016325375494716 10.009497869018190385759 67.11093791414300824
11.009497869018190385759 314.26755068101340385 11.009497869018190385759 67.47467512457930638
12.009497869018204596614 319.54147886442933668 12.009497869018204596614 67.82430970739160614
13.009497869018190385759 324.37441843106660144 13.009497869018190385759 68.15743402250990357
14.009497869018204596614 328.83125568521660398 14.009497869018204596614 68.47319835988975001
15.009497869018190385759 332.96306440478684863 15.009497869018190385759 68.77402823343156513
16.009497869018190385759 336.81121375691594722 16.009497869018190385759 69.05798378036590179
17.009497869018204596614 340.40962763113549272 17.009497869018204596614 69.32118517320715512
18.009497869018190385759 343.78616328736330843 18.009497869018190385759 69.56661715773836363
19.009497869018204596614 346.96393526917643158 19.009497869018204596614 69.78696746674972928
20.009497869018190385759 349.96276819240495115 20.009497869018190385759 69.99508249160849971
21.009497869018190385759 352.79954588479199629 21.009497869018190385759 70.19219423656724643
22.009497869018204596614 355.48872045249021312 22.009497869018204596614 70.38219344199566763
23.009497869018190385759 358.04419268332873116 23.009497869018190385759 70.56910650673972896
24.009497869018204596614 360.47763335874344648 24.009497869018204596614 70.74646986619224265
25.009497869018204596614 362.79903877299244641 25.009497869018204596614 70.91760880528565281
26.009497869018190385759 365.01717331974327863 26.009497869018190385759 71.07643094646937243
27.009497869018204596614 367.14003068791345186 27.009497869018204596614 71.22243032334509394
28.009497869018190385759 369.17398099087051833 28.009497869018190385759 71.35799107333866687
29.009497869018190385759 371.12425513795921006 29.009497869018190385759 71.48671689146813435
30.009497869018190385759 372.99645055882007227 30.009497869018190385759 71.60806949813087385
31.009497869018218807469 374.79608016764808553 31.009497869018218807469 71.71961179368113903
32.009497869018190385759 376.52791643114613862 32.009497869018190385759 71.82431283060131477
33.009497869018190385759 378.19627417922527002 33.009497869018190385759 71.93129932212903555
34.009497869018218807469 379.80521755675511031 34.009497869018218807469 72.03176683635940947
35.009497869018190385759 381.35819080594990282 35.009497869018190385759 72.12895095882235807
36.009497869018190385759 382.85839223395259978 36.009497869018190385759 72.22392353071660409
37.009497869018190385759 384.30879165313075418 37.009497869018190385759 72.31550950055792271
38.009497869018218807469 385.71201361877632507 38.009497869018218807469 72.40371322437262336
39.009497869018190385759 387.07051967541349313 39.009497869018190385759 72.48704914395653987
40.009497869018190385759 388.38659485440211938 40.009497869018190385759 72.56507290013560407
41.009497869018218807469 389.66238681525334187 41.009497869018218807469 72.64266621014363068
42.009497869018190385759 390.89986496237327174 42.009497869018190385759 72.71609127418126661
43.009497869018190385759 392.10085709032409795 43.009497869018190385759 72.78660651622300293
44.009497869018218807469 393.26715112319607215 44.009497869018218807469 72.85360988063879972
46.009497869018190385759 395.50209937676066829 46.009497869018190385759 72.98058136068665647
48.009497869018218807469 397.61646344312572410 48.009497869018218807469 73.09956895754726247
50.009497869018190385759 399.62043440882899858 50.009497869018190385759 73.21106967850955982
52.009497869018190385759 401.52309243548677387 52.009497869018190385759 73.31601922553572592
54.009497869018218807469 403.33250207918439401 54.009497869018218807469 73.41511968541459510
56.009497869018190385759 405.05588618658055111 56.009497869018190385759 73.50802104193212472
58.009497869018218807469 406.69963591582887830 58.009497869018218807469 73.59385283775108633
60.009497869018190385759 408.26950871377249541 60.009497869018190385759 73.67635216911419604
62.009497869018190385759 409.77068999717926090 62.009497869018190385759 73.75441716256828784
64.009497869018218807469 411.20786297658844433 64.009497869018218807469 73.82810746457859352
66.009497869018190385759 412.58525941383157942 66.009497869018190385759 73.89581933551114901
68.009497869018190385759 413.90670888386802062 68.009497869018190385759 73.95931376678343838
70.009497869018190385759 415.17575557563816346 70.009497869018190385759 74.02078824809655089
72.009497869018190385759 416.39563315611195549 72.009497869018190385759 74.07881663770032787
74.009497869018218807469 417.56929828995743037 74.009497869018218807469 74.13429215046693344
76.009497869018190385759 418.69940770232386740 76.009497869018190385759 74.18702674736533709
78.009497869018190385759 419.78839620083425643 78.009497869018190385759 74.23611718236536205
80.009497869018218807469 420.83855511315886133 80.009497869018218807469 74.28479067548394710
82.009497869018190385759 421.85208757629487764 82.009497869018190385759 74.33274846077252107
84.009497869018218807469 422.83099770276442086 84.009497869018218807469 74.37740984112180342
86.009497869018190385759 423.77713303175403325 86.009497869018190385759 74.42050172099754946
88.009497869018190385759 424.69215514998933259 88.009497869018190385759 74.46215900139586097
91.009497869018218807469 426.00972286737288641 91.009497869018218807469 74.52304343570990852
94.009497869018218807469 427.26562689078048152 94.009497869018218807469 74.58412409994106440
97.009497869018218807469 428.46439706368175848 97.009497869018218807469 74.65039031314135798
99.504748934509137825444 429.42100897062692866 99.504748934509137825444 74.67476960402139241
nan nan nan nan

