Time Pressure difference Time.1 Pressure.1 difference.1
(hr) (psi) (hr) (psi)
0.000200000000020850166 0.07309256409555534 0.000200000000020850166 0.05835323024225156
0.000399999999999067768 0.14597926982116688 0.000399999999999067768 0.15195395440067577
0.000600000000019917934 0.21869111302626773 0.000600000000019917934 0.22195548459254508
0.000799999999998135536 0.29124357681806834 0.000799999999998135536 0.29300295520132902
0.001007140329434719206 0.36622946680359297 0.001007140329434719206 0.36735933584703873
0.001267914553977789183 0.46041703928439104 0.001267914553977789183 0.46131760823069606
0.001596209851982166583 0.57867128835512449 0.001596209851982166583 0.57902613652492763
0.002009509145224797066 0.72706402415168569 0.002009509145224797066 0.72634883899623492
0.002529822128153114136 0.91316033378243699 0.002529822128153114136 0.91052769517181786
0.003184857364431081805 1.14636654644680669 0.003184857364431081805 1.14047172996233748
0.004009497869034817086 1.43834966698512190 0.004009497869034817086 1.42708986308683783
0.005047658755856332391 1.80353845387192391 0.005047658755856332391 1.78366429444933416
0.006354625877790454069 2.25971454079641987 0.006354625877790454069 2.22625707514212889
0.008000000000009777068 2.82870034438286266 0.008000000000009777068 2.77413184663472645
0.010071403294361402914 3.53714378788944206 0.010071403294361402914 3.45015244343898120
0.012679145539692626699 4.41738883860034193 0.012679145539692626699 4.28110286864149536
0.015962098519750611558 5.50840618262474102 0.015962098519750611558 5.29785442822011809
0.020095091452091651263 6.85673864385073628 0.020095091452091651263 6.53522435493529930
0.025298221281360611101 8.51736369349281119 0.025298221281360611101 8.03137963570615909
0.031848573644296607199 10.55435990543826996 0.031848573644296607199 9.82656852098876676
0.040094978690191851456 13.04117905871102678 0.040094978690191851456 11.96085349554034138
0.050476587558435426217 16.06025998385501552 0.050476587558435426217 14.47058242249061166
0.063546258777947173257 19.70166409540476593 0.063546258777947173257 17.38330957985911951
0.080000000000012505552 24.06033565094340787 0.080000000000012505552 20.71104669691377964
0.100714032943542974863 29.23161166389299481 0.100714032943542974863 24.44163597352293493
0.126791455396883634421 35.30449009572140540 0.126791455396883634421 28.52991778110471444
0.159620985197506115583 42.35305377922168191 0.159620985197506115583 32.88837294229701058
0.200950914520774404082 50.42541724379417190 0.200950914520774404082 37.38259693934845984
0.252982212813464002465 59.53306484920133101 0.252982212813464002465 41.83207434567176364
0.318485736442809752589 69.64017296315047645 0.318485736442809752589 46.02118556220052170
0.400949786901833249431 80.65805510898374564 0.400949786901833249431 49.72519371438939828
0.504765875584169521062 92.44650108197983229 0.504765875584169521062 52.74229965127866393
0.635462587779443310865 104.82303252271560723 0.635462587779443310865 54.93310100762730741
0.800000000000011368684 117.58241294013159006 0.800000000000011368684 56.25301801682920200
1.007140329435344483500 130.52075594871644171 1.007140329435344483500 56.76199252708238419
1.267914553968907398485 143.45932716884996694 1.267914553968907398485 56.61604549589496571
1.596209851975117999245 156.26446345376751879 1.596209851975117999245 56.03127802510122990
2.009509145207687197399 168.85447093653678508 2.009509145207687197399 55.23815700869081269
2.529822128134725289783 181.19814852370302560 2.529822128134725289783 54.45088583345948763
3.184857364427983839050 193.30717774093963612 3.184857364427983839050 53.82676078289438948
4.009497869018204596614 205.21584848412783231 4.009497869018204596614 53.45788346782411082
5.009497869018190385759 216.58474436156674869 5.009497869018190385759 53.37625617049802429
6.009497869018190385759 225.79732124484166889 6.009497869018190385759 53.51048227870084872
7.009497869018204596614 233.54516786552645158 7.009497869018204596614 53.75556445359222835
8.009497869018190385759 240.23014232044491223 8.009497869018190385759 54.04938938792656700
9.009497869018204596614 246.10660788904164065 9.009497869018204596614 54.36491877157989450
10.009497869018190385759 251.34605894750404786 10.009497869018190385759 54.68298644856096757
11.009497869018190385759 256.06985611045536189 11.009497869018190385759 54.97936491632387401
12.009497869018204596614 260.36713092657203106 12.009497869018204596614 55.26425235417093518
13.009497869018190385759 264.30508168457282636 13.009497869018190385759 55.53568698130436587
14.009497869018204596614 267.93657870647280106 14.009497869018204596614 55.79297644139165868
15.009497869018190385759 271.30323766315962075 15.009497869018190385759 56.03809707909238824
16.009497869018190385759 274.43876676489441024 16.009497869018190385759 56.26946826548333291
17.009497869018204596614 277.37080769944373060 17.009497869018204596614 56.48392865965026743
18.009497869018190385759 280.12205897488860273 18.009497869018190385759 56.68391027667571080
19.009497869018204596614 282.71135466377336343 19.009497869018204596614 56.86345497290719919
20.009497869018190385759 285.15484815677444885 20.009497869018190385759 57.03303017834766564
21.009497869018190385759 287.46629664686753358 21.009497869018190385759 57.19363974831404818
22.009497869018204596614 289.65747592425123003 22.009497869018204596614 57.34845391570017625
23.009497869018190385759 291.73971255678640091 23.009497869018190385759 57.50075344993608439
24.009497869018204596614 293.72251607008723795 24.009497869018204596614 57.64527174282331146
25.009497869018204596614 295.61403159280860109 25.009497869018204596614 57.78471828578830127
26.009497869018190385759 297.42140048275376785 26.009497869018190385759 57.91412891934541562
27.009497869018204596614 299.15113611607762323 27.009497869018204596614 58.03309137457748790
28.009497869018190385759 300.80842895552416394 28.009497869018190385759 58.14354828197966896
29.009497869018190385759 302.39754122352229615 29.009497869018190385759 58.24843598564070390
30.009497869018190385759 303.92303378866819230 30.009497869018190385759 58.34731588736589458
31.009497869018218807469 305.38939865512071492 31.009497869018218807469 58.43820220225870798
32.009497869018190385759 306.80052449945242188 32.009497869018190385759 58.52351415826774428
33.009497869018190385759 308.15992710899837448 33.009497869018190385759 58.61068833654959320
34.009497869018218807469 309.47091800920787819 34.009497869018218807469 58.69255075555211221
35.009497869018190385759 310.73630361966286273 35.009497869018190385759 58.77173781829970522
36.009497869018190385759 311.95868996840579257 36.009497869018190385759 58.84912287688019461
37.009497869018190385759 313.14049690255092173 37.009497869018190385759 58.92374848193608017
38.009497869018218807469 314.28386294863253170 38.009497869018218807469 58.99561818282213466
39.009497869018190385759 315.39079380959611854 39.009497869018190385759 59.06352152470532957
40.009497869018190385759 316.46315136284619030 40.009497869018190385759 59.12709643714753582
41.009497869018218807469 317.50268555316938546 41.009497869018218807469 59.19032061567259007
42.009497869018190385759 318.51100108045233128 42.009497869018190385759 59.25014844562917204
43.009497869018190385759 319.48958725878264886 43.009497869018190385759 59.30760530951502574
44.009497869018218807469 320.43990091519680163 44.009497869018218807469 59.36220064348346170
46.009497869018190385759 322.26096986254572130 46.009497869018190385759 59.46565888648542142
48.009497869018218807469 323.98378502773209675 48.009497869018218807469 59.56261174318667173
50.009497869018190385759 325.61665025904585491 50.009497869018190385759 59.65346418248926597
52.009497869018190385759 327.16696420669291001 52.009497869018190385759 59.73897862821429783
54.009497869018218807469 328.64129799044656011 54.009497869018218807469 59.81972715107855976
56.009497869018190385759 330.04553689276934847 56.009497869018190385759 59.89542455268544074
58.009497869018218807469 331.38488852400871565 58.009497869018218807469 59.96536157150089252
60.009497869018190385759 332.66404413714792554 60.009497869018190385759 60.03258324890786213
62.009497869018190385759 333.88722888659054888 62.009497869018190385759 60.09619176209267977
64.009497869018218807469 335.05825872166468571 64.009497869018218807469 60.15623571187884977
66.009497869018190385759 336.18058174460355758 66.009497869018190385759 60.21140834745352777
68.009497869018190385759 337.25731834981843349 68.009497869018190385759 60.26314455071243259
70.009497869018190385759 338.29135639496439580 70.009497869018190385759 60.31323486881939999
72.009497869018190385759 339.28533071979495617 72.009497869018190385759 60.36051726034840925
74.009497869018218807469 340.24165045848383215 74.009497869018218807469 60.40571953001009575
76.009497869018190385759 341.16248035004173289 76.009497869018190385759 60.44868846081620006
78.009497869018190385759 342.04980431179086509 78.009497869018190385759 60.48868807451992780
80.009497869018218807469 342.90548935146273379 80.009497869018218807469 60.52834795780174204
82.009497869018190385759 343.73133061772176688 82.009497869018190385759 60.56742467174056799
84.009497869018218807469 344.52896109114135470 84.009497869018218807469 60.60381542609925276
86.009497869018190385759 345.29988617402182172 86.009497869018190385759 60.63892732822022680
88.009497869018190385759 346.04545975184316831 88.009497869018190385759 60.67287029743366134
91.009497869018218807469 347.11903344748901645 91.009497869018218807469 60.72247983650436254
94.009497869018218807469 348.14236265174707796 94.009497869018218807469 60.77224926661865112
97.009497869018218807469 349.11913834818511759 97.009497869018218807469 60.82624395885591184
99.504748934509137825444 349.89859990199232698 99.504748934509137825444 60.84610856623966413
nan nan nan nan

