Time Pressure difference Time.1 Pressure.1 difference.1
(hr) (psi) (hr) (psi)
0.000200000000020850166 0.47260987466330667 0.000200000000020850166 0.37730668190728567
0.000399999999999067768 0.94388868782095414 0.000399999999999067768 0.98252045515891506
0.000600000000019917934 1.41403685581757199 0.000600000000019917934 1.43514398560406975
0.000799999999998135536 1.88315449101682852 0.000799999999998135536 1.89453047169950239
0.001007140329434719206 2.36800643876414130 0.001007140329434719206 2.37531206928369354
0.001267914553977789183 2.97701471991839206 0.001267914553977789183 2.98283771685529597
0.001596209851982166583 3.74163594402347544 0.001596209851982166583 3.74393036003049762
0.002009509145224797066 4.70112988343533100 0.002009509145224797066 4.69650556123701879
0.002529822128153114136 5.90441170366143986 0.002529822128153114136 5.88738930173595865
0.003184857364431081805 7.41230187418446551 0.003184857364431081805 7.37418652668829644
0.004009497869034817086 9.30023818766516186 0.004009497869034817086 9.22743331927739519
0.005047658755856332391 11.66151568469459754 0.005047658755856332391 11.53301117660990016
0.006354625877790454069 14.61110879219503467 0.006354625877790454069 14.39477586086217364
0.008000000000009777068 18.29011927220282629 0.008000000000009777068 17.93728432653590232
0.010071403294361402914 22.87085017396696074 0.010071403294361402914 22.30837204905432003
0.012679145539692626699 28.56243464958630085 0.012679145539692626699 27.68122195746603609
0.015962098519750611558 35.61685361265315208 0.015962098519750611558 34.25544510974143719
0.020095091452091651263 44.33504873126215529 0.020095091452091651263 42.25616656770665003
0.025298221281360611101 55.07249933633420369 0.025298221281360611101 51.93017059905459831
0.031848573644296607199 68.24353166129972692 0.031848573644296607199 63.53769873230235987
0.040094978690191851456 84.32307823189289309 0.040094978690191851456 77.33779135184607867
0.050476587558435426217 103.84418103197162964 0.050476587558435426217 93.56547043633133853
0.063546258777947173257 127.38916898051492410 0.063546258777947173257 112.39889944249817688
0.080000000000012505552 155.57194301575907502 0.080000000000012505552 133.91574511981752948
0.100714032943542974863 189.00894359948995316 0.100714032943542974863 158.03739623789260804
0.126791455396883634421 228.27562345983500336 0.126791455396883634421 184.47185474373389980
0.159620985197506115583 273.85099545883110750 0.159620985197506115583 212.65322959280680948
0.200950914520774404082 326.04616376953282497 0.200950914520774404082 241.71247339192353820
0.252982212813464002465 384.93538521813133002 0.252982212813464002465 270.48238980326402725
0.318485736442809752589 450.28702745491614223 0.318485736442809752589 297.56880210104651496
0.400949786901833249431 521.52765178422453118 0.400949786901833249431 321.51858208508599546
0.504765875584169521062 597.75067176871050378 0.504765875584169521062 341.02691479065407520
0.635462587779443310865 677.77619892528616674 0.635462587779443310865 355.19243719704473961
0.800000000000011368684 760.27719276062373410 0.800000000000011368684 363.72690058608878871
1.007140329435344483500 843.93534244113254772 1.007140329435344483500 367.01788349897583430
1.267914553968907398485 927.59496771676856497 1.267914553968907398485 366.07420326322994697
1.596209851975117999245 1010.39181483174695586 1.596209851975117999245 362.29314995775683883
2.009509145207687197399 1091.79765866919819928 2.009509145207687197399 357.16490156755759244
2.529822128134725289783 1171.61075579530711366 2.529822128134725289783 352.07447771861870933
3.184857364427983839050 1249.90663789312111476 3.184857364427983839050 348.03894188030574242
4.009497869018204596614 1326.90702031214482304 4.009497869018204596614 345.65381469536271197
5.009497869018190385759 1400.41726751967576092 5.009497869018190385759 345.12602001151560671
6.009497869018190385759 1459.98495213994215192 6.009497869018190385759 345.99391382478160040
7.009497869018204596614 1510.08182403959722251 7.009497869018204596614 347.57859288743151183
8.009497869018190385759 1553.30626114014944505 8.009497869018190385759 349.47843820147971883
9.009497869018204596614 1591.30295328255328968 9.009497869018204596614 351.51862251169274032
10.009497869018190385759 1625.18076751283842896 10.009497869018190385759 353.57521919580898384
11.009497869018190385759 1655.72441053237616870 11.009497869018190385759 355.49157542486688044
12.009497869018204596614 1683.51019883203980498 12.009497869018204596614 357.33363169912797730
13.009497869018190385759 1708.97263043774910329 13.009497869018190385759 359.08870332229759015
14.009497869018204596614 1732.45356004526138349 14.009497869018204596614 360.75231358127103931
15.009497869018190385759 1754.22207079929376050 15.009497869018190385759 362.33724134094967440
16.009497869018190385759 1774.49611692301073163 16.009497869018190385759 363.83326639840930739
17.009497869018204596614 1793.45442705663049310 17.009497869018204596614 365.21994781069321334
18.009497869018190385759 1811.24376768990464370 18.009497869018190385759 366.51301076623269637
19.009497869018204596614 1827.98591822371645321 19.009497869018204596614 367.67393044982037509
20.009497869018190385759 1843.78532501368931662 20.009497869018190385759 368.77038831227065430
21.009497869018190385759 1858.73094081895055751 21.009497869018190385759 369.80887519080334869
22.009497869018204596614 1872.89890682839723013 22.009497869018204596614 370.80988952310684681
23.009497869018190385759 1886.36245960013025069 23.009497869018190385759 371.79464446606402817
24.009497869018204596614 1899.18308686226873760 24.009497869018204596614 372.72908660984620610
25.009497869018204596614 1911.41345427622877651 25.009497869018204596614 373.63073527969942234
26.009497869018190385759 1923.09973721235110133 26.009497869018190385759 374.46749267167660946
27.009497869018204596614 1934.28405056872907153 27.009497869018204596614 375.23669309243848602
28.009497869018190385759 1944.99995540560485097 28.009497869018190385759 375.95089741416398965
29.009497869018190385759 1955.27501086572920030 29.009497869018190385759 376.62909177079052370
30.009497869018190385759 1965.13870711082040543 30.009497869018190385759 377.26844022626357855
31.009497869018218807469 1974.62008903140531402 31.009497869018218807469 377.85610287596824719
32.009497869018190385759 1983.74430045668646017 32.009497869018190385759 378.40772222789024681
33.009497869018190385759 1992.53407414795537989 33.009497869018190385759 378.97138253973542987
34.009497869018218807469 2001.01082212771939339 34.009497869018218807469 379.50069749896761095
35.009497869018190385759 2009.19269044986549488 35.009497869018190385759 380.01271384786963381
36.009497869018190385759 2017.09652945480593189 36.009497869018190385759 380.51307860164575914
37.009497869018190385759 2024.73798565399420113 37.009497869018190385759 380.99560097979127704
38.009497869018218807469 2032.13088656559034462 38.009497869018218807469 381.46030393211128739
39.009497869018190385759 2039.28820088250245135 39.009497869018190385759 381.89936076769697593
40.009497869018190385759 2046.22196733476675945 40.009497869018190385759 382.31043037201072821
41.009497869018218807469 2052.94350090628859107 41.009497869018218807469 382.71923216270118928
42.009497869018190385759 2059.46317744065163424 42.009497869018190385759 383.10607347230683217
43.009497869018190385759 2065.79062670735584106 43.009497869018190385759 383.47758433084152330
44.009497869018218807469 2071.93526841757920920 44.009497869018218807469 383.83059279706918687
46.009497869018190385759 2083.71013467941475028 46.009497869018190385759 384.49954439102504011
48.009497869018218807469 2094.84970091794957625 48.009497869018218807469 385.12643274855923892
50.009497869018190385759 2105.40765906133083263 50.009497869018190385759 385.71387636177723834
52.009497869018190385759 2115.43184810918501171 52.009497869018190385759 386.26680499379472167
54.009497869018218807469 2124.96475632459214467 54.009497869018218807469 386.78891760186024840
56.009497869018190385759 2134.04443740892884307 56.009497869018190385759 387.27837011906837006
58.009497869018218807469 2142.70456329728403944 58.009497869018218807469 387.73057652481821833
60.009497869018190385759 2150.97546720496802664 60.009497869018190385759 388.16522577987012710
62.009497869018190385759 2158.88446859624991703 62.009497869018190385759 388.57651264353108900
64.009497869018218807469 2166.45624105258139025 64.009497869018218807469 388.96475136430757402
66.009497869018190385759 2173.71307968953897216 66.009497869018190385759 389.32149261023926101
68.009497869018190385759 2180.67516069371231424 68.009497869018190385759 389.65601419722014498
70.009497869018190385759 2187.36115669016771790 70.009497869018190385759 389.97989364043456817
72.009497869018190385759 2193.78810431321971919 72.009497869018190385759 390.28561728566188549
74.009497869018218807469 2199.97158080542385505 74.009497869018218807469 390.57789105199708501
76.009497869018190385759 2205.92558317242855992 76.009497869018190385759 390.85572425232294336
78.009497869018190385759 2211.66293924328419962 78.009497869018190385759 391.11435811820268782
80.009497869018218807469 2217.19572092025373422 80.009497869018218807469 391.37079531805898114
82.009497869018190385759 2222.53553547140563751 82.009497869018190385759 391.62346179795889611
84.009497869018218807469 2227.69294160067556732 84.009497869018218807469 391.85876110739172873
86.009497869018190385759 2232.67767310248200374 86.009497869018190385759 392.08579147451484914
88.009497869018190385759 2237.49848407725858124 88.009497869018190385759 392.30526362772445736
91.009497869018218807469 2244.44011399569581044 91.009497869018218807469 392.62603439739751821
94.009497869018218807469 2251.05686760050048179 94.009497869018218807469 392.94783900802286780
97.009497869018218807469 2257.37261045587865738 97.009497869018218807469 393.29696377942059371
99.504748934509137825444 2262.41253800265485552 99.504748934509137825444 393.42540652489049080
nan nan nan nan

