Time Pressure difference Time.1 Pressure.1 difference.1
(hr) (psi) (hr) (psi)
0.000200000000020850166 0.09801048367358557 0.000200000000020850166 0.07824637691574642
0.000399999999999067768 0.19574492998747381 0.000399999999999067768 0.20375643885545161
0.000600000000019917934 0.29324490155794991 0.000600000000019917934 0.29762212706727637
0.000799999999998135536 0.39053115982422804 0.000799999999998135536 0.39289032629269116
0.001007140329434719206 0.49108042139572700 0.001007140329434719206 0.49259547306762008
0.001267914553977789183 0.61737739358588806 0.001267914553977789183 0.61858497467297879
0.001596209851982166583 0.77594559120346229 0.001596209851982166583 0.77642141034024370
0.002009509145224797066 0.97492675965794207 0.002009509145224797066 0.97396776138131502
0.002529822128153114136 1.22446499302644951 0.002529822128153114136 1.22093486398039230
0.003184857364431081805 1.53717332364458170 0.003184857364431081805 1.52926891063131642
0.004009497869034817086 1.92869614436641323 0.004009497869034817086 1.91359777095735040
0.005047658755856332391 2.41838110860098920 0.005047658755856332391 2.39173166755706168
0.006354625877790454069 3.03007177061338151 0.006354625877790454069 2.98520835075876345
0.008000000000009777068 3.79303000724065642 0.008000000000009777068 3.71985861253292915
0.010071403294361402914 4.74298826103356941 0.010071403294361402914 4.62634077642954278
0.012679145539692626699 5.92331685175954892 0.012679145539692626699 5.74056975567836947
0.015962098519750611558 7.38627192670135635 0.015962098519750611558 7.10394116511333973
0.020095091452091651263 9.19426318152712518 0.020095091452091651263 8.76314174866324258
0.025298221281360611101 11.42101040718354454 0.025298221281360611101 10.76934996606053119
0.031848573644296607199 14.15243714592858915 0.031848573644296607199 13.17653506223493665
0.040094978690191851456 17.48703555599887594 0.040094978690191851456 16.03841718720181930
0.050476587558435426217 21.53534861471468176 0.050476587558435426217 19.40373552106695598
0.063546258777947173257 26.41814049156548450 0.063546258777947173257 23.30943784572018274
0.080000000000012505552 32.26272280467411235 0.080000000000012505552 27.77163079813438884
0.100714032943542974863 39.19693382203833210 0.100714032943542974863 32.77401187358756829
0.126791455396883634421 47.34011171926279360 0.126791455396883634421 38.25602611557223298
0.159620985197506115583 56.79159484031998062 0.159620985197506115583 44.10031826353462492
0.200950914520774404082 67.61590039508764960 0.200950914520774404082 50.12666407776270461
0.252982212813464002465 79.82842786597451834 0.252982212813464002465 56.09300878169623417
0.318485736442809752589 93.38114101876996642 0.318485736442809752589 61.71022609476888476
0.400949786901833249431 108.15511935068275307 0.400949786901833249431 66.67696429884031772
0.504765875584169521062 123.96235372356386506 0.504765875584169521062 70.72262907785092523
0.635462587779443310865 140.55815724636866548 0.635462587779443310865 73.66029453295479357
0.800000000000011368684 157.66732644244919470 0.800000000000011368684 75.43018324983916045
1.007140329435344483500 175.01646820396069870 1.007140329435344483500 76.11267179767864377
1.267914553968907398485 192.36591597641245244 1.267914553968907398485 75.91697009676825303
1.596209851975117999245 209.53643963118827287 1.596209851975117999245 75.13285007911301250
2.009509145207687197399 226.41849511944704432 2.009509145207687197399 74.06934689801722982
2.529822128134725289783 242.97024461132903639 2.529822128134725289783 73.01368782213884856
3.184857364427983839050 259.20735197080540502 3.184857364427983839050 72.17679286797201144
4.009497869018204596614 275.17579683098961141 4.009497869018204596614 71.68216192276415200
5.009497869018190385759 290.42045266664626979 5.009497869018190385759 71.57270713771326598
6.009497869018190385759 302.77368076012862730 6.009497869018190385759 71.75269214643977023
7.009497869018204596614 313.16283872877409067 7.009497869018204596614 72.08132506277138418
8.009497869018190385759 322.12678174786930185 8.009497869018190385759 72.47531758835607718
9.009497869018204596614 330.00658785121493111 9.009497869018204596614 72.89841380734577569
10.009497869018190385759 337.03221540688042523 10.009497869018190385759 73.32491364693402147
11.009497869018190385759 343.36639796629242483 11.009497869018190385759 73.72233022870700836
12.009497869018204596614 349.12865283335798949 12.009497869018204596614 74.10433838400193451
13.009497869018190385759 354.40908680431357425 13.009497869018190385759 74.46830754311267242
14.009497869018204596614 359.27859417458847702 14.009497869018204596614 74.81330931913880988
15.009497869018190385759 363.79297777560043414 15.009497869018190385759 75.14199381060115002
16.009497869018190385759 367.99743725292660201 16.009497869018190385759 75.45224153780719689
17.009497869018204596614 371.92903759698134536 17.009497869018204596614 75.73981342998558830
18.009497869018190385759 375.61821544360066127 18.009497869018190385759 76.00797059826969360
19.009497869018204596614 379.09022557187796565 19.009497869018204596614 76.24872371367101209
20.009497869018190385759 382.36672821022028756 20.009497869018190385759 76.47610864823890608
21.009497869018190385759 385.46617050375425606 21.009497869018190385759 76.69147148069383491
22.009497869018204596614 388.40434271660961940 22.009497869018204596614 76.89906320514342042
23.009497869018190385759 391.19643274659995313 23.009497869018190385759 77.10328303514155834
24.009497869018204596614 393.85519200307152232 24.009497869018204596614 77.29706892787672246
25.009497869018204596614 396.39154236308434065 25.009497869018204596614 77.48405406503431436
26.009497869018190385759 398.81505973823806244 26.009497869018190385759 77.65758196003135083
27.009497869018204596614 401.13447797383133775 27.009497869018204596614 77.81709979772891472
28.009497869018190385759 403.35675700854375236 28.009497869018190385759 77.96521246901818358
29.009497869018190385759 405.48761209517761017 29.009497869018190385759 78.10585734438186023
30.009497869018190385759 407.53315894389601226 30.009497869018190385759 78.23844630351335638
31.009497869018218807469 409.49942092391182769 31.009497869018218807469 78.36031658939236877
32.009497869018190385759 411.39161239699296857 32.009497869018190385759 78.47471216676811423
33.009497869018190385759 413.21444771433874621 33.009497869018190385759 78.59160481491876737
34.009497869018218807469 414.97236733052875479 34.009497869018218807469 78.70137487676305454
35.009497869018190385759 416.66913439909336603 35.009497869018190385759 78.80755752908369516
36.009497869018190385759 418.30824336672594654 36.009497869018190385759 78.91132385763481238
37.009497869018190385759 419.89293902842058515 37.009497869018190385759 79.01139000986883332
38.009497869018218807469 421.42608895384825018 38.009497869018218807469 79.10776074514785705
39.009497869018190385759 422.91038260832215201 39.009497869018190385759 79.19881295358214857
40.009497869018190385759 424.34831660018005550 40.009497869018190385759 79.28406113162965596
41.009497869018218807469 425.74223744629534849 41.009497869018218807469 79.36883900737915098
42.009497869018190385759 427.09429690333377039 42.009497869018190385759 79.44906268845730324
43.009497869018190385759 428.40649200609487934 43.009497869018190385759 79.52610711957697731
44.009497869018218807469 429.68077622719567898 44.009497869018218807469 79.59931449921646163
46.009497869018190385759 432.12266413386811337 46.009497869018190385759 79.73804259778727044
48.009497869018218807469 434.43280265082256619 48.009497869018218807469 79.86804756472757560
50.009497869018190385759 436.62232648372059884 50.009497869018190385759 79.98987242651971030
52.009497869018190385759 438.70115654988370579 52.009497869018190385759 80.10453952419643997
54.009497869018218807469 440.67810412355328253 54.009497869018218807469 80.21281595258261632
56.009497869018190385759 442.56106083348612401 56.009497869018190385759 80.31431928655547381
58.009497869018218807469 444.35700961173898804 58.009497869018218807469 80.40809847087619744
60.009497869018190385759 446.07224100208475193 60.009497869018190385759 80.49823662921735945
62.009497869018190385759 447.71242055247370217 62.009497869018190385759 80.58352986280610253
64.009497869018218807469 449.28266510405029521 64.009497869018218807469 80.66404334092845829
66.009497869018190385759 450.78759824844564719 66.009497869018190385759 80.73802482953995252
68.009497869018190385759 452.23140415089284261 68.009497869018190385759 80.80739837481894483
70.009497869018190385759 453.61795516597499045 70.009497869018190385759 80.87456493773511568
72.009497869018190385759 454.95078437427042672 72.009497869018190385759 80.93796632637626942
74.009497869018218807469 456.23312220569425790 74.009497869018218807469 80.99857846069535583
76.009497869018190385759 457.46787137846496307 76.009497869018190385759 81.05619589063991270
78.009497869018190385759 458.65769214535595211 78.009497869018190385759 81.10983173628808629
80.009497869018218807469 459.80508799400695352 80.009497869018218807469 81.16301203432506384
82.009497869018190385759 460.91246605558143301 82.009497869018190385759 81.21541035528848340
84.009497869018218807469 461.98201600857589710 84.009497869018218807469 81.26420704863308231
86.009497869018190385759 463.01575646062019587 86.009497869018190385759 81.31128891738620723
88.009497869018190385759 464.01550284906238630 88.009497869018190385759 81.35680335337694657
91.009497869018218807469 465.45506757731482139 91.009497869018218807469 81.42332523531267441
94.009497869018218807469 466.82725901029715487 94.009497869018218807469 81.49006151660228170
97.009497869018218807469 468.13702642143005050 97.009497869018218807469 81.56246349028405973
99.504748934509137825444 469.18221350494422950 99.504748934509137825444 81.58910012291227076
nan nan nan nan

