Time Pressure difference Time.1 Pressure.1 difference.1
(hr) (psi) (hr) (psi)
0.000200000000020850166 0.63623754655903852 0.000200000000020850166 0.50793834506323510
0.000399999999999067768 1.27068318957970261 0.000399999999999067768 1.32269010307860979
0.000600000000019917934 1.90360673384228507 0.000600000000019917934 1.93202160452147176
0.000799999999998135536 2.53514295275727708 0.000799999999998135536 2.55045754186611395
0.001007140329434719206 3.18786104058582120 0.001007140329434719206 3.19769603703217742
0.001267914553977789183 4.00772104649822225 0.001267914553977789183 4.01556008982628665
0.001596209851982166583 5.03707053272756067 0.001596209851982166583 5.04015932475107320
0.002009509145224797066 6.32876184659308194 0.002009509145224797066 6.32253648489904485
0.002529822128153114136 7.94864563269712132 0.002529822128153114136 7.92572971024559703
0.003184857364431081805 9.97859971111652122 0.003184857364431081805 9.92728801308125774
0.004009497869034817086 12.52018005580231019 0.004009497869034817086 12.42216858096042920
0.005047658755856332391 15.69898245074879206 0.005047658755856332391 15.52598692668397895
0.006354625877790454069 19.66978793465974817 0.006354625877790454069 19.37855590407807682
0.008000000000009777068 24.62255072496900965 0.008000000000009777068 24.14755675593409734
0.010071403294361402914 30.78922888094673027 0.010071403294361402914 30.03200876902567629
0.012679145539692626699 38.45136193599843466 0.012679145539692626699 37.26505451567484073
0.015962098519750611558 47.94817199875626557 0.015962098519750611558 46.11541468200693572
0.020095091452091651263 59.68479319533709315 0.020095091452091651263 56.88615745318680439
0.025298221281360611101 74.13977942290334511 0.025298221281360611101 69.90950910171497412
0.031848573644296607199 91.87090554051948743 0.031848573644296607199 85.53581235315220965
0.040094978690191851456 113.51753589741643680 0.040094978690191851456 104.11379292708977573
0.050476587558435426217 139.79726304128342917 0.050476587558435426217 125.95984245031598903
0.063546258777947173257 171.49403064863696500 0.063546258777947173257 151.31380838831915980
0.080000000000012505552 209.43428532525737751 0.080000000000012505552 180.28024738449951769
0.100714032943542974863 254.44789243797768563 0.100714032943542974863 212.75333131498371131
0.126791455396883634421 307.30953878775676458 0.126791455396883634421 248.33996614007057246
0.159620985197506115583 368.66408176004324559 0.159620985197506115583 286.27833720226715286
0.200950914520774404082 438.93033646302654915 0.200950914520774404082 325.39851426751044983
0.252982212813464002465 518.20826902827525373 0.252982212813464002465 364.12919259982464837
0.318485736442809752589 606.18605102015078501 0.318485736442809752589 400.59350159824543880
0.400949786901833249431 702.09170697138131345 0.400949786901833249431 432.83520892298048466
0.504765875584169521062 804.70477078177896146 0.504765875584169521062 459.09774469181195400
0.635462587779443310865 912.43685127727451345 0.635462587779443310865 478.16767468002859687
0.800000000000011368684 1023.50145809250921047 0.800000000000011368684 489.65695228285414942
1.007140329435344483500 1136.12385291723649061 1.007140329435344483500 494.08734404255801564
1.267914553968907398485 1248.74823421976225291 1.267914553968907398485 492.81694147563121078
1.596209851975117999245 1360.21112506347640192 1.596209851975117999245 487.72680644576752229
2.009509145207687197399 1469.80141747030893384 2.009509145207687197399 480.82304850746771763
2.529822128134725289783 1577.24752010405131841 2.529822128134725289783 473.97021077761326069
3.184857364427983839050 1682.65111533590629733 3.184857364427983839050 468.53748590564890719
4.009497869018204596614 1786.31068112320372165 4.009497869018204596614 465.32657654946899584
5.009497869018190385759 1885.27175205636490318 5.009497869018190385759 464.61604802956230742
6.009497869018190385759 1965.46304629032624689 6.009497869018190385759 465.78442528960050595
7.009497869018204596614 2032.90452937492318597 7.009497869018204596614 467.91775422104143445
8.009497869018190385759 2091.09419338023644741 8.009497869018190385759 470.47536671763350569
9.009497869018204596614 2142.24615503415770945 9.009497869018204596614 473.22190657988863904
10.009497869018190385759 2187.85319492941016506 10.009497869018190385759 475.99054113179209935
11.009497869018190385759 2228.97170205237262053 11.009497869018190385759 478.57038097618283246
12.009497869018204596614 2266.37752601993406643 12.009497869018204596614 481.05019662835155714
13.009497869018190385759 2300.65559739071295553 13.009497869018190385759 483.41291167817212227
14.009497869018204596614 2332.26612828588804405 14.009497869018204596614 485.65249947847740941
15.009497869018190385759 2361.57136420432107116 15.009497869018190385759 487.78616321119056920
16.009497869018190385759 2388.86471979442194424 16.009497869018190385759 489.80014422000266450
17.009497869018204596614 2414.38680338379390378 17.009497869018204596614 491.66692446922849058
18.009497869018190385759 2438.33519516778051184 18.009497869018190385759 493.40767354469994643
19.009497869018204596614 2460.87383718693627088 19.009497869018204596614 494.97052851416952990
20.009497869018190385759 2482.14333736465005131 20.009497869018190385759 496.44660359788986170
21.009497869018190385759 2502.26344581250623378 21.009497869018190385759 497.84463690009727088
22.009497869018204596614 2521.33666543155050022 22.009497869018204596614 499.19222385711748302
23.009497869018190385759 2539.46158884657279486 23.009497869018190385759 500.51792207558003156
24.009497869018204596614 2556.72099215553225804 24.009497869018204596614 501.77588812503023519
25.009497869018204596614 2573.18577500103856437 25.009497869018204596614 502.98970689674820278
26.009497869018190385759 2588.91809965669744997 26.009497869018190385759 504.11616763884751435
27.009497869018204596614 2603.97466210131187836 27.009497869018204596614 505.15168173779954941
28.009497869018190385759 2618.40064295376714654 28.009497869018190385759 506.11315890905024162
29.009497869018190385759 2632.23314292293298422 29.009497869018190385759 507.02615869319072317
30.009497869018190385759 2645.51186229681616169 30.009497869018190385759 507.88686329229858529
31.009497869018218807469 2658.27590192980051143 31.009497869018218807469 508.67798735147925981
32.009497869018190385759 2670.55911098386968661 32.009497869018190385759 509.42058915037603128
33.009497869018190385759 2682.39209278969065053 33.009497869018190385759 510.17940074769302328
34.009497869018218807469 2693.80367267105930296 34.009497869018218807469 510.89197589491948293
35.009497869018190385759 2704.81827923479249876 35.009497869018190385759 511.58126328201785782
36.009497869018190385759 2715.45859677044154523 36.009497869018190385759 512.25486504193440851
37.009497869018190385759 2725.74568894720459866 37.009497869018190385759 512.90444701321632692
38.009497869018218807469 2735.69817066650603010 38.009497869018218807469 513.53004009138362562
39.009497869018190385759 2745.33350066080265606 39.009497869018190385759 514.12110781732133091
40.009497869018190385759 2754.66788572659288548 40.009497869018190385759 514.67449853244329461
41.009497869018218807469 2763.71655833781551337 41.009497869018218807469 515.22483626824089242
42.009497869018190385759 2772.49348667757385556 42.009497869018190385759 515.74561033354484607
43.009497869018190385759 2781.01163454804009234 43.009497869018190385759 516.24574621691488119
44.009497869018218807469 2789.28368296637199819 44.009497869018218807469 516.72097378304920312
46.009497869018190385759 2805.13526039443195259 46.009497869018190385759 517.62153076190725187
48.009497869018218807469 2820.13158330957730868 48.009497869018218807469 518.46546131001116464
50.009497869018190385759 2834.34493293669447667 50.009497869018190385759 519.25629049757708344
52.009497869018190385759 2847.83971116280417846 52.009497869018190385759 520.00065487741085235
54.009497869018218807469 2860.67311659865981710 54.009497869018218807469 520.70353406507013005
56.009497869018190385759 2872.89637795296948752 56.009497869018190385759 521.36244553814822211
58.009497869018218807469 2884.55482510671254204 58.009497869018218807469 521.97121549738278645
60.009497869018190385759 2895.68929328471995177 60.009497869018190385759 522.55634964390253572
62.009497869018190385759 2906.33656053554932441 62.009497869018190385759 523.11003283821582954
64.009497869018218807469 2916.52984296358090432 64.009497869018218807469 523.63268812839999100
66.009497869018190385759 2926.29915473143501004 66.009497869018190385759 524.11294084260691761
68.009497869018190385759 2935.67165745410102318 68.009497869018190385759 524.56328097551966039
70.009497869018190385759 2944.67248861980351649 70.009497869018190385759 524.99929442631434995
72.009497869018190385759 2953.32458331094221649 72.009497869018190385759 525.41086615257825088
74.009497869018218807469 2961.64891194543906749 74.009497869018218807469 525.80433136349699907
76.009497869018190385759 2969.66431759240822430 76.009497869018190385759 526.17835637483187838
78.009497869018190385759 2977.38806935036154755 78.009497869018190385759 526.52653483048027283
80.009497869018218807469 2984.83641867296000783 80.009497869018218807469 526.87175608722884590
82.009497869018190385759 2992.02499151335041461 82.009497869018190385759 527.21190111992370930
84.009497869018218807469 2998.96800222516230860 84.009497869018218807469 527.52866609536397391
86.009497869018190385759 3005.67855465114462277 86.009497869018190385759 527.83429924337156081
88.009497869018190385759 3012.16843374899826813 88.009497869018190385759 528.12975736175201291
91.009497869018218807469 3021.51340478155179881 91.009497869018218807469 528.56158584957211133
94.009497869018218807469 3030.42102035498010082 94.009497869018218807469 528.99480611624869653
97.009497869018218807469 3038.92340880352048771 97.009497869018218807469 529.46480536913213655
99.504748934509137825444 3045.70826732870591513 99.504748934509137825444 529.63771774704071049
nan nan nan nan

