Time Pressure difference Time.1 Pressure.1 difference.1
(hr) (psi) (hr) (psi)
0.000200000000020850166 0.70019354014264945 0.000200000000020850166 0.55899742152520526
0.000399999999999067768 1.39841505067322380 0.000399999999999067768 1.45564981317920084
0.000600000000019917934 2.09496145774026932 0.000600000000019917934 2.12623265353994872
0.000799999999998135536 2.78998108247308663 0.000799999999998135536 2.80683512766727716
0.001007140329434719206 3.50831182403896502 0.001007140329434719206 3.51913545589833632
0.001267914553977789183 4.41058595587206437 0.001267914553977789183 4.41921299702814530
0.001596209851982166583 5.54340791003829469 0.001596209851982166583 5.54680719421038493
0.002009509145224797066 6.96494286772580740 0.002009509145224797066 6.95809171902075008
0.002529822128153114136 8.74766092475675450 0.002529822128153114136 8.72244144352093720
0.003184857364431081805 10.98167043925747777 0.003184857364431081805 10.92520077679830237
0.004009497869034817086 13.77873601441429230 0.004009497869034817086 13.67087221116141116
0.005047658755856332391 17.27707859788672451 0.005047658755856332391 17.08669318432714235
0.006354625877790454069 21.64703815785661334 0.006354625877790454069 21.32653084482743822
0.008000000000009777068 27.09766352630401443 0.008000000000009777068 26.57492212173948332
0.010071403294361402914 33.88422969534999396 0.010071403294361402914 33.05089215703478800
0.012679145539692626699 42.31657716977372985 0.012679145539692626699 41.01101952573615250
0.015962098519750611558 52.76802740855291063 0.015962098519750611558 50.75103730669953706
0.020095091452091651263 65.68443950870648962 0.020095091452091651263 62.60447876375518916
0.025298221281360611101 81.59247265470955313 0.025298221281360611101 76.93696628295786866
0.031848573644296607199 101.10597045777797121 0.031848573644296607199 94.13405980901738701
0.040094978690191851456 124.92856757378858390 0.040094978690191851456 114.57953973568757533
0.050476587558435426217 153.84999052715659218 0.050476587558435426217 138.62160206999527645
0.063546258777947173257 188.73298673211613163 0.063546258777947173257 166.52420427069588982
0.080000000000012505552 230.48707901983286206 0.080000000000012505552 198.40241324429908332
0.100714032943542974863 280.02555264388405476 0.100714032943542974863 234.13976279181628115
0.126791455396883634421 338.20096762151297298 0.126791455396883634421 273.30364419853719937
0.159620985197506115583 405.72300381686221726 0.159620985197506115583 315.05566352677698205
0.200950914520774404082 483.05257655134641936 0.200950914520774404082 358.10828658944035396
0.252982212813464002465 570.29970077132645656 0.252982212813464002465 400.73225765228750106
0.318485736442809752589 667.12120236290741104 0.318485736442809752589 440.86203896517088197
0.400949786901833249431 772.66750519174206602 0.400949786901833249431 476.34475342307115397
0.504765875584169521062 885.59545922851145860 0.504765875584169521062 505.24725688668087287
0.635462587779443310865 1004.15700473465062714 0.635462587779443310865 526.23413806170253793
0.800000000000011368684 1126.38606941512421145 0.800000000000011368684 538.87834304757973314
1.007140329435344483500 1250.32951437236329184 1.007140329435344483500 543.75408750375515865
1.267914553968907398485 1374.27514549250599885 1.267914553968907398485 542.35598128453932532
1.596209851975117999245 1496.94253058552294533 1.596209851975117999245 536.75417471773118905
2.009509145207687197399 1617.54907953977840407 2.009509145207687197399 529.15643589007220271
2.529822128134725289783 1735.79590006229159371 2.529822128134725289783 521.61473588189028305
3.184857364427983839050 1851.79489585922851802 3.184857364427983839050 515.63590159068144203
4.009497869018204596614 1965.87454854681550387 4.009497869018204596614 512.10222458381508659
5.009497869018190385759 2074.78340337273584737 5.009497869018190385759 511.32027217874809821
6.009497869018190385759 2163.03570237956273559 6.009497869018190385759 512.60609728346378233
7.009497869018204596614 2237.25655125725916150 7.009497869018204596614 514.95387311793467688
8.009497869018190385759 2301.29556791062532284 8.009497869018190385759 517.76858243206925181
9.009497869018204596614 2357.58943693706942213 9.009497869018204596614 520.79121050502101298
10.009497869018190385759 2407.78099650847616431 10.009497869018190385759 523.83815427428294242
11.009497869018190385759 2453.03282614902127534 11.009497869018190385759 526.67732527796624709
12.009497869018204596614 2494.19876558068472150 12.009497869018204596614 529.40641743825108279
13.009497869018190385759 2531.92254386471449834 13.009497869018190385759 532.00663778681337135
14.009497869018204596614 2566.71063465405177340 14.009497869018204596614 534.47135386469517471
15.009497869018190385759 2598.96169715958603774 15.009497869018190385759 536.81949815539633164
16.009497869018190385759 2628.99864071370484453 16.009497869018190385759 539.03592895230065096
17.009497869018204596614 2657.08626012080731016 17.009497869018204596614 541.09036204642245593
18.009497869018190385759 2683.44199677080769106 18.009497869018190385759 543.00609503679118006
19.009497869018204596614 2708.24627251773836178 19.009497869018204596614 544.72605161546323416
20.009497869018190385759 2731.65382950182765853 20.009497869018190385759 546.35050500394402206
21.009497869018190385759 2753.79645537851547488 21.009497869018190385759 547.88907167987213143
22.009497869018204596614 2774.78695686527044018 22.009497869018204596614 549.37212103335514257
23.009497869018190385759 2794.73383733376067539 23.009497869018190385759 550.83108134427402547
24.009497869018204596614 2813.72819371685818624 24.009497869018204596614 552.21550090000062028
25.009497869018204596614 2831.84805264474653086 25.009497869018204596614 553.55133539681298771
26.009497869018190385759 2849.16182507910752975 26.009497869018190385759 554.79103044327473526
27.009497869018204596614 2865.73190620288005448 27.009497869018204596614 555.93063669055482023
28.009497869018190385759 2881.60801828985040629 28.009497869018190385759 556.98876365578246350
29.009497869018190385759 2896.83099149351482993 29.009497869018190385759 557.99354018062626892
30.009497869018190385759 2911.44451686190086548 30.009497869018190385759 558.94076469374385852
31.009497869018218807469 2925.49162575303080303 31.009497869018218807469 559.81141427845557246
32.009497869018190385759 2939.00956992089095365 32.009497869018190385759 560.62866403886027911
33.009497869018190385759 2952.03202901006397951 33.009497869018190385759 561.46375304217394842
34.009497869018218807469 2964.59072592911616084 34.009497869018218807469 562.24795780602755713
35.009497869018190385759 2976.71254490199771681 35.009497869018190385759 563.00653387303009367
36.009497869018190385759 2988.42245049279654268 36.009497869018190385759 563.74784755920461521
37.009497869018190385759 2999.74362373693702466 37.009497869018190385759 564.46272693491039263
38.009497869018218807469 3010.69655074655975113 38.009497869018218807469 565.15120600135298901
39.009497869018190385759 3021.30044524419963636 39.009497869018190385759 565.80168915143860886
40.009497869018190385759 3031.57314316908332330 40.009497869018190385759 566.41070791494735204
41.009497869018218807469 3041.53140819683903828 41.009497869018218807469 567.01636680695457926
42.009497869018190385759 3051.19061262296918358 42.009497869018190385759 567.58949022347042046
43.009497869018190385759 3060.56502339947473956 43.009497869018190385759 568.13990086274054647
44.009497869018218807469 3069.66859626716950515 44.009497869018218807469 568.66289934609721968
46.009497869018190385759 3087.11360902415981400 46.009497869018190385759 569.65398228758192545
48.009497869018218807469 3103.61739520884293597 48.009497869018218807469 570.58274658529956014
50.009497869018190385759 3119.25950191335959971 50.009497869018190385759 571.45307165725523646
52.009497869018190385759 3134.11080484366038945 52.009497869018190385759 572.27226117709835762
54.009497869018218807469 3148.23425234030037245 54.009497869018218807469 573.04579532226387073
56.009497869018190385759 3161.68622273414212032 56.009497869018190385759 573.77094202174794191
58.009497869018218807469 3174.51660256522018244 58.009497869018218807469 574.44090687244602123
60.009497869018190385759 3186.77033190472411661 60.009497869018190385759 575.08485998669698347
62.009497869018190385759 3198.48788581131611863 62.009497869018190385759 575.69420063004702115
64.009497869018218807469 3209.70581934503752564 64.009497869018218807469 576.26939437629403074
66.009497869018190385759 3220.45716375796337161 66.009497869018190385759 576.79792314662870467
68.009497869018190385759 3230.77181101019232301 68.009497869018190385759 577.29353245739287104
70.009497869018190385759 3240.67742546539784598 70.009497869018190385759 577.77337493653135425
72.009497869018190385759 3250.19924769076260418 72.009497869018190385759 578.22631875538309032
74.009497869018218807469 3259.36035609661212220 74.009497869018218807469 578.65933595225578756
76.009497869018190385759 3268.18148789869474058 76.009497869018190385759 579.07095877804613338
78.009497869018190385759 3276.68164812317854739 78.009497869018190385759 579.45413689568522386
80.009497869018218807469 3284.87872185549031201 80.009497869018218807469 579.83406055030525295
82.009497869018190385759 3292.78990580385698195 82.009497869018190385759 580.20839770769657662
84.009497869018218807469 3300.43084317991088028 84.009497869018218807469 580.55700459320087248
86.009497869018190385759 3307.81595505341329044 86.009497869018190385759 580.89336065556426547
88.009497869018190385759 3314.95821103186108303 88.009497869018190385759 581.21851887200648434
91.009497869018218807469 3325.24255904810479478 91.009497869018218807469 581.69375570651334328
94.009497869018218807469 3335.04558767525895746 94.009497869018218807469 582.17052422454014504
97.009497869018218807469 3344.40265485818235902 97.009497869018218807469 582.68776883313103099
99.504748934509137825444 3351.86954224294868254 99.504748934509137825444 582.87806274250033312
nan nan nan nan

