Time Pressure difference Time.1 Pressure.1 difference.1
(hr) (psi) (hr) (psi)
0.000200000000020850166 0.24253441722616090 0.000200000000020850166 0.19362662762201654
0.000399999999999067768 0.48438575895205382 0.000399999999999067768 0.50421084869315136
0.000600000000019917934 0.72565687504170651 0.000600000000019917934 0.73648865342071779
0.000799999999998135536 0.96639914125995408 0.000799999999998135536 0.97223707862259179
0.001007140329434719206 1.21521595803010429 0.001007140329434719206 1.21896506894699197
0.001267914553977789183 1.52774744853457034 0.001267914553977789183 1.53073570003821868
0.001596209851982166583 1.92013654772382214 0.001596209851982166583 1.92131399846907791
0.002009509145224797066 2.41253062559422959 0.002009509145224797066 2.41015751121477972
0.002529822128153114136 3.03003201664172295 0.002529822128153114136 3.02129644307012324
0.003184857364431081805 3.80385263139167673 0.003184857364431081805 3.78429255851139290
0.004009497869034817086 4.77270571317790449 0.004009497869034817086 4.73534363660632529
0.005047658755856332391 5.98446850602956637 0.005047658755856332391 5.91852243158188163
0.006354625877790454069 7.49814370355175708 0.006354625877790454069 7.38712574933524468
0.008000000000009777068 9.38614205181586136 0.008000000000009777068 9.20507385474250306
0.010071403294361402914 11.73688620526951176 0.010071403294361402914 11.44823310777480074
0.012679145539692626699 14.65769932808295195 0.012679145539692626699 14.20547770049223679
0.015962098519750611558 18.27789324234572987 0.015962098519750611558 17.57924423909402734
0.020095091452091651263 22.75190550005017442 0.020095091452091651263 21.68506263228531239
0.025298221281360611101 28.26216134658978518 0.025298221281360611101 26.64957788211589218
0.031848573644296607199 35.02128514077244148 0.031848573644296607199 32.60634100146272374
0.040094978690191851456 43.27300324026840883 0.040094978690191851456 39.68828659883840260
0.050476587558435426217 53.29086267370073671 0.050476587558435426217 48.01602349280975801
0.063546258777947173257 65.37370358929764791 0.063546258777947173257 57.68098178771435158
0.080000000000012505552 79.83656829631220830 0.080000000000012505552 68.72301858521390727
0.100714032943542974863 96.99580233928129758 0.100714032943542974863 81.10179209396245881
0.126791455396883634421 117.14671713580284518 0.126791455396883634421 94.66745445548382065
0.159620985197506115583 140.53513299469011599 0.159620985197506115583 109.12960112671279944
0.200950914520774404082 167.32070267258976060 0.200950914520774404082 124.04225348056532141
0.252982212813464002465 197.54153336325896362 0.252982212813464002465 138.80642851063814192
0.318485736442809752589 231.07875574136295427 0.318485736442809752589 152.70666118366534647
0.400949786901833249431 267.63809195253702455 0.400949786901833249431 164.99723368865574002
0.504765875584169521062 306.75429904475123521 0.504765875584169521062 175.00853975197009049
0.635462587779443310865 347.82188064355631241 0.635462587779443310865 182.27801697985421470
0.800000000000011368684 390.15982475589123624 0.800000000000011368684 186.65774160129691950
1.007140329435344483500 433.09159928437730969 1.007140329435344483500 188.34661156713698915
1.267914553968907398485 476.02413106027489675 1.267914553968907398485 187.86233278183328821
1.596209851975117999245 518.51390146022868066 1.596209851975117999245 185.92196799238135441
2.009509145207687197399 560.28983538032662182 2.009509145207687197399 183.29024825611043070
2.529822128134725289783 601.24840191956002400 2.529822128134725289783 180.67793935647918602
3.184857364427983839050 641.42836250402706355 3.184857364427983839050 178.60697896142227137
4.009497869018204596614 680.94349724278777103 4.009497869018204596614 177.38297696141637516
5.009497869018190385759 718.66756083610789574 5.009497869018190385759 177.11212274756161378
6.009497869018190385759 749.23656594879287240 6.009497869018190385759 177.55750937932552347
7.009497869018204596614 774.94532973561047129 7.009497869018204596614 178.37073659601057329
8.009497869018190385759 797.12729042693081283 8.009497869018190385759 179.34570115084724762
9.009497869018204596614 816.62647163181998167 9.009497869018204596614 180.39268501478784401
10.009497869018190385759 834.01192287126332303 10.009497869018190385759 181.44809139749773408
11.009497869018190385759 849.68634073014732166 11.009497869018190385759 182.43152904052919894
12.009497869018204596614 863.94547989271632105 12.009497869018204596614 183.37683735702174204
13.009497869018190385759 877.01231649880980967 13.009497869018190385759 184.27750680160085039
14.009497869018204596614 889.06228388965973863 14.009497869018204596614 185.13124001007230390
15.009497869018190385759 900.23347042775696991 15.009497869018190385759 185.94459485335201521
16.009497869018190385759 910.63772608351337112 16.009497869018190385759 186.71232651728561791
17.009497869018204596614 920.36677100269969287 17.009497869018204596614 187.42394509793044222
18.009497869018190385759 929.49592296213040754 18.009497869018190385759 188.08752046351486342
19.009497869018204596614 938.08767683888436295 19.009497869018204596614 188.68328241010115676
20.009497869018190385759 946.19563252020600430 20.009497869018190385759 189.24596377360813904
21.009497869018190385759 953.86543887369691674 21.009497869018190385759 189.77889552849663346
22.009497869018204596614 961.13617011228825504 22.009497869018204596614 190.29259708391421668
23.009497869018190385759 968.04540984751849919 23.009497869018190385759 190.79795462933336125
24.009497869018204596614 974.62471241438026937 24.009497869018204596614 191.27749260118645225
25.009497869018204596614 980.90110483068315261 25.009497869018204596614 191.74020158466120733
26.009497869018190385759 986.89828342004670958 26.009497869018190385759 192.16960959600979209
27.009497869018204596614 992.63786074880306387 27.009497869018204596614 192.56434865200711215
28.009497869018190385759 998.13705971605747891 28.009497869018190385759 192.93086475384163236
29.009497869018190385759 1003.41002315077867024 29.009497869018190385759 193.27890122508051718
30.009497869018190385759 1008.47188484421712928 30.009497869018190385759 193.60700271716865473
31.009497869018218807469 1013.33755008290040678 31.009497869018218807469 193.90858003476753879
32.009497869018190385759 1018.01992220272848044 32.009497869018190385759 194.19166061607023721
33.009497869018190385759 1022.53066722531286814 33.009497869018190385759 194.48092038946001026
34.009497869018218807469 1026.88077339418987322 34.009497869018218807469 194.75255477978654994
35.009497869018190385759 1031.07955291979033063 35.009497869018190385759 195.01531185163082682
36.009497869018190385759 1035.13565307698286233 36.009497869018190385759 195.27208954601155710
37.009497869018190385759 1039.05710335846470116 37.009497869018190385759 195.51971087187880016
38.009497869018218807469 1042.85099978409903088 38.009497869018218807469 195.75818760663707963
39.009497869018190385759 1046.52399764093274825 39.009497869018190385759 195.98350324106769449
40.009497869018190385759 1050.08227497671668971 40.009497869018190385759 196.19445635962591723
41.009497869018218807469 1053.53163842642561576 41.009497869018218807469 196.40424567927723842
42.009497869018190385759 1056.87741267604633322 42.009497869018190385759 196.60276529686044000
43.009497869018190385759 1060.12453954050602078 43.009497869018190385759 196.79341761793622823
44.009497869018218807469 1063.27785303678933815 44.009497869018218807469 196.97457486246784697
46.009497869018190385759 1069.32049090753821474 46.009497869018190385759 197.31786812333797343
48.009497869018218807469 1075.03710486474756181 48.009497869018218807469 197.63957532966486497
50.009497869018190385759 1080.45524858683393177 50.009497869018190385759 197.94104024189618940
52.009497869018190385759 1085.59947214039016217 52.009497869018190385759 198.22479272089290703
54.009497869018218807469 1090.49157969557268189 54.009497869018218807469 198.49273100130614012
56.009497869018190385759 1095.15109968964361542 56.009497869018190385759 198.74390874300166843
58.009497869018218807469 1099.59531192057443150 58.009497869018218807469 198.97597248725296026
60.009497869018190385759 1103.83978281871804938 60.009497869018190385759 199.19902623501243966
62.009497869018190385759 1107.89853221459588895 62.009497869018190385759 199.41009084694388775
64.009497869018218807469 1111.78422212188729645 64.009497869018218807469 199.60932758941618204
66.009497869018190385759 1115.50829397072993743 66.009497869018190385759 199.79240042564123314
68.009497869018190385759 1119.08110179712457466 68.009497869018190385759 199.96407055463672009
70.009497869018190385759 1122.51222803783639392 70.009497869018190385759 200.13027933744618281
72.009497869018190385759 1125.81041557022854249 72.009497869018190385759 200.28717090933790246
74.009497869018218807469 1128.98365833951447712 74.009497869018218807469 200.43716025866984864
76.009497869018190385759 1132.03913934332013014 76.009497869018190385759 200.57973898361740339
78.009497869018190385759 1134.98344158003351367 78.009497869018190385759 200.71246497454339419
80.009497869018218807469 1137.82276012076295046 80.009497869018218807469 200.84406367816032457
82.009497869018190385759 1140.56305159516750791 82.009497869018190385759 200.97372731986641270
84.009497869018218807469 1143.20973452969633399 84.009497869018218807469 201.09447845932933774
86.009497869018190385759 1145.76780412289053857 86.009497869018190385759 201.21098613454893211
88.009497869018190385759 1148.24175281293400985 88.009497869018190385759 201.32361507784804644
91.009497869018218807469 1151.80406553030434225 91.009497869018218807469 201.48822854840085483
94.009497869018218807469 1155.19965788988770328 94.009497869018218807469 201.65337256650735753
97.009497869018218807469 1158.44077724625071824 97.009497869018218807469 201.83253677256735159
99.504748934509137825444 1161.02717240206516180 99.504748934509137825444 201.89845115161344324
nan nan nan nan

