Time Pressure difference Time.1 Pressure.1 difference.1
(hr) (psi) (hr) (psi)
0.000200000000020850166 0.11462243005893906 0.000200000000020850166 0.09150847469807630
0.000399999999999067768 0.22892203676501172 0.000399999999999067768 0.23829142849196885
0.000600000000019917934 0.34294742724573801 0.000600000000019917934 0.34806655538376391
0.000799999999998135536 0.45672288182833448 0.000799999999998135536 0.45948190702026598
0.001007140329434719206 0.57431439112381633 0.001007140329434719206 0.57608623121467428
0.001267914553977789183 0.72201762978688588 0.001267914553977789183 0.72342988563450061
0.001596209851982166583 0.90746179310235431 0.001596209851982166583 0.90801825955045457
0.002009509145224797066 1.14016858332877979 0.002009509145224797066 1.13904704297136838
0.002529822128153114136 1.43200143252245815 0.002529822128153114136 1.42787297651944156
0.003184857364431081805 1.79771117510976497 0.003184857364431081805 1.78846703107730209
0.004009497869034817086 2.25559379595394116 0.004009497869034817086 2.23793637620435915
0.005047658755856332391 2.82827621175369881 0.005047658755856332391 2.79710991629554684
0.006354625877790454069 3.54364325715802186 0.006354625877790454069 3.49117586783652012
0.008000000000009777068 4.43591644914585270 0.008000000000009777068 4.35034312313173022
0.010071403294361402914 5.54688457646298883 0.010071403294361402914 5.41046633175658354
0.012679145539692626699 6.92726886053235447 0.012679145539692626699 6.71354768036961858
0.015962098519750611558 8.63818242275243442 0.015962098519750611558 8.30799898970882111
0.020095091452091651263 10.75261287331138149 0.020095091452091651263 10.24842001114853574
0.025298221281360611101 13.35677488297736382 0.025298221281360611101 12.59466351963011377
0.031848573644296607199 16.55115530625546683 0.031848573644296607199 15.40984608973238323
0.040094978690191851456 20.45093988752410752 0.040094978690191851456 18.75679298164280695
0.050476587558435426217 25.18540770195445688 0.050476587558435426217 22.69250425345118671
0.063546258777947173257 30.89579142233929687 0.063546258777947173257 27.26019002296089511
0.080000000000012505552 37.73098090716125341 0.080000000000012505552 32.47868686561479024
0.100714032943542974863 45.84048192746855932 0.100714032943542974863 38.32892914029732623
0.126791455396883634421 55.36385946829038573 0.126791455396883634421 44.74009833855057394
0.159620985197506115583 66.41728888105217266 0.159620985197506115583 51.57494847769304158
0.200950914520774404082 79.07622249594994912 0.200950914520774404082 58.62270883670554156
0.252982212813464002465 93.35866987715664322 0.252982212813464002465 65.60029840571255022
0.318485736442809752589 109.20845305584961693 0.318485736442809752589 72.16958644981444593
0.400949786901833249431 126.48649551181541995 0.400949786901833249431 77.97814468847428770
0.504765875584169521062 144.97292215128655357 0.504765875584169521062 82.70951536223245171
0.635462587779443310865 164.38157372880402818 0.635462587779443310865 86.14509021650644627
0.800000000000011368684 184.39060211066089323 0.800000000000011368684 88.21496007184579469
1.007140329435344483500 204.68027637412350828 1.007140329435344483500 89.01312464474283104
1.267914553968907398485 224.97030851478746172 1.267914553968907398485 88.78425316401711598
1.596209851975117999245 245.05109041613545173 1.596209851975117999245 87.86723144845420563
2.009509145207687197399 264.79451124138722662 2.009509145207687197399 86.62347349090148896
2.529822128134725289783 284.15164200307975761 2.529822128134725289783 85.38888914792511287
3.184857364427983839050 303.14080145738262217 3.184857364427983839050 84.41014759135711643
4.009497869018204596614 321.81576239556414976 4.009497869018204596614 83.83168089272417944
5.009497869018190385759 339.64425820336600736 5.009497869018190385759 83.70367444919007482
6.009497869018190385759 354.09125377031989501 6.009497869018190385759 83.91416539159905597
7.009497869018204596614 366.24128597093920234 7.009497869018204596614 84.29849880222418790
8.009497869018190385759 376.72454136615220932 8.009497869018190385759 84.75926972197575537
9.009497869018204596614 385.93990782599712475 9.009497869018204596614 85.25407716452301088
10.009497869018190385759 394.15631971313126769 10.009497869018190385759 85.75286511251606214
11.009497869018190385759 401.56409253685040994 11.009497869018190385759 86.21764043696244073
12.009497869018204596614 408.30300077121529512 12.009497869018204596614 86.66439573722260548
13.009497869018190385759 414.47842355080734933 13.009497869018190385759 87.09005458431821012
14.009497869018204596614 420.17327115333233678 14.009497869018204596614 87.49353123763691542
15.009497869018190385759 425.45280451722760517 15.009497869018190385759 87.87792496494033401
16.009497869018190385759 430.36988424494813898 16.009497869018190385759 88.24075705268977288
17.009497869018204596614 434.96785752867310748 17.009497869018204596614 88.57706994354248309
18.009497869018190385759 439.28231975607531012 18.009497869018190385759 88.89067747933235353
19.009497869018204596614 443.34280617728092011 19.009497869018204596614 89.17223620751356350
20.009497869018190385759 447.17464824585078986 20.009497869018190385759 89.43816096149973305
21.009497869018190385759 450.79941974167866192 21.009497869018190385759 89.69002596894704027
22.009497869018204596614 454.23558724484860250 22.009497869018204596614 89.93280273143891179
23.009497869018190385759 457.50091287314234023 23.009497869018190385759 90.17163609194523133
24.009497869018204596614 460.61030929172773085 24.009497869018204596614 90.39826705124565365
25.009497869018204596614 463.57654954326807228 25.009497869018204596614 90.61694458453166590
26.009497869018190385759 466.41083257522751637 26.009497869018190385759 90.81988398715530764
27.009497869018204596614 469.12337254566716638 27.009497869018204596614 91.00643874649651366
28.009497869018190385759 471.72230904389016359 28.009497869018190385759 91.17965526037720281
29.009497869018190385759 474.21432600961452408 29.009497869018190385759 91.34413825020928357
30.009497869018190385759 476.60657571404783539 30.009497869018190385759 91.49919991427834987
31.009497869018218807469 478.90610243643925514 31.009497869018218807469 91.64172618081478561
32.009497869018190385759 481.11900432868679900 32.009497869018190385759 91.77551083910168472
33.009497869018190385759 483.25079478456564175 33.009497869018190385759 91.91221580049821682
34.009497869018218807469 485.30666687807598692 34.009497869018218807469 92.04059095757035891
35.009497869018190385759 487.29102158538040612 35.009497869018190385759 92.16477066960635511
36.009497869018190385759 489.20794563227275376 36.009497869018190385759 92.28612451147121476
37.009497869018190385759 491.06123377900036076 37.009497869018190385759 92.40315102849066875
38.009497869018218807469 492.85423962399204356 38.009497869018218807469 92.51585578669835286
39.009497869018190385759 494.59010847413941292 39.009497869018190385759 92.62234057283335176
40.009497869018190385759 496.27176009173604143 40.009497869018190385759 92.72203759461771710
41.009497869018218807469 497.90193870837930490 41.009497869018218807469 92.82118460185020581
42.009497869018190385759 499.48316078525471085 42.009497869018190385759 92.91500551700937649
43.009497869018190385759 501.01776183763644212 43.009497869018190385759 93.00510832628492608
44.009497869018218807469 502.50802643519494950 44.009497869018218807469 93.09072373637179965
46.009497869018190385759 505.36379364808306036 46.009497869018190385759 93.25296507198849838
48.009497869018218807469 508.06548106621625038 48.009497869018218807469 93.40500477908818766
50.009497869018190385759 510.62611063350374252 50.009497869018190385759 93.54747792253998284
52.009497869018190385759 513.05728477867751280 52.009497869018190385759 93.68158012151786806
54.009497869018218807469 515.36930821229111643 54.009497869018218807469 93.80820848691864455
56.009497869018190385759 517.57141012729732665 56.009497869018190385759 93.92691577580215778
58.009497869018218807469 519.67175700355915069 58.009497869018218807469 94.03658973712639124
60.009497869018190385759 521.67770557870926496 60.009497869018190385759 94.14200554942370047
62.009497869018190385759 523.59588166306241419 62.009497869018190385759 94.24175526328170349
64.009497869018218807469 525.43226935897405383 64.009497869018218807469 94.33591509362820204
66.009497869018190385759 527.19227591767378271 66.009497869018190385759 94.42243581759757376
68.009497869018190385759 528.88079468494242974 68.009497869018190385759 94.50356759088995773
70.009497869018190385759 530.50235434664875811 70.009497869018190385759 94.58211831701224526
72.009497869018190385759 532.06108681058753973 72.009497869018190385759 94.65626570372819515
74.009497869018218807469 533.56077003716779927 74.009497869018218807469 94.72715108115218641
76.009497869018190385759 535.00479873074709758 76.009497869018190385759 94.79453417718903552
78.009497869018190385759 536.39628403439940030 78.009497869018190385759 94.85726084413352055
80.009497869018218807469 537.73815375570302422 80.009497869018218807469 94.91945475200726889
82.009497869018190385759 539.03322301415460061 82.009497869018190385759 94.98073414432045070
84.009497869018218807469 540.28405262019896327 84.009497869018218807469 95.03780146365565429
86.009497869018190385759 541.49300331835240740 86.009497869018190385759 95.09286331016353699
88.009497869018190385759 542.66219824720849374 88.009497869018190385759 95.14609205733916042
91.009497869018218807469 544.34575699719869135 91.009497869018218807469 95.22388883451820618
94.009497869018218807469 545.95052324933055843 94.009497869018218807469 95.30193634992470209
97.009497869018218807469 547.48228513692663455 97.009497869018218807469 95.38660984456950587
99.504748934509137825444 548.70462257357883118 99.504748934509137825444 95.41776116069401326
nan nan nan nan

