Time Pressure difference Time.1 Pressure.1 difference.1
(hr) (psi) (hr) (psi)
0.000200000000020850166 0.01079776515047976 0.000200000000020850166 0.00862036355851444
0.000399999999999067768 0.02156511940539966 0.000399999999999067768 0.02244774326373620
0.000600000000019917934 0.03230664169706228 0.000600000000019917934 0.03278887840571689
0.000799999999998135536 0.04302461930266920 0.000799999999998135536 0.04328452747292361
0.001007140329434719206 0.05410208032325806 0.001007140329434719206 0.05426899279558526
0.001267914553977789183 0.06801615353064869 0.001267914553977789183 0.06814919212498918
0.001596209851982166583 0.08548553123427975 0.001596209851982166583 0.08553795198663702
0.002009509145224797066 0.10740718538604446 0.002009509145224797066 0.10730153303353471
0.002529822128153114136 0.13489868567240546 0.002529822128153114136 0.13450977315038221
0.003184857364431081805 0.16934960345236919 0.003184857364431081805 0.16847877828989080
0.004009497869034817086 0.21248347353189301 0.004009497869034817086 0.21082009341055558
0.005047658755856332391 0.26643181704926150 0.005047658755856332391 0.26349586168001526
0.006354625877790454069 0.33382146625401660 0.006354625877790454069 0.32887888610054172
0.008000000000009777068 0.41787618723837744 0.008000000000009777068 0.40981493188922102
0.010071403294361402914 0.52253260502912213 0.010071403294361402914 0.50968161096257669
0.012679145539692626699 0.65256880570232323 0.012679145539692626699 0.63243565104931188
0.015962098519750611558 0.81374182243320026 0.015962098519750611558 0.78263758598706279
0.020095091452091651263 1.01292729965976780 0.020095091452091651263 0.96543087061544197
0.025298221281360611101 1.25824690926598359 0.025298221281360611101 1.18645380982022797
0.031848573644296607199 1.55916680421247156 0.031848573644296607199 1.45165216787334028
0.040094978690191851456 1.92653781549140191 0.040094978690191851456 1.76694426638664126
0.050476587558435426217 2.37253840670585481 0.050476587558435426217 2.13769967604974953
0.063546258777947173257 2.91047310500297751 0.063546258777947173257 2.56798891520646055
0.080000000000012505552 3.55436776661663956 0.080000000000012505552 3.05958644386226286
0.100714032943542974863 4.31830626852964716 0.100714032943542974863 3.61069622336134222
0.126791455396883634421 5.21543603686793489 0.126791455396883634421 4.21464694493592340
0.159620985197506115583 6.25670112647592980 0.159620985197506115583 4.85850963920296675
0.200950914520774404082 7.44920936556050250 0.200950914520774404082 5.52242909331283993
0.252982212813464002465 8.79465730726837869 0.252982212813464002465 6.17973825561060153
0.318485736442809752589 10.28775282410177638 0.318485736442809752589 6.79858423077962204
0.400949786901833249431 11.91539450473623596 0.400949786901833249431 7.34576725326206947
0.504765875584169521062 13.65686947801974860 0.504765875584169521062 7.79147608484798493
0.635462587779443310865 15.48522071358298824 0.635462587779443310865 8.11511719430857958
0.800000000000011368684 17.37012918433762465 0.800000000000011368684 8.31010493430431296
1.007140329435344483500 19.28147531060583830 1.007140329435344483500 8.38529435059171568
1.267914553968907398485 21.19285514994374608 1.267914553968907398485 8.36373399371175630
1.596209851975117999245 23.08452301021565845 1.596209851975117999245 8.27734789007177163
2.009509145207687197399 24.94441047926111565 2.009509145207687197399 8.16018228537477874
2.529822128134725289783 26.76790830463794890 2.529822128134725289783 8.04388086176106043
3.184857364427983839050 28.55674216627517126 3.184857364427983839050 7.95168057020030705
4.009497869018204596614 30.31597761697343429 4.009497869018204596614 7.89718733047401766
5.009497869018190385759 31.99547359886781450 5.009497869018190385759 7.88512875245993428
6.009497869018190385759 33.35642245662433680 6.009497869018190385759 7.90495760935353342
7.009497869018204596614 34.50099070740731833 7.009497869018204596614 7.94116293064430590
8.009497869018190385759 35.48854375188390264 8.009497869018190385759 7.98456888685278798
9.009497869018204596614 36.35665798360842160 9.009497869018204596614 8.03118118216521104
10.009497869018190385759 37.13066779906309733 10.009497869018190385759 8.07816845262832395
11.009497869018190385759 37.82850147086271875 11.009497869018190385759 8.12195163536602749
12.009497869018204596614 38.46332615960723444 12.009497869018204596614 8.16403727959343328
13.009497869018190385759 39.04506888522097796 13.009497869018190385759 8.20413557678359950
14.009497869018204596614 39.58154003618347616 14.009497869018204596614 8.24214424702376824
15.009497869018190385759 40.07888738205767254 15.009497869018190385759 8.27835525032046604
16.009497869018190385759 40.54209054481395214 16.009497869018190385759 8.31253508467367297
17.009497869018204596614 40.97523295559964396 17.009497869018204596614 8.34421673381197238
18.009497869018190385759 41.38166780310854165 18.009497869018190385759 8.37375947269072896
19.009497869018204596614 41.76417739351197156 19.009497869018204596614 8.40028312099765451
20.009497869018190385759 42.12514802315985918 20.009497869018190385759 8.42533400361953966
21.009497869018190385759 42.46661200465088370 21.009497869018190385759 8.44906041736457603
22.009497869018204596614 42.79030894335529922 22.009497869018204596614 8.47193069209207117
23.009497869018190385759 43.09791208225253456 23.009497869018190385759 8.49442948692237643
24.009497869018204596614 43.39082623762652702 24.009497869018204596614 8.51577878018980705
25.009497869018204596614 43.67025466711945825 25.009497869018204596614 8.53637883767327210
26.009497869018190385759 43.93725234404317348 26.009497869018190385759 8.55549631763057228
27.009497869018204596614 44.19278147169328008 27.009497869018204596614 8.57307031669894748
28.009497869018190385759 44.43760882297515735 28.009497869018190385759 8.58938781438335930
29.009497869018190385759 44.67236404438397557 29.009497869018190385759 8.60488258878783263
30.009497869018190385759 44.89772090059870635 30.009497869018190385759 8.61948984699723475
31.009497869018218807469 45.11434298314282643 31.009497869018218807469 8.63291623442458267
32.009497869018190385759 45.32280475560092725 32.009497869018190385759 8.64551913701682651
33.009497869018190385759 45.52362559564748778 33.009497869018190385759 8.65839714062664356
34.009497869018218807469 45.71729470590571509 34.009497869018218807469 8.67049045252474393
35.009497869018190385759 45.90422667108656185 35.009497869018190385759 8.68218854133972862
36.009497869018190385759 46.08480647260540763 36.009497869018190385759 8.69362042499366616
37.009497869018190385759 46.25939158787684846 37.009497869018190385759 8.70464466210419374
38.009497869018218807469 46.42829793559344864 38.009497869018218807469 8.71526177700781446
39.009497869018190385759 46.59182181278125512 39.009497869018190385759 8.72529295251328740
40.009497869018190385759 46.75023826951136385 40.009497869018190385759 8.73468470094224969
41.009497869018218807469 46.90380582035457735 41.009497869018218807469 8.74402463640617889
42.009497869018190385759 47.05276152324864114 42.009497869018190385759 8.75286283855885650
43.009497869018190385759 47.19732539050198028 43.009497869018190385759 8.76135078436017523
44.009497869018218807469 47.33771263519953010 44.009497869018218807469 8.76941600415096545
46.009497869018190385759 47.60673418423971270 46.009497869018190385759 8.78469960823080065
48.009497869018218807469 47.86124097000588051 48.009497869018218807469 8.79902218933439428
50.009497869018190385759 48.10245969735904481 50.009497869018190385759 8.81244357241318710
52.009497869018190385759 48.33148334871599161 52.009497869018190385759 8.82507638825893004
54.009497869018218807469 48.54928265767960482 54.009497869018218807469 8.83700514731842368
56.009497869018190385759 48.75672704097728882 56.009497869018190385759 8.84818771801034742
58.009497869018218807469 48.95458580468311283 58.009497869018218807469 8.85851932306263201
60.009497869018190385759 49.14355197480595194 60.009497869018190385759 8.86844979813411527
62.009497869018190385759 49.32424972188269408 62.009497869018190385759 8.87784651030914596
64.009497869018218807469 49.49724276570045589 64.009497869018218807469 8.88671663925483024
66.009497869018190385759 49.66304048499824120 66.009497869018190385759 8.89486714223745345
68.009497869018190385759 49.82210384713226148 68.009497869018190385759 8.90250999044615376
70.009497869018190385759 49.97485946743792340 70.009497869018190385759 8.90990969653013742
72.009497869018190385759 50.12169658360606661 72.009497869018190385759 8.91689459527874284
74.009497869018218807469 50.26297109045784595 74.009497869018218807469 8.92357220329694556
76.009497869018190385759 50.39900277898342296 76.009497869018190385759 8.92991988625693800
78.009497869018190385759 50.53008472787819727 78.009497869018190385759 8.93582892009953511
80.009497869018218807469 50.65649274510246158 80.009497869018218807469 8.94168776649343933
82.009497869018190385759 50.77849202307253051 82.009497869018190385759 8.94746046287076702
84.009497869018218807469 50.89632379755497738 84.009497869018218807469 8.95283636976466290
86.009497869018190385759 51.01021045752595029 86.009497869018190385759 8.95802335530526150
88.009497869018190385759 51.12035200879500962 88.009497869018190385759 8.96303765757542692
91.009497869018218807469 51.27894812292451121 91.009497869018218807469 8.97036633948360063
94.009497869018218807469 51.43012175537172226 94.009497869018218807469 8.97771864165957290
97.009497869018218807469 51.57441816507279952 97.009497869018218807469 8.98569513028553324
99.504748934509137825444 51.68956589461249962 99.504748934509137825444 8.98862967455813155
nan nan nan nan

