Time Pressure difference Time.1 Pressure.1 difference.1
(hr) (psi) (hr) (psi)
0.000200000000020850166 0.29735384029782741 0.000200000000020850166 0.23739155030370518
0.000399999999999067768 0.59387021131792894 0.000399999999999067768 0.61817631449365829
0.000600000000019917934 0.88967520981140735 0.000600000000019917934 0.90295526686512662
0.000799999999998135536 1.18483182387350539 0.000799999999998135536 1.19198929502358864
0.001007140329434719206 1.48988805813279890 0.001007140329434719206 1.49448457083227093
0.001267914553977789183 1.87306022799786365 0.001267914553977789183 1.87672390621124063
0.001596209851982166583 2.35414001399016515 0.001596209851982166583 2.35558360086277352
0.002009509145224797066 2.95782864370799370 0.002009509145224797066 2.95491914046195570
0.002529822128153114136 3.71490226697855030 0.002529822128153114136 3.70419221444898650
0.003184857364431081805 4.66362754122678158 0.003184857364431081805 4.63964635598314601
0.004009497869034817086 5.85146796341674591 0.004009497869034817086 5.80566103392145294
0.005047658755856332391 7.33712234643350847 0.005047658755856332391 7.25627065241888225
0.006354625877790454069 9.19292960914907198 0.006354625877790454069 9.05681855569184258
0.008000000000009777068 11.50766731010300781 0.008000000000009777068 11.28567273971854590
0.010071403294361402914 14.38974404618659264 0.010071403294361402914 14.03584744035403631
0.012679145539692626699 17.97074095703320751 0.012679145539692626699 17.41630485197335787
0.015962098519750611558 22.40919787931428431 0.015962098519750611558 21.55263506025911724
0.020095091452091651263 27.89445948293822397 0.020095091452091651263 26.58648089848678353
0.025298221281360611101 34.65018411670939003 0.025298221281360611101 32.67311260889550795
0.031848573644296607199 42.93705506985114795 0.031848573644296607199 39.97626739220429926
0.040094978690191851456 53.05388753430167981 0.040094978690191851456 48.65892672049366041
0.050476587558435426217 65.33605766159199391 0.050476587558435426217 58.86896030967771765
0.063546258777947173257 80.14995166085121525 0.063546258777947173257 70.71846397260868855
0.080000000000012505552 97.88182003451977664 0.080000000000012505552 84.25630360789924111
0.100714032943542974863 118.91951108720104457 0.100714032943542974863 99.43301907410466356
0.126791455396883634421 143.62508470759388501 0.126791455396883634421 116.06489279131236003
0.159620985197506115583 172.29992332910637742 0.159620985197506115583 133.79588083343557514
0.200950914520774404082 205.13976560543537175 0.200950914520774404082 152.07920118507666984
0.252982212813464002465 242.19133200015994589 0.252982212813464002465 170.18048426989193445
0.318485736442809752589 283.30888546372585779 0.318485736442809752589 187.22255035531574663
0.400949786901833249431 328.13163328427481247 0.400949786901833249431 202.29112897444775854
0.504765875584169521062 376.08917485623612720 0.504765875584169521062 214.56526449042911509
0.635462587779443310865 426.43915503559304625 0.635462587779443310865 223.47784273557471124
0.800000000000011368684 478.34663446098994655 0.800000000000011368684 228.84750511391879968
1.007140329435344483500 530.98216624591464097 1.007140329435344483500 230.91810596244877729
1.267914553968907398485 583.61862643691233643 1.267914553968907398485 230.32436690375450894
1.596209851975117999245 635.71224905055419185 1.596209851975117999245 227.94542651120730170
2.009509145207687197399 686.93068858272920352 2.009509145207687197399 224.71886601262849581
2.529822128134725289783 737.14701331233732162 2.529822128134725289783 221.51610373157382128
3.184857364427983839050 786.40874580973161301 3.184857364427983839050 218.97704954859307236
4.009497869018204596614 834.85538360588373052 4.009497869018204596614 217.47638956228445295
5.009497869018190385759 881.10611910728289331 5.009497869018190385759 217.14431487543515686
6.009497869018190385759 918.58455688242406723 6.009497869018190385759 217.69037108835118488
7.009497869018204596614 950.10420563475543076 7.009497869018204596614 218.68740993620474455
8.009497869018190385759 977.29989716726447568 8.009497869018190385759 219.88274319179217287
9.009497869018204596614 1001.20642754860114110 9.009497869018204596614 221.16637409347276844
10.009497869018190385759 1022.52146708189138735 10.009497869018190385759 222.46033123391848108
11.009497869018190385759 1041.73873281298870097 11.009497869018190385759 223.66605272777212576
12.009497869018204596614 1059.22082808764525907 12.009497869018204596614 224.82502662264994342
13.009497869018190385759 1075.24112776223932997 13.009497869018190385759 225.92927203757912480
14.009497869018204596614 1090.01471791951416890 14.009497869018204596614 226.97597234111603370
15.009497869018190385759 1103.71089867512660021 15.009497869018190385759 227.97316766267130106
16.009497869018190385759 1116.46680115718436355 16.009497869018190385759 228.91442771639808029
17.009497869018204596614 1128.39487677728243398 17.009497869018204596614 229.78689159266815523
18.009497869018190385759 1139.58746719329701591 18.009497869018190385759 230.60045317102162699
19.009497869018204596614 1150.12119283671449921 19.009497869018204596614 231.33087363978154372
20.009497869018190385759 1160.06176863778682673 20.009497869018190385759 232.02073640736887228
21.009497869018190385759 1169.46516135884758114 21.009497869018190385759 232.67412533973217137
22.009497869018204596614 1178.37927705547667756 22.009497869018204596614 233.30393752068934532
23.009497869018190385759 1186.85019426510825724 23.009497869018190385759 233.92351971678544942
24.009497869018204596614 1194.91659946694562677 24.009497869018204596614 234.51144640830395360
25.009497869018204596614 1202.61162852528968870 25.009497869018204596614 235.07874029900241908
26.009497869018190385759 1209.96433378211190757 26.009497869018190385759 235.60520628551884670
27.009497869018204596614 1217.00121283586122445 27.009497869018204596614 236.08916718294022985
28.009497869018190385759 1223.74338143270028922 28.009497869018190385759 236.53852596532635744
29.009497869018190385759 1230.20817906842034972 29.009497869018190385759 236.96522821431105399
30.009497869018190385759 1236.41416018571840141 30.009497869018190385759 237.36748963269309343
31.009497869018218807469 1242.37959907424078665 31.009497869018218807469 237.73723168646159820
32.009497869018190385759 1248.12031557731779685 32.009497869018190385759 238.08429623477104542
33.009497869018190385759 1253.65061255706154952 33.009497869018190385759 238.43893664187220338
34.009497869018218807469 1258.98396190109565396 34.009497869018218807469 238.77196784645062166
35.009497869018190385759 1264.13178063453756295 35.009497869018190385759 239.09411521535560041
36.009497869018190385759 1269.10467055328740571 36.009497869018190385759 239.40893170367172615
37.009497869018190385759 1273.91247603537772193 37.009497869018190385759 239.71252223333087272
38.009497869018218807469 1278.56389699557325912 38.009497869018218807469 240.00490124375369305
39.009497869018190385759 1283.06709299812996505 39.009497869018190385759 240.28114438459667213
40.009497869018190385759 1287.42963849885154559 40.009497869018190385759 240.53977868748657443
41.009497869018218807469 1291.65865259130282539 41.009497869018218807469 240.79698614103168097
42.009497869018190385759 1295.76066348638551062 42.009497869018190385759 241.04037663108232437
43.009497869018190385759 1299.74172998459312112 43.009497869018190385759 241.27412160007250463
44.009497869018218807469 1303.60777872318703885 44.009497869018218807469 241.49622534508043259
46.009497869018190385759 1311.01621830444742045 46.009497869018190385759 241.91711228820204838
48.009497869018218807469 1318.02494363554660595 48.009497869018218807469 242.31153413705484923
50.009497869018190385759 1324.66773628111832295 50.009497869018190385759 242.68113837876313710
52.009497869018190385759 1330.97469529540967415 52.009497869018190385759 243.02902669205360553
54.009497869018218807469 1336.97255318840757354 54.009497869018218807469 243.35752636461504039
56.009497869018190385759 1342.68525235922061256 56.009497869018190385759 243.66547715751576675
58.009497869018218807469 1348.13397831358111034 58.009497869018218807469 243.94999366587862255
60.009497869018190385759 1353.33781592157924933 60.009497869018190385759 244.22346367169330961
62.009497869018190385759 1358.31395387953875797 62.009497869018190385759 244.48223466851339936
64.009497869018218807469 1363.07791616313556915 64.009497869018218807469 244.72650437332535489
66.009497869018190385759 1367.64373027918236403 66.009497869018190385759 244.95095668623139318
68.009497869018190385759 1372.02409055948851346 68.009497869018190385759 245.16142896767101433
70.009497869018190385759 1376.23074533405974762 70.009497869018190385759 245.36520548906077011
72.009497869018190385759 1380.27441361007481646 72.009497869018190385759 245.55755885459922183
74.009497869018218807469 1384.16489618337755019 74.009497869018218807469 245.74144990617745066
76.009497869018190385759 1387.91099960585142981 76.009497869018190385759 245.91625532922955699
78.009497869018190385759 1391.52079481387659143 78.009497869018190385759 246.07898103043331162
80.009497869018218807469 1395.00187713436002923 80.009497869018218807469 246.24032464651165242
82.009497869018190385759 1398.36154955845904624 82.009497869018190385759 246.39929582367184935
84.009497869018218807469 1401.60645534805235002 84.009497869018218807469 246.54734002890376132
86.009497869018190385759 1404.74271875340696170 86.009497869018190385759 246.69018163071407912
88.009497869018190385759 1407.77584762681635766 88.009497869018190385759 246.82826780092329955
91.009497869018218807469 1412.14334061592126091 91.009497869018218807469 247.03008842577912674
94.009497869018218807469 1416.30642987869828175 94.009497869018218807469 247.23255951647135475
97.009497869018218807469 1420.28013100738940011 97.009497869018218807469 247.45221974170928547
99.504748934509137825444 1423.45112232855967704 99.504748934509137825444 247.53303257629315226
nan nan nan nan

