Time Pressure difference Time.1 Pressure.1 difference.1
(hr) (psi) (hr) (psi)
0.000200000000020850166 0.44436956580820575 0.000200000000020850166 0.35476111567732482
0.000399999999999067768 0.88748760629913959 0.000399999999999067768 0.92381097277683566
0.000600000000019917934 1.32954256214833211 0.000600000000019917934 1.34938845746604108
0.000799999999998135536 1.77062856360984755 0.000799999999998135536 1.78132478446262543
0.001007140329434719206 2.22650869022638975 0.001007140329434719206 2.23337778043370117
0.001267914553977789183 2.79912631837669545 0.001267914553977789183 2.80460136822070849
0.001596209851982166583 3.51805840079535903 0.001596209851982166583 3.52021571637313890
0.002009509145224797066 4.42021878319490735 0.002009509145224797066 4.41587078253392828
0.002529822128153114136 5.55159975651822535 0.002529822128153114136 5.53559451041957473
0.003184857364431081805 6.96938752669365424 0.003184857364431081805 6.93354972193012120
0.004009497869034817086 8.74451217996636565 0.004009497869034817086 8.67605769035747976
0.005047658755856332391 10.96469400933499116 0.005047658755856332391 10.84386815375447455
0.006354625877790454069 13.73803726506914380 0.006354625877790454069 13.53463108182998731
0.008000000000009777068 17.19721232096399532 0.008000000000009777068 16.86546065851793941
0.010071403294361402914 21.50422643773694631 0.010071403294361402914 20.97535860499835181
0.012679145539692626699 26.85571623467253488 0.012679145539692626699 26.02715948549091252
0.015962098519750611558 33.48860576936632327 0.015962098519750611558 32.20854680792912461
0.020095091452091651263 41.68585425522891086 0.020095091452091651263 39.73119352148164296
0.025298221281360611101 51.78169972748471395 0.025298221281360611101 48.82713755798631183
0.031848573644296607199 64.16571078874402190 0.031848573644296607199 59.74106998555669890
0.040094978690191851456 79.28444086829999549 0.040094978690191851456 72.71655250129639114
0.050476587558435426217 97.63908058366401121 0.050476587558435426217 87.97456359127815517
0.063546258777947173257 119.77716239819945088 0.063546258777947173257 105.68262074118896976
0.080000000000012505552 146.27590424153095228 0.080000000000012505552 125.91374980510083503
0.100714032943542974863 177.71491182025854982 0.100714032943542974863 148.59403688448603020
0.126791455396883634421 214.63525228648808252 0.126791455396883634421 173.44893196467069174
0.159620985197506115583 257.48731558958638743 0.159620985197506115583 199.94635822873749476
0.200950914520774404082 306.56361619806688168 0.200950914520774404082 227.26919730172073741
0.252982212813464002465 361.93397379912175893 0.252982212813464002465 254.31999744243631767
0.318485736442809752589 423.38059699188073637 0.318485736442809752589 279.78788949746905246
0.400949786901833249431 490.36431231029899891 0.400949786901833249431 302.30657542270824933
0.504765875584169521062 562.03270544158192479 0.504765875584169521062 320.64920810720553845
0.635462587779443310865 637.27639090514594500 0.635462587779443310865 333.96828453500694422
0.800000000000011368684 714.84762412466363912 0.800000000000011368684 341.99277998867756878
1.007140329435344483500 793.50686855185574586 1.007140329435344483500 345.08711365896670031
1.267914553968907398485 872.16750040153101509 1.267914553968907398485 344.19982204890686717
1.596209851975117999245 950.01690849733665800 1.596209851975117999245 340.64470162987680624
2.009509145207687197399 1026.55843126189961367 2.009509145207687197399 335.82288635965431922
2.529822128134725289783 1101.60238022933094726 2.529822128134725289783 331.03663546478207991
3.184857364427983839050 1175.21977376593986264 3.184857364427983839050 327.24223885055113215
4.009497869018204596614 1247.61907885236814764 4.009497869018204596614 324.99963244643066673
5.009497869018190385759 1316.73679810725229800 5.009497869018190385759 324.50337558200504873
6.009497869018190385759 1372.74507802261700817 6.009497869018190385759 325.31940930801079048
7.009497869018204596614 1419.84846372791639624 7.009497869018204596614 326.80939753036187767
8.009497869018190385759 1460.49006978906845688 8.009497869018190385759 328.59571957432632416
9.009497869018204596614 1496.21630932542348091 9.009497869018204596614 330.51399480449140356
10.009497869018190385759 1528.06979019221193994 10.009497869018190385759 332.44770170431951328
11.009497869018190385759 1556.78832976242733821 11.009497869018190385759 334.24954807083264541
12.009497869018204596614 1582.91380733768232858 12.009497869018204596614 335.98153419865280966
13.009497869018190385759 1606.85475796870969134 13.009497869018190385759 337.63173335224814764
14.009497869018204596614 1628.93260918139685600 14.009497869018204596614 339.19593631982428406
15.009497869018190385759 1649.40036533852730827 15.009497869018190385759 340.68615837857305451
16.009497869018190385759 1668.46295703657415288 16.009497869018190385759 342.09279002310887563
17.009497869018204596614 1686.28843317275459412 17.009497869018204596614 343.39661173764653768
18.009497869018190385759 1703.01479035869760992 18.009497869018190385759 344.61240906842618870
19.009497869018204596614 1718.75653119453136242 19.009497869018204596614 345.70395921028807606
20.009497869018190385759 1733.61186095311722966 20.009497869018190385759 346.73489937972721009
21.009497869018190385759 1747.66441711447896523 21.009497869018190385759 347.71133256077291662
22.009497869018204596614 1760.98579113039113508 22.009497869018204596614 348.65253232840450437
23.009497869018190385759 1773.64484338500801641 23.009497869018190385759 349.57844426949776562
24.009497869018204596614 1785.69938747155310921 24.009497869018204596614 350.45704980011902308
25.009497869018204596614 1797.19894206991625651 25.009497869018204596614 351.30482139655390483
26.009497869018190385759 1808.18692338946902964 26.009497869018190385759 352.09157922556585163
27.009497869018204596614 1818.70292979660825949 27.009497869018204596614 352.81481687953356641
28.009497869018190385759 1828.77851694551600303 28.009497869018190385759 353.48634466885363281
29.009497869018190385759 1838.43959721118676498 29.009497869018190385759 354.12401423088385854
30.009497869018190385759 1847.71389860156227769 30.009497869018190385759 354.72515908796310669
31.009497869018218807469 1856.62873046010872713 31.009497869018218807469 355.27770657055009451
32.009497869018190385759 1865.20773417280747708 32.009497869018190385759 355.79636448492317413
33.009497869018190385759 1873.47228412856975410 33.009497869018190385759 356.32634386425036155
34.009497869018218807469 1881.44251289688895667 34.009497869018218807469 356.82403016159520348
35.009497869018190385759 1889.13548223317775410 35.009497869018190385759 357.30545150898109341
36.009497869018190385759 1896.56703560337632553 36.009497869018190385759 357.77591749012390210
37.009497869018190385759 1903.75188457800868491 37.009497869018190385759 358.22960724813412980
38.009497869018218807469 1910.70303042634577650 38.009497869018218807469 358.66654236147547863
39.009497869018190385759 1917.43266691061307938 39.009497869018190385759 359.07936381496989497
40.009497869018190385759 1923.95211339912179938 40.009497869018190385759 359.46587038493100863
41.009497869018218807469 1930.27200876074584812 41.009497869018218807469 359.85024465210040034
42.009497869018190385759 1936.40210884138627989 42.009497869018190385759 360.21397066376829343
43.009497869018190385759 1942.35146799373524118 43.009497869018190385759 360.56328227943794218
44.009497869018218807469 1948.12894306398061417 44.009497869018218807469 360.89519709390515345
46.009497869018190385759 1959.20021450524950524 46.009497869018190385759 361.52417618488294693
48.009497869018218807469 1969.67414761178065419 48.009497869018218807469 362.11360548414620553
50.009497869018190385759 1979.60122600669910753 50.009497869018190385759 362.66594701854273808
52.009497869018190385759 1989.02643012023554547 52.009497869018190385759 363.18583597834833654
54.009497869018218807469 1997.98970937373769630 54.009497869018218807469 363.67675029348896487
56.009497869018190385759 2006.52684360944999753 56.009497869018190385759 364.13695608734894904
58.009497869018218807469 2014.66949273118939345 58.009497869018218807469 364.56214137219291160
60.009497869018190385759 2022.44617742470654775 60.009497869018190385759 364.97081861551936299
62.009497869018190385759 2029.88258470824962387 62.009497869018190385759 365.35752946272253894
64.009497869018218807469 2037.00191381921104039 64.009497869018218807469 365.72256938471798549
66.009497869018190385759 2043.82512765185106218 66.009497869018190385759 366.05799393054132906
68.009497869018190385759 2050.37119678582803317 68.009497869018190385759 366.37252652989940316
70.009497869018190385759 2056.65767808302189223 70.009497869018190385759 366.67705289566345073
72.009497869018190385759 2062.70059017148059866 72.009497869018190385759 366.96450834416361886
74.009497869018218807469 2068.51457949191853913 74.009497869018218807469 367.23931759722046309
76.009497869018190385759 2074.11280667354867546 76.009497869018190385759 367.50054916518939763
78.009497869018190385759 2079.50733303191009327 78.009497869018190385759 367.74372863486547658
80.009497869018218807469 2084.70950912537045951 80.009497869018218807469 367.98484269799922686
82.009497869018190385759 2089.73024864183116733 82.009497869018190385759 368.22241135660459577
84.009497869018218807469 2094.57947936091613883 84.009497869018218807469 368.44365060185339189
86.009497869018190385759 2099.26635344433725550 86.009497869018190385759 368.65711500679338997
88.009497869018190385759 2103.79910190041027818 88.009497869018190385759 368.86347283098871230
91.009497869018218807469 2110.32594198189326562 91.009497869018218807469 369.16507627874818809
94.009497869018218807469 2116.54731839414398564 94.009497869018218807469 369.46765179137474888
97.009497869018218807469 2122.48567063953441902 97.009497869018218807469 369.79591497713539638
99.504748934509137825444 2127.22444258597579392 99.504748934509137825444 369.91668276066155840
nan nan nan nan

