Time Pressure difference Time.1 Pressure.1 difference.1
(hr) (psi) (hr) (psi)
0.000200000000020850166 0.12791198716722185 0.000200000000020850166 0.10211815292394023
0.000399999999999067768 0.25546372218704205 0.000399999999999067768 0.26591942020118259
0.000600000000019917934 0.38270944779596849 0.000600000000019917934 0.38842209803695388
0.000799999999998135536 0.50967625943161965 0.000799999999998135536 0.51275517160232575
0.001007140329434719206 0.64090156690628775 0.001007140329434719206 0.64287883773231769
0.001267914553977789183 0.80572981874768423 0.001267914553977789183 0.80730581440371807
0.001596209851982166583 1.01267475462146783 0.001596209851982166583 1.01329573891862323
0.002009509145224797066 1.27236204226545002 0.002009509145224797066 1.27111046824341090
0.002529822128153114136 1.59803058411926480 0.002529822128153114136 1.59342346655068123
0.003184857364431081805 2.00614145628191176 0.003184857364431081805 1.99582552743409081
0.004009497869034817086 2.51711191722396332 0.004009497869034817086 2.49740726040196570
0.005047658755856332391 3.15619229427586667 0.005047658755856332391 3.12141251528633479
0.006354625877790454069 3.95450044639373521 0.006354625877790454069 3.89594988149872545
0.008000000000009777068 4.95022560267000955 0.008000000000009777068 4.85473073161077107
0.010071403294361402914 6.19000162880652294 0.010071403294361402914 6.03776677601821721
0.012679145539692626699 7.73043046755059748 0.012679145539692626699 7.49193002012261822
0.015962098519750611558 9.63971081959329723 0.015962098519750611558 9.27124524938520622
0.020095091452091651263 11.99929262673878938 0.020095091452091651263 11.43664262113677310
0.025298221281360611101 14.90538646361242137 0.025298221281360611101 14.05491436248577841
0.031848573644296607199 18.47012983451697465 0.031848573644296607199 17.19649491173033695
0.040094978690191851456 22.82206335274429776 0.040094978690191851456 20.93149361719559565
0.050476587558435426217 28.10545497174627627 0.050476587558435426217 25.32351923935856775
0.063546258777947173257 34.47791216695834748 0.063546258777947173257 30.42079176475346358
0.080000000000012505552 42.10558738915096200 0.080000000000012505552 36.24433171959911704
0.100714032943542974863 51.15532041181274536 0.100714032943542974863 42.77286295366513258
0.126791455396883634421 61.78285766751245234 0.126791455396883634421 49.92735611693325382
0.159620985197506115583 74.11784411363792913 0.159620985197506115583 57.55465264901976497
0.200950914520774404082 88.24448017663979726 0.200950914520774404082 65.41954464385980828
0.252982212813464002465 104.18286348610233460 0.252982212813464002465 73.20613010492559170
0.318485736442809752589 121.87030268551335155 0.318485736442809752589 80.53707473385091475
0.400949786901833249431 141.15159644072156198 0.400949786901833249431 87.01908900018145232
0.504765875584169521062 161.78137689346471007 0.504765875584169521062 92.29902438973766721
0.635462587779443310865 183.44030691475231265 0.635462587779443310865 96.13292676334778264
0.800000000000011368684 205.76922264523028616 0.800000000000011368684 98.44278152945109639
1.007140329435344483500 228.41132291025377299 1.007140329435344483500 99.33348692239415811
1.267914553968907398485 251.05382254548743504 1.267914553968907398485 99.07807961781620065
1.596209851975117999245 273.46281104409320051 1.596209851975117999245 98.05473654392714877
2.009509145207687197399 295.49532413893933835 2.009509145207687197399 96.66677476520891332
2.529822128134725289783 317.09675991648026638 2.529822128134725289783 95.28905020855410157
3.184857364427983839050 338.28756104664432769 3.184857364427983839050 94.19683137006518336
4.009497869018204596614 359.12773484722373496 4.009497869018204596614 93.55129606869219572
5.009497869018190385759 379.02330263274177469 5.009497869018190385759 93.40844829837153895
6.009497869018190385759 395.14531217847292055 6.009497869018190385759 93.64334398772648171
7.009497869018204596614 408.70404376467132579 7.009497869018204596614 94.07223779378639961
8.009497869018190385759 420.40274906077854666 8.009497869018190385759 94.58643142887149224
9.009497869018204596614 430.68656380582285692 9.009497869018204596614 95.13860785026481892
10.009497869018190385759 439.85560315813205534 10.009497869018190385759 95.69522628498170036
11.009497869018190385759 448.12224819329685488 11.009497869018190385759 96.21388860356677242
12.009497869018204596614 455.64247912150108277 12.009497869018204596614 96.71244161979913656
13.009497869018190385759 462.53389294800240350 13.009497869018190385759 97.18745221728264028
14.009497869018204596614 468.88901273632734501 14.009497869018204596614 97.63770877243540269
15.009497869018190385759 474.78066591052936474 15.009497869018190385759 98.06666988841168120
16.009497869018190385759 480.26784183856528898 16.009497869018190385759 98.47156946459583082
17.009497869018204596614 485.39891347402647170 17.009497869018204596614 98.84687515438797334
18.009497869018190385759 490.21360320605509742 18.009497869018190385759 99.19684298418248147
19.009497869018204596614 494.74487066160344284 19.009497869018204596614 99.51104620258759326
20.009497869018190385759 499.02098427435527128 20.009497869018190385759 99.80780281210840599
21.009497869018190385759 503.06601913201825482 21.009497869018190385759 100.08886955954959319
22.009497869018204596614 506.90058286743965255 22.009497869018204596614 100.35979435247530489
23.009497869018190385759 510.54449697437615896 23.009497869018190385759 100.62631853738814414
24.009497869018204596614 514.01440312265265220 24.009497869018204596614 100.87922554994079860
25.009497869018204596614 517.32455528741513717 25.009497869018204596614 101.12325700012954144
26.009497869018190385759 520.48745084481913636 26.009497869018190385759 101.34972560885447024
27.009497869018204596614 523.51448820313589749 27.009497869018204596614 101.55790990551061270
28.009497869018190385759 526.41475067216720163 28.009497869018190385759 101.75120949346441535
29.009497869018190385759 529.19569714116403247 29.009497869018190385759 101.93476297487123361
30.009497869018190385759 531.86530913016929389 30.009497869018190385759 102.10780280289031907
31.009497869018218807469 534.43144764646115163 31.009497869018218807469 102.26685385395273897
32.009497869018190385759 536.90091787404173829 32.009497869018190385759 102.41614977696853828
33.009497869018190385759 539.27987244074711271 33.009497869018190385759 102.56870458896177922
34.009497869018218807469 541.57410651611382946 34.009497869018218807469 102.71196382221619103
35.009497869018190385759 543.78853133440998135 35.009497869018190385759 102.85054118202447171
36.009497869018190385759 545.92770744471022226 36.009497869018190385759 102.98596503454034234
37.009497869018190385759 547.99586957946416987 37.009497869018190385759 103.11655984338813141
38.009497869018218807469 549.99676016010698731 38.009497869018218807469 103.24233181993872677
39.009497869018190385759 551.93388916679327849 39.009497869018190385759 103.36116266823432852
40.009497869018190385759 553.81051488498087565 40.009497869018190385759 103.47241876500818591
41.009497869018218807469 555.62969971804648139 41.009497869018218807469 103.58306107742704683
42.009497869018190385759 557.39425189079145184 42.009497869018190385759 103.68775977985104930
43.009497869018190385759 559.10677770286963550 43.009497869018190385759 103.78830929165130215
44.009497869018218807469 560.76982660159444549 44.009497869018218807469 103.88385112609606153
46.009497869018190385759 563.95669725945504069 46.009497869018190385759 104.06490305134948926
48.009497869018218807469 566.97162379853114089 48.009497869018218807469 104.23457055057666309
50.009497869018190385759 569.82913795333013240 50.009497869018190385759 104.39356231935622077
52.009497869018190385759 572.54218736171264936 52.009497869018190385759 104.54321259937502475
54.009497869018218807469 575.12227148328145176 54.009497869018218807469 104.68452251438748135
56.009497869018190385759 577.57968956234628877 56.009497869018190385759 104.81699296719951064
58.009497869018218807469 579.92355491701528081 58.009497869018218807469 104.93938275012655481
60.009497869018190385759 582.16207724000889812 60.009497869018190385759 105.05702068558875339
62.009497869018190385759 584.30265055153347475 62.009497869018190385759 105.16833558366218426
64.009497869018218807469 586.35195276291312894 64.009497869018218807469 105.27341249578797999
66.009497869018190385759 588.31601805305615471 66.009497869018190385759 105.36996460804365938
68.009497869018190385759 590.20030711218214492 68.009497869018190385759 105.46050296374676236
70.009497869018190385759 592.00987369118774950 70.009497869018190385759 105.54816102043396597
72.009497869018190385759 593.74932875964111645 72.009497869018190385759 105.63090520560972152
74.009497869018218807469 595.42288830234679153 74.009497869018218807469 105.71000917751766224
76.009497869018190385759 597.03434061257291887 76.009497869018190385759 105.78520480642835366
78.009497869018190385759 598.58715754563399969 78.009497869018190385759 105.85520413040987364
80.009497869018218807469 600.08460636505992625 80.009497869018218807469 105.92460892615304147
82.009497869018190385759 601.52982858101313468 82.009497869018190385759 105.99299317554599043
84.009497869018218807469 602.92568190949737073 84.009497869018218807469 106.05667699567369766
86.009497869018190385759 604.27480080453824485 86.009497869018190385759 106.11812282438539512
88.009497869018190385759 605.57955456572551611 88.009497869018190385759 106.17752302050890023
91.009497869018218807469 607.45830853310576458 91.009497869018218807469 106.26433971388264865
94.009497869018218807469 609.24913464055737222 94.009497869018218807469 106.35143621658264124
97.009497869018218807469 610.95849210932397000 97.009497869018218807469 106.44592692799785993
99.504748934509137825444 612.32254982848655800 99.504748934509137825444 106.48068999091940157
nan nan nan nan

