Time Pressure difference Time.1 Pressure.1 difference.1
(hr) (psi) (hr) (psi)
0.000200000000020850166 0.15449110138378744 0.000200000000020850166 0.12333750937566808
0.000399999999999067768 0.30854709303110273 0.000399999999999067768 0.32117540361961017
0.000600000000019917934 0.46223348889642951 0.000600000000019917934 0.46913318334333393
0.000799999999998135536 0.61558301463818998 0.000799999999998135536 0.61930170076644542
0.001007140329434719206 0.77407591847123070 0.001007140329434719206 0.77646405076760450
0.001267914553977789183 0.97315419666928105 0.001267914553977789183 0.97505767194215287
0.001596209851982166583 1.22310067765969488 0.001596209851982166583 1.22385069765496057
0.002009509145224797066 1.53674896013879003 0.002009509145224797066 1.53523731878749659
0.002529822128153114136 1.93008888731287831 0.002529822128153114136 1.92452444661316036
0.003184857364431081805 2.42300201862620490 0.003184857364431081805 2.41054252014766801
0.004009497869034817086 3.04014815976400765 0.004009497869034817086 3.01634902879717970
0.005047658755856332391 3.81202445932020284 0.005047658755856332391 3.77001771326791113
0.006354625877790454069 4.77621482486516058 0.006354625877790454069 4.70549790882313523
0.008000000000009777068 5.97884390971832325 0.008000000000009777068 5.86350594856885454
0.010071403294361402914 7.47623573349359294 0.010071403294361402914 7.29236766454148277
0.012679145539692626699 9.33675368158708530 0.012679145539692626699 9.04869469962861750
0.015962098519750611558 11.64276761327501930 0.015962098519750611558 11.19773776873797644
0.020095091452091651263 14.49265213359360338 0.020095091452091651263 13.81308784111324606
0.025298221281360611101 18.00260962488253469 0.025298221281360611101 16.97541604819710770
0.031848573644296607199 22.30807889103997965 0.031848573644296607199 20.76979255572625505
0.040094978690191851456 27.56431028318466758 0.040094978690191851456 25.28089488830117304
0.050476587558435426217 33.94554951132992215 0.050476587558435426217 30.58554921117333691
0.063546258777947173257 41.64215365619644160 0.063546258777947173257 36.74199524833858987
0.080000000000012505552 50.85480035313038627 0.080000000000012505552 43.77562142756776353
0.100714032943542974863 61.78499738050110324 0.100714032943542974863 51.66073058040074528
0.126791455396883634421 74.62085406595660686 0.126791455396883634421 60.30187167369859935
0.159620985197506115583 89.51895457880945628 0.159620985197506115583 69.51406099167321884
0.200950914520774404082 106.58099553801950776 0.200950914520774404082 79.01321625816834171
0.252982212813464002465 125.83125070399374579 0.252982212813464002465 88.41779350335168886
0.318485736442809752589 147.19400194484080657 0.318485736442809752589 97.27205130192382398
0.400949786901833249431 170.48179829853384604 0.400949786901833249431 105.10097762359576734
0.504765875584169521062 195.39828637782102305 0.504765875584169521062 111.47804244474808399
0.635462587779443310865 221.55777328664891002 0.635462587779443310865 116.10859985703044117
0.800000000000011368684 248.52646371436907202 0.800000000000011368684 118.89842444466172822
1.007140329435344483500 275.87341598251435926 1.007140329435344483500 119.97421147769684069
1.267914553968907398485 303.22085060688743852 1.267914553968907398485 119.66573252541437000
1.596209851975117999245 330.28625230000864121 1.596209851975117999245 118.42974673487306347
2.009509145207687197399 356.89694993404367551 2.009509145207687197399 116.75337731382374784
2.529822128134725289783 382.98699574328145445 2.529822128134725289783 115.08937232981209320
3.184857364427983839050 408.58108022516790925 3.184857364427983839050 113.77019892748131724
4.009497869018204596614 433.75167975054296221 4.009497869018204596614 112.99052642062824248
5.009497869018190385759 457.78139149149336617 5.009497869018190385759 112.81799599673446721
6.009497869018190385759 477.25342899477897163 6.009497869018190385759 113.10170117998133321
7.009497869018204596614 493.62955935213551584 7.009497869018204596614 113.61971577691085145
8.009497869018190385759 507.75916445003133504 8.009497869018190385759 114.24075484266296598
9.009497869018204596614 520.17987576547443496 9.009497869018204596614 114.90766922174840658
10.009497869018190385759 531.25417004813346011 10.009497869018190385759 115.57994862991296259
11.009497869018190385759 541.23855950618974475 11.009497869018190385759 116.20638493677545000
12.009497869018204596614 550.32143582207277177 12.009497869018204596614 116.80853338495221294
13.009497869018190385759 558.64483174239251184 13.009497869018190385759 117.38224748321150059
14.009497869018204596614 566.32049590231747516 14.009497869018204596614 117.92606384203237724
15.009497869018190385759 573.43638869713288386 15.009497869018190385759 118.44415973535437558
16.009497869018190385759 580.06375702579964582 16.009497869018190385759 118.93319428840796093
17.009497869018204596614 586.26102536473331384 17.009497869018204596614 119.38648557607898226
18.009497869018190385759 592.07617010601450147 18.009497869018190385759 119.80917399388275157
19.009497869018204596614 597.54899963024831777 19.009497869018204596614 120.18866619273566698
20.009497869018190385759 602.71365633136406359 20.009497869018190385759 120.54708651332573766
21.009497869018190385759 607.59921791269732694 21.009497869018190385759 120.88655674075469904
22.009497869018204596614 612.23057411262198002 22.009497869018204596614 121.21377759454810530
23.009497869018190385759 616.63166517684396695 23.009497869018190385759 121.53568342827398396
24.009497869018204596614 620.82259078450260859 24.009497869018204596614 121.84114254733110272
25.009497869018204596614 624.82056677570915326 25.009497869018204596614 122.13588183132526410
26.009497869018190385759 628.64068738400226266 26.009497869018190385759 122.40940885225282386
27.009497869018204596614 632.29671951807324604 27.009497869018204596614 122.66085222353878237
28.009497869018190385759 635.79963392872139138 28.009497869018190385759 122.89431795963882621
29.009497869018190385759 639.15843940426304925 29.009497869018190385759 123.11601242419513369
30.009497869018190385759 642.38277596241232459 30.009497869018190385759 123.32500858011427169
31.009497869018218807469 645.48213806650505830 31.009497869018218807469 123.51710920022863149
32.009497869018190385759 648.46474496475173055 32.009497869018190385759 123.69742765270227380
33.009497869018190385759 651.33802775311016831 33.009497869018190385759 123.88168216588890402
34.009497869018218807469 654.10898579218940085 34.009497869018218807469 124.05470955150785528
35.009497869018190385759 656.78355083246924551 35.009497869018190385759 124.22208220686074753
36.009497869018190385759 659.36723106958493190 36.009497869018190385759 124.38564608067859751
37.009497869018190385759 661.86514118039178811 37.009497869018190385759 124.54337747318307095
38.009497869018218807469 664.28180123233710219 38.009497869018218807469 124.69528388641953143
39.009497869018190385759 666.62145055210089595 39.009497869018190385759 124.83880685903625363
40.009497869018190385759 668.88802447147031671 40.009497869018190385759 124.97318110578909511
41.009497869018218807469 671.08522173738083438 41.009497869018218807469 125.10681402858070044
42.009497869018190385759 673.21643410186516121 42.009497869018190385759 125.23326830553439493
43.009497869018190385759 675.28480943333602227 43.009497869018190385759 125.35471122238404007
44.009497869018218807469 677.29342693439321010 44.009497869018218807469 125.47010590554458531
46.009497869018190385759 681.14250448219888767 46.009497869018190385759 125.68877901007144260
48.009497869018218807469 684.78390926316103560 48.009497869018218807469 125.89370209355364238
50.009497869018190385759 688.23519259298325323 50.009497869018190385759 126.08573111298869662
52.009497869018190385759 691.51199252778269511 52.009497869018190385759 126.26647755508930970
54.009497869018218807469 694.62819802526200874 54.009497869018218807469 126.43715056932514074
56.009497869018190385759 697.59624843244421299 56.009497869018190385759 126.59714734999420216
58.009497869018218807469 700.42715074392754104 58.009497869018218807469 126.74496877612689616
60.009497869018190385759 703.13082056260816444 60.009497869018190385759 126.88705095791888766
62.009497869018190385759 705.71618832847548219 62.009497869018190385759 127.02149622442316002
64.009497869018218807469 708.19131957079116546 64.009497869018218807469 127.14840730010756431
66.009497869018190385759 710.56350232382101240 66.009497869018190385759 127.26502218893585905
68.009497869018190385759 712.83933196666168897 68.009497869018190385759 127.37437370946035742
70.009497869018190385759 715.02491238026561859 70.009497869018190385759 127.48024642727737898
72.009497869018190385759 717.12581265774826988 72.009497869018190385759 127.58018420937277426
74.009497869018218807469 719.14712483270454868 74.009497869018218807469 127.67572537024859969
76.009497869018190385759 721.09342437622444777 76.009497869018190385759 127.76654606490696153
78.009497869018190385759 722.96890456810353953 78.009497869018190385759 127.85109070296257983
80.009497869018218807469 724.77751158377361662 80.009497869018218807469 127.93491727444458661
82.009497869018190385759 726.52303971473008914 82.009497869018190385759 128.01751123799709831
84.009497869018218807469 728.20894048809418564 84.009497869018218807469 128.09442805970977020
86.009497869018190385759 729.83839577690980605 86.009497869018190385759 128.16864185282909716
88.009497869018190385759 731.41426720275933349 88.009497869018190385759 128.24038494684842249
91.009497869018218807469 733.68341160491991104 91.009497869018218807469 128.34524147261149096
94.009497869018218807469 735.84635742301077244 94.009497869018218807469 128.45043594989851954
97.009497869018218807469 737.91090605411852721 97.009497869018218807469 128.56456109485455386
99.504748934509137825444 739.55840433830189795 99.504748934509137825444 128.60654765137019240
nan nan nan nan

