Time Pressure difference Time.1 Pressure.1 difference.1
(hr) (psi) (hr) (psi)
0.000200000000020850166 0.69604055354631111 0.000200000000020850166 0.55568189707962279
0.000399999999999067768 1.39012077397883926 0.000399999999999067768 1.44701606577007169
0.000600000000019917934 2.08253582631832224 0.000600000000019917934 2.11362154646082701
0.000799999999998135536 2.77343315197206008 0.000799999999998135536 2.79018723248538336
0.001007140329434719206 3.48750333160694259 0.001007140329434719206 3.49826276636157285
0.001267914553977789183 4.38442589682181438 0.001267914553977789183 4.39300176928776409
0.001596209851982166583 5.51052885956357130 0.001596209851982166583 5.51390798190783293
0.002009509145224797066 6.92363241180809741 0.002009509145224797066 6.91682189862323771
0.002529822128153114136 8.69577681488275189 0.002529822128153114136 8.67070691538617488
0.003184857364431081805 10.91653597639118090 0.003184857364431081805 10.86040124668680562
0.004009497869034817086 13.69701160151740993 0.004009497869034817086 13.58978755984965936
0.005047658755856332391 17.17460482209854788 0.005047658755856332391 16.98534862214252072
0.006354625877790454069 21.51864528622045469 0.006354625877790454069 21.20003896555800083
0.008000000000009777068 26.93694191582771325 0.008000000000009777068 26.41730099408978205
0.010071403294361402914 33.68325561649264444 0.010071403294361402914 32.85486076820302515
0.012679145539692626699 42.06558916758052646 0.012679145539692626699 40.76777504456333645
0.015962098519750611558 52.45504978454014378 0.015962098519750611558 50.45002285055066693
0.020095091452091651263 65.29485208576042510 0.020095091452091651263 62.23315919813386188
0.025298221281360611101 81.10853153576110230 0.025298221281360611101 76.48063789456546147
0.031848573644296607199 100.50629091769626200 0.031848573644296607199 93.57573205214302448
0.040094978690191851456 124.18759149090728044 0.040094978690191851456 113.89994578707734263
0.050476587558435426217 152.93747575534663952 0.050476587558435426217 137.79940988689924097
0.063546258777947173257 187.61357399942266966 0.063546258777947173257 165.53651622638571439
0.080000000000012505552 229.12001449421106258 0.080000000000012505552 197.22564922742895988
0.100714032943542974863 278.36466561752649795 0.100714032943542974863 232.75103347513885410
0.126791455396883634421 336.19503068425609627 0.126791455396883634421 271.68262614279262834
0.159620985197506115583 403.31658030667915682 0.159620985197506115583 313.18700597323743295
0.200950914520774404082 480.18749602613087291 0.200950914520774404082 355.98427539970464295
0.252982212813464002465 566.91714026853082942 0.252982212813464002465 398.35543524628337764
0.318485736442809752589 663.16437435363752684 0.318485736442809752589 438.24719887640952720
0.400949786901833249431 768.08466115145893127 0.400949786901833249431 473.51945832566264016
0.504765875584169521062 880.34281712158076516 0.504765875584169521062 502.25053531558540953
0.635462587779443310865 998.20115061404169410 0.635462587779443310865 523.11293914081454659
0.800000000000011368684 1119.70525049807156392 0.800000000000011368684 535.68214884207804971
1.007140329435344483500 1242.91356232982252550 1.007140329435344483500 540.52897429198901591
1.267914553968907398485 1366.12404735791210442 1.267914553968907398485 539.13916051772707760
1.596209851975117999245 1488.06386788928625720 1.596209851975117999245 533.57057937539582326
2.009509145207687197399 1607.95507550929346507 2.009509145207687197399 526.01790424185105621
2.529822128134725289783 1725.50055071435372156 2.529822128134725289783 518.52093555044370987
3.184857364427983839050 1840.81153348758425636 3.184857364427983839050 512.57756290983513736
4.009497869018204596614 1954.21455715567185507 4.009497869018204596614 509.06484484132511170
5.009497869018190385759 2062.47745198855591298 5.009497869018190385759 508.28753035087891021
6.009497869018190385759 2150.20630912701517445 6.009497869018190385759 509.56572897217398577
7.009497869018204596614 2223.98693944671776990 7.009497869018204596614 511.89957968307146530
8.009497869018190385759 2287.64612800605482335 8.009497869018190385759 514.69759439866436423
9.009497869018204596614 2343.60610694337356108 9.009497869018204596614 517.70229466572664023
10.009497869018190385759 2393.49997043191342527 10.009497869018190385759 520.73116640788737186
11.009497869018190385759 2438.48340250638148063 11.009497869018190385759 523.55349772590238899
12.009497869018204596614 2479.40517859622013930 12.009497869018204596614 526.26640309994593281
13.009497869018190385759 2516.90520967809106878 13.009497869018190385759 528.85120102651205798
14.009497869018204596614 2551.48696540936589372 14.009497869018204596614 531.30129838507059503
15.009497869018190385759 2583.54674047417938709 15.009497869018190385759 533.63551536681154630
16.009497869018190385759 2613.40552896569943186 16.009497869018190385759 535.83880007357993236
17.009497869018204596614 2641.32655513788449753 17.009497869018204596614 537.88104791803323224
18.009497869018190385759 2667.52597069268949781 18.009497869018190385759 539.78541831652546534
19.009497869018204596614 2692.18312736638745264 19.009497869018204596614 541.49517349200255012
20.009497869018190385759 2715.45184949291979137 20.009497869018190385759 543.10999192562883309
21.009497869018190385759 2737.46314306903423130 21.009497869018190385759 544.63943305780878745
22.009497869018204596614 2758.32914573321113494 22.009497869018204596614 546.11368615178116670
23.009497869018190385759 2778.15771730212509283 23.009497869018190385759 547.56399308007325999
24.009497869018204596614 2797.03941439469417674 24.009497869018204596614 548.94020136915844432
25.009497869018204596614 2815.05180084970061216 25.009497869018204596614 550.26811276693865693
26.009497869018190385759 2832.26288186985993889 26.009497869018190385759 551.50045493649383843
27.009497869018204596614 2848.73468255992111153 27.009497869018204596614 552.63330195336288853
28.009497869018190385759 2864.51663028101393138 28.009497869018190385759 553.68515295794270514
29.009497869018190385759 2879.64931301490560145 29.009497869018190385759 554.68396995416946993
30.009497869018190385759 2894.17616266936329339 30.009497869018190385759 555.62557629105253909
31.009497869018218807469 2908.13995537489881826 31.009497869018218807469 556.49106188060000022
32.009497869018190385759 2921.57772193796745341 32.009497869018190385759 557.30346437077685096
33.009497869018190385759 2934.52294224250772459 33.009497869018190385759 558.13360029577904697
34.009497869018218807469 2947.00715104222990703 34.009497869018218807469 558.91315378582578433
35.009497869018190385759 2959.05707310542584310 35.009497869018190385759 559.66723058789943934
36.009497869018190385759 2970.69752492641009667 36.009497869018190385759 560.40414739574544001
37.009497869018190385759 2981.95155004929210918 37.009497869018190385759 561.11478668025483785
38.009497869018218807469 2992.83951307902407279 38.009497869018218807469 561.79918224096536505
39.009497869018190385759 3003.38051377774490902 39.009497869018190385759 562.44580724662569082
40.009497869018190385759 3013.59228229619429840 40.009497869018190385759 563.05121379920035452
41.009497869018218807469 3023.49148288131755180 41.009497869018218807469 563.65328040833674095
42.009497869018190385759 3033.09339665248899109 42.009497869018190385759 564.22300451633236662
43.009497869018190385759 3042.41220594158903623 43.009497869018190385759 564.77015056106358770
44.009497869018218807469 3051.46178371516953121 44.009497869018218807469 565.29004703680845978
46.009497869018190385759 3068.80332664560592093 46.009497869018190385759 566.27525166903160425
48.009497869018218807469 3085.20922560499457177 48.009497869018218807469 567.19850728170945331
50.009497869018190385759 3100.75855587591377116 50.009497869018190385759 568.06367028325007595
52.009497869018190385759 3115.52177278646195191 52.009497869018190385759 568.87800102776793665
54.009497869018218807469 3129.56145131811581450 54.009497869018218807469 569.64694718867997381
56.009497869018190385759 3142.93363541068993072 56.009497869018190385759 570.36779289943638105
58.009497869018218807469 3155.68791571726478651 58.009497869018218807469 571.03378405588352962
60.009497869018190385759 3167.86896576056778940 60.009497869018190385759 571.67391775664532361
62.009497869018190385759 3179.51702053366898326 62.009497869018190385759 572.27964427992799301
64.009497869018218807469 3190.66841828130645808 64.009497869018218807469 572.85142643811911967
66.009497869018190385759 3201.35599434065625246 66.009497869018190385759 573.37682039961418923
68.009497869018190385759 3211.60946337667974149 68.009497869018190385759 573.86949015337529545
70.009497869018190385759 3221.45632567022903459 70.009497869018190385759 574.34648659171205054
72.009497869018190385759 3230.92167208168348225 72.009497869018190385759 574.79674391104515507
74.009497869018218807469 3240.02844413874390739 74.009497869018218807469 575.22719279714158347
76.009497869018190385759 3248.79725606062402221 76.009497869018190385759 575.63637420640884557
78.009497869018190385759 3257.24700015091775640 78.009497869018190385759 576.01727961872393280
80.009497869018218807469 3265.39545541506595328 80.009497869018218807469 576.39494987088471589
82.009497869018190385759 3273.25971656421415901 82.009497869018190385759 576.76706676043863808
84.009497869018218807469 3280.85533402700502847 84.009497869018218807469 577.11360598944520461
86.009497869018190385759 3288.19664333898072073 86.009497869018190385759 577.44796705736985132
88.009497869018190385759 3295.29653718232430037 88.009497869018190385759 577.77119669601597707
91.009497869018218807469 3305.51988669313368518 91.009497869018218807469 578.24361480671200297
94.009497869018218807469 3315.26477161550019446 94.009497869018218807469 578.71755551620935876
97.009497869018218807469 3324.56634017930855407 97.009497869018218807469 579.23173224455968011
99.504748934509137825444 3331.98893997579034476 99.504748934509137825444 579.42089748305500052
nan nan nan nan

