Time Pressure difference Time.1 Pressure.1 difference.1
(hr) (psi) (hr) (psi)
0.000200000000020850166 0.14618512819111068 0.000200000000020850166 0.11670646048450312
0.000399999999999067768 0.29195853964233376 0.000399999999999067768 0.30390790880135155
0.000600000000019917934 0.43738222605253546 0.000600000000019917934 0.44391096918509015
0.000799999999998135536 0.58248715363613668 0.000799999999998135536 0.58600591040265804
0.001007140329434719206 0.73245893360718595 0.001007140329434719206 0.73471867169407745
0.001267914553977789183 0.92083407856878208 0.001267914553977789183 0.92263521646139213
0.001596209851982166583 1.15734257671024898 0.001596209851982166583 1.15805227304985525
0.002009509145224797066 1.45412804830337139 0.002009509145224797066 1.45269767799246985
0.002529822128153114136 1.82632066756487399 0.002529822128153114136 1.82105539034363573
0.003184857364431081805 2.29273309289361338 0.003184857364431081805 2.28094345992467495
0.004009497869034817086 2.87669933397024380 0.004009497869034817086 2.85417972617367566
0.005047658755856332391 3.60707690774384782 0.005047658755856332391 3.56732858889866833
0.006354625877790454069 4.51942908159283974 0.006354625877790454069 4.45251415028425779
0.008000000000009777068 5.65740068876572533 0.008000000000009777068 5.54826369326945290
0.010071403294361402914 7.07428757577888412 0.010071403294361402914 6.90030488687796240
0.012679145539692626699 8.83477767720068385 0.012679145539692626699 8.56220573728299073
0.015962098519750611558 11.01681236524948204 0.015962098519750611558 10.59570885644023619
0.020095091452091651263 13.71347728770147256 0.020095091452091651263 13.07044870987059859
0.025298221281360611101 17.03472738698562239 0.025298221281360611101 16.06275927141231818
0.031848573644296607199 21.10871981087653992 0.031848573644296607199 19.65313704197753353
0.040094978690191851456 26.08235811742205357 0.040094978690191851456 23.92170699108068277
0.050476587558435426217 32.12051996771003104 0.050476587558435426217 28.94116484498122333
0.063546258777947173257 39.40332819080953186 0.063546258777947173257 34.76661915971823902
0.080000000000012505552 48.12067130188681574 0.080000000000012505552 41.42209339382755928
0.100714032943542974863 58.46322332778598962 0.100714032943542974863 48.88327194704586987
0.126791455396883634421 70.60898019144281079 0.126791455396883634421 57.05983556220942887
0.159620985197506115583 84.70610755844336381 0.159620985197506115583 65.77674588459402116
0.200950914520774404082 100.85083448758834379 0.200950914520774404082 74.76519387869691968
0.252982212813464002465 119.06612969840266203 0.252982212813464002465 83.66414869134352728
0.318485736442809752589 139.28034592630095290 0.318485736442809752589 92.04237112440104340
0.400949786901833249431 161.31611021796749128 0.400949786901833249431 99.45038742877879656
0.504765875584169521062 184.89300216395966459 0.504765875584169521062 105.48459930255732786
0.635462587779443310865 209.64606504543121446 0.635462587779443310865 109.86620201525461482
0.800000000000011368684 235.16482588026318012 0.800000000000011368684 112.50603603365840399
1.007140329435344483500 261.04151189743288342 1.007140329435344483500 113.52398505416476837
1.267914553968907398485 286.91865433769993388 1.267914553968907398485 113.23209099178993142
1.596209851975117999245 312.52892690753503757 1.596209851975117999245 112.06255605020245980
2.009509145207687197399 337.70894187307357015 2.009509145207687197399 110.47631401738162538
2.529822128134725289783 362.39629704740605121 2.529822128134725289783 108.90177166691897526
3.184857364427983839050 386.61435548187927225 3.184857364427983839050 107.65352156578877896
4.009497869018204596614 410.43169696825566461 4.009497869018204596614 106.91576693564822165
5.009497869018190385759 433.16948872313349739 5.009497869018190385759 106.75251234099604858
6.009497869018190385759 451.59464248968333777 6.009497869018190385759 107.02096455740169745
7.009497869018204596614 467.09033573105290316 7.009497869018204596614 107.51112890718445669
8.009497869018190385759 480.46028464088982446 8.009497869018190385759 108.09877877585313399
9.009497869018204596614 492.21321577808328129 9.009497869018204596614 108.72983754315978899
10.009497869018190385759 502.69211789500809573 10.009497869018190385759 109.36597289712193515
11.009497869018190385759 512.13971222091072377 11.009497869018190385759 109.95872983264774803
12.009497869018204596614 520.73426185314406212 12.009497869018204596614 110.52850470834187036
13.009497869018190385759 528.61016336914565272 13.009497869018190385759 111.07137396260873174
14.009497869018204596614 535.87315741294560212 14.009497869018204596614 111.58595288278331736
15.009497869018190385759 542.60647532631924150 15.009497869018190385759 112.07619415818477648
16.009497869018190385759 548.87753352978882049 16.009497869018190385759 112.53893653096666583
17.009497869018204596614 554.74161539888746120 17.009497869018204596614 112.96785731930053487
18.009497869018190385759 560.24411794977720547 18.009497869018190385759 113.36782055335142161
19.009497869018204596614 565.42270932754672685 19.009497869018204596614 113.72690994581439838
20.009497869018190385759 570.30969631354889771 20.009497869018190385759 114.06606035669533128
21.009497869018190385759 574.93259329373506716 21.009497869018190385759 114.38727949662809635
22.009497869018204596614 579.31495184850246005 22.009497869018204596614 114.69690783140035251
23.009497869018190385759 583.47942511357280182 23.009497869018190385759 115.00150689987216879
24.009497869018204596614 587.44503214017447590 24.009497869018204596614 115.29054348564662291
25.009497869018204596614 591.22806318561720218 25.009497869018204596614 115.56943657157660255
26.009497869018190385759 594.84280096550753569 26.009497869018190385759 115.82825783869083125
27.009497869018204596614 598.30227223215524646 27.009497869018204596614 116.06618274915497580
28.009497869018190385759 601.61685791104832788 28.009497869018190385759 116.28709656395933791
29.009497869018190385759 604.79508244704459230 29.009497869018190385759 116.49687197128140781
30.009497869018190385759 607.84606757733638460 30.009497869018190385759 116.69463177473178916
31.009497869018218807469 610.77879731024142984 31.009497869018218807469 116.87640440451741597
32.009497869018190385759 613.60104899890484376 32.009497869018190385759 117.04702831653548856
33.009497869018190385759 616.31985421799674896 33.009497869018190385759 117.22137667309918641
34.009497869018218807469 618.94183601841575637 34.009497869018218807469 117.38510151110422441
35.009497869018190385759 621.47260723932572546 35.009497869018190385759 117.54347563659941045
36.009497869018190385759 623.91737993681158514 36.009497869018190385759 117.69824575376038922
37.009497869018190385759 626.28099380510184346 37.009497869018190385759 117.84749696387216034
38.009497869018218807469 628.56772589726506340 38.009497869018218807469 117.99123636564426931
39.009497869018190385759 630.78158761919223707 39.009497869018190385759 118.12704304941065914
40.009497869018190385759 632.92630272569238059 40.009497869018190385759 118.25419287429507165
41.009497869018218807469 635.00537110633877091 41.009497869018218807469 118.38064123134518013
42.009497869018190385759 637.02200216090466256 42.009497869018190385759 118.50029689125834409
43.009497869018190385759 638.97917451756529772 43.009497869018190385759 118.61521061903005148
44.009497869018218807469 640.87980183039360327 44.009497869018218807469 118.72440128696692341
46.009497869018190385759 644.52193972509144260 46.009497869018190385759 118.93131777297084284
48.009497869018218807469 647.96757005546419350 48.009497869018218807469 119.12522348637334346
50.009497869018190385759 651.23330051809170982 50.009497869018190385759 119.30692836497853193
52.009497869018190385759 654.33392841338582002 52.009497869018190385759 119.47795725642859566
54.009497869018218807469 657.28259598089312021 54.009497869018218807469 119.63945430215711951
56.009497869018190385759 660.09107378553869694 56.009497869018190385759 119.79084910537088149
58.009497869018218807469 662.76977704801743130 58.009497869018218807469 119.93072314300178505
60.009497869018190385759 665.32808827429585108 60.009497869018190385759 120.06516649781572426
62.009497869018190385759 667.77445777318109776 62.009497869018190385759 120.19238352418535953
64.009497869018218807469 670.11651744332937142 64.009497869018218807469 120.31247142375769954
66.009497869018190385759 672.36116348920711516 66.009497869018190385759 120.42281669490705553
68.009497869018190385759 674.51463669963686698 68.009497869018190385759 120.52628910142486518
70.009497869018190385759 676.58271278992879161 70.009497869018190385759 120.62646973763879998
72.009497869018190385759 678.57066143958991233 72.009497869018190385759 120.72103452069681850
74.009497869018218807469 680.48330091696766431 74.009497869018218807469 120.81143906002019150
76.009497869018190385759 682.32496070008346578 76.009497869018190385759 120.89737692163240013
78.009497869018190385759 684.09960862358173017 78.009497869018190385759 120.97737614903985559
80.009497869018218807469 685.81097870292546759 80.009497869018218807469 121.05669591560348408
82.009497869018190385759 687.46266123544353377 82.009497869018190385759 121.13484934348113597
84.009497869018218807469 689.05792218228270940 84.009497869018218807469 121.20763085219850552
86.009497869018190385759 690.59977234804364343 86.009497869018190385759 121.27785465644045360
88.009497869018190385759 692.09091950368633661 88.009497869018190385759 121.34574059486732267
91.009497869018218807469 694.23806689497803291 91.009497869018218807469 121.44495967300872508
94.009497869018218807469 696.28472530349415592 94.009497869018218807469 121.54449853323730224
97.009497869018218807469 698.23827669637023519 97.009497869018218807469 121.65248791771182368
99.504748934509137825444 699.79719980398465395 99.504748934509137825444 121.69221713247932826
nan nan nan nan

