Time Pressure difference Time.1 Pressure.1 difference.1
(hr) (psi) (hr) (psi)
0.000200000000020850166 0.75584356053358370 0.000200000000020850166 0.60342544909601048
0.000399999999999067768 1.50955835837797570 0.000399999999999067768 1.57134202846153359
0.000600000000019917934 2.26146491879435940 0.000600000000019917934 2.29522148840018225
0.000799999999998135536 3.01172335118684309 0.000799999999998135536 3.02991692310465233
0.001007140329434719206 3.78714562262806442 0.001007140329434719206 3.79882949569096784
0.001267914553977789183 4.76113074714540740 0.001267914553977789183 4.77044344874924242
0.001596209851982166583 5.98398718639958282 0.001596209851982166583 5.98765663906459178
0.002009509145224797066 7.51850297702311288 0.002009509145224797066 7.51110731234742879
0.002529822128153114136 9.44290799706838158 0.002529822128153114136 9.41568412052675363
0.003184857364431081805 11.85447224166584235 0.003184857364431081805 11.79351448029235527
0.004009497869034817086 14.87384314723250966 0.004009497869034817086 14.75740653873888952
0.005047658755856332391 18.65022719344830548 0.005047658755856332391 18.44471031760106783
0.006354625877790454069 23.36750263778116121 0.006354625877790454069 23.02152202703792128
0.008000000000009777068 29.25133310668642039 0.008000000000009777068 28.68704523224547032
0.010071403294361402914 36.57728235203854439 0.010071403294361402914 35.67771276738037045
0.012679145539692626699 45.67981639916262537 0.012679145539692626699 44.27049557345183217
0.015962098519750611558 56.96192757032402199 0.015962098519750611558 54.78463101909439814
0.020095091452091651263 70.90491097618374283 0.020095091452091651263 67.58016094308094068
0.025298221281360611101 88.07728364861884529 0.025298221281360611101 83.05176668741596302
0.031848573644296607199 109.14167629487300815 0.031848573644296607199 101.61565175113382509
0.040094978690191851456 134.85764708439810988 0.040094978690191851456 123.68609864706488111
0.050476587558435426217 166.07768846940984986 0.050476587558435426217 149.63897732348243608
0.063546258777947173257 203.73311735020840274 0.063546258777947173257 179.75922406445226898
0.080000000000012505552 248.80574366316474766 0.080000000000012505552 214.17105107035840206
0.100714032943542974863 302.28143879707528185 0.100714032943542974863 252.74873563529399689
0.126791455396883634421 365.08052258075542795 0.126791455396883634421 295.02528614551465580
0.159620985197506115583 437.96907885331512489 0.159620985197506115583 340.09567474420771305
0.200950914520774404082 521.44465558923513981 0.200950914520774404082 386.57003653189883607
0.252982212813464002465 615.62601150878651879 0.252982212813464002465 432.58167789274210691
0.318485736442809752589 720.14269768712438236 0.318485736442809752589 475.90089615457355876
0.400949786901833249431 834.07761533153654909 0.400949786901833249431 514.20370772834485251
0.504765875584169521062 955.98086346138234148 0.504765875584169521062 545.40332593935886507
0.635462587779443310865 1083.96544995080921581 0.635462587779443310865 568.05820360160055316
0.800000000000011368684 1215.90904290363346263 0.800000000000011368684 581.70734540130195001
1.007140329435344483500 1349.70327174240878776 1.007140329435344483500 586.97060454142001618
1.267914553968907398485 1483.49986049606218330 1.267914553968907398485 585.46137955982294443
1.596209851975117999245 1615.91661071509611247 1.596209851975117999245 579.41435230502418108
2.009509145207687197399 1746.10873354827799631 2.009509145207687197399 571.21275997623456533
2.529822128134725289783 1873.75358132465635208 2.529822128134725289783 563.07166032327415905
3.184857364427983839050 1998.97195163926198802 3.184857364427983839050 556.61763991402153806
4.009497869018204596614 2122.11843318814044324 4.009497869018204596614 552.80311313318122757
5.009497869018190385759 2239.68315192074669540 5.009497869018190385759 551.95901267219551301
6.009497869018190385759 2334.94957196370341990 6.009497869018190385759 553.34703265474740874
7.009497869018204596614 2415.06934951851235382 7.009497869018204596614 555.88140514510143930
8.009497869018190385759 2484.19806263187319928 8.009497869018190385759 558.91982207969522278
9.009497869018204596614 2544.96605885258941271 9.009497869018204596614 562.18268275156481195
10.009497869018190385759 2599.14674593441668549 10.009497869018190385759 565.47179168398270122
11.009497869018190385759 2647.99510296039034074 11.009497869018190385759 568.53661447562183184
12.009497869018204596614 2692.43283117250621217 12.009497869018204596614 571.48260957154036532
13.009497869018190385759 2733.15482196546872729 13.009497869018190385759 574.28949037485188001
14.009497869018204596614 2770.70780253284374339 14.009497869018204596614 576.95009729166372381
15.009497869018190385759 2805.52211674403724828 15.009497869018190385759 579.48486752243263709
16.009497869018190385759 2837.94633813697646474 16.009497869018190385759 581.87745592715714338
17.009497869018204596614 2868.26630689197509128 17.009497869018204596614 584.09517136683803074
18.009497869018190385759 2896.71674621759848378 18.009497869018190385759 586.16316308835109794
19.009497869018204596614 2923.49241754583817965 19.009497869018204596614 588.01981846983574087
20.009497869018190385759 2948.76036162118998618 20.009497869018190385759 589.77338025336780447
21.009497869018190385759 2972.66284032556222883 21.009497869018190385759 591.43422921552030402
22.009497869018204596614 2995.32162603487086017 22.009497869018204596614 593.03514844644507775
23.009497869018190385759 3016.85384575767739079 23.009497869018190385759 594.61006408456626104
24.009497869018204596614 3037.35783663385655018 24.009497869018204596614 596.10451461328659661
25.009497869018204596614 3056.91782669836220521 25.009497869018204596614 597.54651863712899740
26.009497869018190385759 3075.60766408302197306 26.009497869018190385759 598.88474223414016251
27.009497869018204596614 3093.49470301852988996 27.009497869018204596614 600.11492216892634133
28.009497869018190385759 3110.63261760826117097 28.009497869018190385759 601.25714700683511182
29.009497869018190385759 3127.06548310687821868 29.009497869018190385759 602.34178121514821669
30.009497869018190385759 3142.84046304190997034 30.009497869018190385759 603.36428928980649289
31.009497869018218807469 3158.00400881999803460 31.009497869018218807469 604.30413640972074063
32.009497869018190385759 3172.59633289206476547 32.009497869018190385759 605.18633959117778431
33.009497869018190385759 3186.65379169532434389 33.009497869018190385759 606.08779984386512751
34.009497869018218807469 3200.21062941339960162 34.009497869018218807469 606.93433167673208573
35.009497869018190385759 3213.29586697605918744 35.009497869018190385759 607.75319789378102087
36.009497869018190385759 3225.93645308237819336 36.009497869018190385759 608.55342974955658519
37.009497869018190385759 3238.15741115137916495 37.009497869018190385759 609.32512634729346246
38.009497869018218807469 3249.98085549154120599 38.009497869018218807469 610.06832439054710449
39.009497869018190385759 3261.42752689468761673 39.009497869018190385759 610.77050667593005073
40.009497869018190385759 3272.51667886579525657 40.009497869018190385759 611.42792906595752811
41.009497869018218807469 3283.26640742482049973 41.009497869018218807469 612.08172454843258947
42.009497869018190385759 3293.69330662740458138 42.009497869018190385759 612.70039869911977348
43.009497869018190385759 3303.81277733513843486 43.009497869018190385759 613.29455490521229422
44.009497869018218807469 3313.63988446396660947 44.009497869018218807469 613.85912029056760275
46.009497869018190385759 3332.47139289677943452 46.009497869018190385759 614.92897257615607032
48.009497869018218807469 3350.28686790041138011 48.009497869018218807469 615.93155325340762829
50.009497869018190385759 3367.17217881513306565 50.009497869018190385759 616.87105006892306847
52.009497869018190385759 3383.20383441012018011 52.009497869018190385759 617.75534717812513463
54.009497869018218807469 3398.44978603757226665 54.009497869018218807469 618.59036031228959018
56.009497869018190385759 3412.97089286840991917 56.009497869018190385759 619.37314026072431261
58.009497869018218807469 3426.82100632781748573 58.009497869018218807469 620.09635261438427278
60.009497869018190385759 3440.04863823641608178 60.009497869018190385759 620.79148586938811150
62.009497869018190385759 3452.69748053178864211 62.009497869018190385759 621.44925572164027017
64.009497869018218807469 3464.80699359903201184 64.009497869018218807469 622.07016474783813464
66.009497869018190385759 3476.41283394987749489 66.009497869018190385759 622.64069995662168822
68.009497869018190385759 3487.54726929925845980 68.009497869018190385759 623.17569933123093051
70.009497869018190385759 3498.24016272065455269 70.009497869018190385759 623.69367875710975113
72.009497869018190385759 3508.51876085242474801 72.009497869018190385759 624.18262166951194558
74.009497869018218807469 3518.40797633204920203 74.009497869018218807469 624.65005423078616786
76.009497869018190385759 3527.93019452884027487 76.009497869018190385759 625.09439203798569906
78.009497869018190385759 3537.10593095147396525 78.009497869018190385759 625.50802440696747908
80.009497869018218807469 3545.95449215717189873 80.009497869018218807469 625.91814365454069957
82.009497869018190385759 3554.49444161507744866 82.009497869018190385759 626.32223240095368055
84.009497869018218807469 3562.74266582884820309 84.009497869018218807469 626.69854588352643532
86.009497869018190385759 3570.71473202681681869 86.009497869018190385759 627.06163487136825552
88.009497869018190385759 3578.42464061565078737 88.009497869018190385759 627.41263603027982754
91.009497869018218807469 3589.52636860471602631 91.009497869018218807469 627.92564376385200831
94.009497869018218807469 3600.10852287602028809 94.009497869018218807469 628.44030491617013467
97.009497869018218807469 3610.20927155509616568 97.009497869018218807469 628.99865911998733736
99.504748934509137825444 3618.26961262287522914 99.504748934509137825444 629.20407721906929055
nan nan nan nan

