Time Pressure difference Time.1 Pressure.1 difference.1
(hr) (psi) (hr) (psi)
0.000200000000020850166 0.25084039041883766 0.000200000000020850166 0.20025767651318149
0.000399999999999067768 0.50097431234082279 0.000399999999999067768 0.52147834351141009
0.000600000000019917934 0.75050813788560056 0.000600000000019917934 0.76171086757896156
0.000799999999998135536 0.99949500226200749 0.000799999999998135536 1.00553286898637917
0.001007140329434719206 1.25683294289414893 0.001007140329434719206 1.26071044802051913
0.001267914553977789183 1.58006756663506942 0.001267914553977789183 1.58315815551897954
0.001596209851982166583 1.98589464867326804 0.001596209851982166583 1.98711242307418345
0.002009509145224797066 2.49515153742964824 0.002009509145224797066 2.49269715200980624
0.002529822128153114136 3.13380023638972727 0.002529822128153114136 3.12476549933964787
0.003184857364431081805 3.93412155712426870 0.003184857364431081805 3.91389161873438551
0.004009497869034817086 4.93615453897166834 0.004009497869034817086 4.89751293922982978
0.005047658755856332391 6.18941605760592051 0.005047658755856332391 6.12121155595112398
0.006354625877790454069 7.75492944682407703 0.006354625877790454069 7.64010950787412391
0.008000000000009777068 9.70758527276846017 0.008000000000009777068 9.52031611004190204
0.010071403294361402914 12.13883436298422147 0.010071403294361402914 11.84029588543832290
0.012679145539692626699 15.15967533246935517 0.012679145539692626699 14.69196666283786179
0.015962098519750611558 18.90384849037126713 0.015962098519750611558 18.18127315139176758
0.020095091452091651263 23.53108034594229991 0.020095091452091651263 22.42770176352795630
0.025298221281360611101 29.23004358448669748 0.025298221281360611101 27.56223465890068169
0.031848573644296607199 36.22064422093588121 0.031848573644296607199 33.72299651521144170
0.040094978690191851456 44.75495540603102285 0.040094978690191851456 41.04747449605889642
0.050476587558435426217 55.11589221732062782 0.050476587558435426217 49.66040785900187160
0.063546258777947173257 67.61252905468454344 0.063546258777947173257 59.65635787633470244
0.080000000000012505552 82.57069734755577883 0.080000000000012505552 71.07654661895412573
0.100714032943542974863 100.31757639199642540 0.100714032943542974863 83.87925072731734133
0.126791455396883634421 121.15859101031664125 0.126791455396883634421 97.90949056697299113
0.159620985197506115583 145.34798001505620846 0.159620985197506115583 112.86691623379201133
0.200950914520774404082 173.05086372302091036 0.200950914520774404082 128.29027586003675765
0.252982212813464002465 204.30665436885001895 0.252982212813464002465 143.56007332264630350
0.318485736442809752589 238.99241175990277952 0.318485736442809752589 157.93634136118816969
0.400949786901833249431 276.80378003310335089 0.400949786901833249431 170.64782388347271080
0.504765875584169521062 317.25958325861262210 0.504765875584169521062 181.00198289416087505
0.635462587779443310865 359.73358888477406481 0.635462587779443310865 188.52041482163008368
0.800000000000011368684 403.52146258999709971 0.800000000000011368684 193.05013001230022951
1.007140329435344483500 447.92350336945872868 1.007140329435344483500 194.79683799066907568
1.267914553968907398485 492.32632732946240139 1.267914553968907398485 194.29597431545772679
1.596209851975117999245 536.27122685270217062 1.596209851975117999245 192.28915867705197229
2.009509145207687197399 579.47784344129672718 2.009509145207687197399 189.56731155255252474
2.529822128134725289783 621.83910061543542724 2.529822128134725289783 186.86554001937233238
3.184857364427983839050 663.39508724731558686 3.184857364427983839050 184.72365632311482386
4.009497869018204596614 704.26348002507506862 4.009497869018204596614 183.45773644639638178
5.009497869018190385759 743.27946360446765084 5.009497869018190385759 183.17760640330001820
6.009497869018190385759 774.89535245388844942 6.009497869018190385759 183.63824600190517344
7.009497869018204596614 801.48455335669314081 7.009497869018204596614 184.47932346573696805
8.009497869018190385759 824.42617023607238025 8.009497869018190385759 185.48767721765707961
9.009497869018204596614 844.59313161921113533 9.009497869018204596614 186.57051669337644739
10.009497869018190385759 862.57397502438880110 10.009497869018190385759 187.66206713028878994
11.009497869018190385759 878.78518801542634264 11.009497869018190385759 188.67918414465694354
12.009497869018204596614 893.53265386164491701 12.009497869018204596614 189.65686603363207041
13.009497869018190385759 907.04698487205666879 13.009497869018190385759 190.58838032220361924
14.009497869018204596614 919.50962237903161167 14.009497869018204596614 191.47135096932134957
15.009497869018190385759 931.06338379857061227 15.009497869018190385759 192.31256043052161431
16.009497869018190385759 941.82394957952419645 16.009497869018190385759 193.10658427472688459
17.009497869018204596614 951.88618096854554551 17.009497869018204596614 193.84257335470888961
18.009497869018190385759 961.32797511836770354 18.009497869018190385759 194.52887390404617918
19.009497869018204596614 970.21396714158595387 19.009497869018204596614 195.14503865702241114
20.009497869018190385759 978.59959253802128387 20.009497869018190385759 195.72698993023857383
21.009497869018190385759 986.53206349265917652 21.009497869018190385759 196.27817277262320772
22.009497869018204596614 994.05179237640777501 22.009497869018204596614 196.80946684706196947
23.009497869018190385759 1001.19764991078966432 23.009497869018190385759 197.33213115773520485
24.009497869018204596614 1008.00227105870851574 24.009497869018204596614 197.82809166287091784
25.009497869018204596614 1014.49360842077510370 25.009497869018204596614 198.30664684440984047
26.009497869018190385759 1020.69616983854143655 26.009497869018190385759 198.75076060957175628
27.009497869018204596614 1026.63230803472083608 27.009497869018204596614 199.15901812639094715
28.009497869018190385759 1032.31983573373054242 28.009497869018190385759 199.53808614952112066
29.009497869018190385759 1037.77338010799689982 29.009497869018190385759 199.89804167799425727
30.009497869018190385759 1043.00859322929318296 30.009497869018190385759 200.23737952255112305
31.009497869018218807469 1048.04089083916414893 31.009497869018218807469 200.54928483047874010
32.009497869018190385759 1052.88361816857536724 32.009497869018190385759 200.84205995223703667
33.009497869018190385759 1057.54884076042617380 33.009497869018190385759 201.14122588224972787
34.009497869018218807469 1062.04792316796351770 34.009497869018218807469 201.42216282019020923
35.009497869018190385759 1066.39049651293407805 35.009497869018190385759 201.69391842189216391
36.009497869018190385759 1070.58550420975643647 36.009497869018190385759 201.95948987292976540
37.009497869018190385759 1074.64125073375430475 37.009497869018190385759 202.21559138118973920
38.009497869018218807469 1078.56507511917084230 38.009497869018218807469 202.46223512741232753
39.009497869018190385759 1082.36386057384152082 39.009497869018190385759 202.69526705069327477
40.009497869018190385759 1086.04399672249473952 40.009497869018190385759 202.91344459111994070
41.009497869018218807469 1089.61148905746790660 41.009497869018218807469 203.13041847651274452
42.009497869018190385759 1093.07184461700671818 42.009497869018190385759 203.33573671113649084
43.009497869018190385759 1096.43017445627674533 43.009497869018190385759 203.53291822129023103
44.009497869018218807469 1099.69147814078905867 44.009497869018218807469 203.72027948104550887
46.009497869018190385759 1105.94105566464554613 46.009497869018190385759 204.07532936043858740
48.009497869018218807469 1111.85344407244429021 48.009497869018218807469 204.40805393684513547
50.009497869018190385759 1117.45714066172536150 50.009497869018190385759 204.71984298990636830
52.009497869018190385759 1122.77753625478703725 52.009497869018190385759 205.01331301955360686
54.009497869018218807469 1127.83718173994157041 54.009497869018218807469 205.29042726847416134
56.009497869018190385759 1132.65627433654935885 56.009497869018190385759 205.55020698762501752
58.009497869018218807469 1137.25268561648454124 58.009497869018218807469 205.79021812037805716
60.009497869018190385759 1141.64251510703047643 60.009497869018190385759 206.02091069511561727
62.009497869018190385759 1145.84026276989015969 62.009497869018190385759 206.23920354718171666
64.009497869018218807469 1149.85902424934897681 64.009497869018218807469 206.44526346576606102
66.009497869018190385759 1153.71063280534394835 66.009497869018190385759 206.63460591967006508
68.009497869018190385759 1157.40579706414951033 68.009497869018190385759 206.81215516267221233
70.009497869018190385759 1160.95442762817333460 70.009497869018190385759 206.98405602708476181
72.009497869018190385759 1164.36556678838701373 72.009497869018190385759 207.14632059801385822
74.009497869018218807469 1167.64748225525136149 74.009497869018218807469 207.30144656889828525
76.009497869018190385759 1170.80760301946133950 76.009497869018190385759 207.44890812689195059
78.009497869018190385759 1173.85273752455509566 78.009497869018190385759 207.58617952846611843
80.009497869018218807469 1176.78929300161098581 80.009497869018218807469 207.72228503700142710
82.009497869018190385759 1179.62343007445429066 82.009497869018190385759 207.85638921438240345
84.009497869018218807469 1182.36075283550781023 84.009497869018218807469 207.98127566684061662
86.009497869018190385759 1185.00642755175681486 86.009497869018190385759 208.10177333093758989
88.009497869018190385759 1187.56510051200734779 88.009497869018190385759 208.21825942982914626
91.009497869018218807469 1191.24941024024633407 91.009497869018218807469 208.38851034800362072
94.009497869018218807469 1194.76129000940477454 94.009497869018218807469 208.55930998316856062
97.009497869018218807469 1198.11340660399901026 97.009497869018218807469 208.74460994971005334
99.504748934509137825444 1200.78837693638274686 99.504748934509137825444 208.81278167050427896
nan nan nan nan

