Time Pressure difference Time.1 Pressure.1 difference.1
(hr) (psi) (hr) (psi)
0.000200000000020850166 0.42111284086871087 0.000200000000020850166 0.33619417878206292
0.000399999999999067768 0.84103965681058657 0.000399999999999067768 0.87546198728571156
0.000600000000019917934 1.25995902618542877 0.000600000000019917934 1.27876625782295861
0.000799999999998135536 1.67796015280409838 0.000799999999998135536 1.68809657144402059
0.001007140329434719206 2.10998113260706477 0.001007140329434719206 2.11649071902782504
0.001267914553977789183 2.65262998769529856 0.001267914553977789183 2.65781849287457828
0.001596209851982166583 3.33393571813691025 0.001596209851982166583 3.33598012747884409
0.002009509145224797066 4.18888023005573462 0.002009509145224797066 4.18475978830785333
0.002529822128153114136 5.26104874122381272 0.002529822128153114136 5.24588115286490542
0.003184857364431081805 6.60463453464239780 0.003184857364431081805 6.57067235330574029
0.004009497869034817086 8.28685546774382686 0.004009497869034817086 8.22198364301166862
0.005047658755856332391 10.39084086492119852 0.005047658755856332391 10.27633860552059630
0.006354625877790454069 13.01903718390664721 0.006354625877790454069 12.82627655792112797
0.008000000000009777068 16.29717130229672151 0.008000000000009777068 15.98278234367961836
0.010071403294361402914 20.37877159613575984 0.010071403294361402914 19.87758282754049333
0.012679145539692626699 25.45018342239060516 0.012679145539692626699 24.66499039092316181
0.015962098519750611558 31.73593107489481113 0.015962098519750611558 30.52286585349545334
0.020095091452091651263 39.50416468673095238 0.020095091452091651263 37.65180395400223290
0.025298221281360611101 49.07162946137336235 0.025298221281360611101 46.27169858298889693
0.031848573644296607199 60.80750536428639208 0.031848573644296607199 56.61443454706027723
0.040094978690191851456 75.13497480416467056 0.040094978690191851456 68.91082638907900559
0.050476587558435426217 92.52899786152832462 0.050476587558435426217 83.37028736594022860
0.063546258777947173257 113.50845109511610076 0.063546258777947173257 100.15156769305198736
0.080000000000012505552 138.62034289804893206 0.080000000000012505552 119.32387131062826313
0.100714032943542974863 168.41394447265625445 0.100714032943542974863 140.81715271109234777
0.126791455396883634421 203.40200543784945353 0.126791455396883634421 164.37123085250101440
0.159620985197506115583 244.01134393256123190 0.159620985197506115583 189.48187592891574127
0.200950914520774404082 290.51916525685959414 0.200950914520774404082 215.37473463920079553
0.252982212813464002465 342.99163498346678125 0.252982212813464002465 241.00979196881348798
0.318485736442809752589 401.22236013996922566 0.318485736442809752589 265.14478500040524978
0.400949786901833249431 464.70038568471323970 0.400949786901833249431 286.48492287722075389
0.504765875584169521062 532.61790964277020066 0.504765875584169521062 303.86756730907137580
0.635462587779443310865 603.92360782973651112 0.635462587779443310865 316.48957057803460202
0.800000000000011368684 677.43503818916735781 0.800000000000011368684 324.09409243786819843
1.007140329435344483500 751.97753711362770446 1.007140329435344483500 327.02647967307689214
1.267914553968907398485 826.52135084780604757 1.267914553968907398485 326.18562575475851872
1.596209851975117999245 900.29639739841059054 1.596209851975117999245 322.81656771279915574
2.009509145207687197399 972.83200869118354603 2.009509145207687197399 318.24710912961637632
2.529822128134725289783 1043.94842388088000007 2.529822128134725289783 313.71135360868134967
3.184857364427983839050 1113.71294448473167904 3.184857364427983839050 310.11554223781195105
4.009497869018204596614 1182.32312706196375984 4.009497869018204596614 307.99030588848665957
5.009497869018190385759 1247.82347035584484729 5.009497869018190385759 307.52002134593749361
6.009497869018190385759 1300.90047580834925611 6.009497869018190385759 308.29334676478782740
7.009497869018204596614 1345.53863758888542179 7.009497869018204596614 309.70535429512790415
8.009497869018190385759 1384.05320632347229548 8.009497869018190385759 311.39818658725874911
9.009497869018204596614 1417.90966136072847803 9.009497869018204596614 313.21606610444325725
10.009497869018190385759 1448.09604416346064681 10.009497869018190385759 315.04856965250468193
11.009497869018190385759 1475.31155736364598852 11.009497869018190385759 316.75611377927504009
12.009497869018204596614 1500.06972022468221439 12.009497869018204596614 318.39745390414395843
13.009497869018190385759 1522.75768652361830391 13.009497869018190385759 319.96128749456033802
14.009497869018204596614 1543.68006141115574792 14.009497869018204596614 321.44362563392695620
15.009497869018190385759 1563.07660790024942798 15.009497869018190385759 322.85585476249821113
16.009497869018190385759 1581.14153124774406933 16.009497869018190385759 324.18886830227330620
17.009497869018204596614 1598.03408526838597936 17.009497869018204596614 325.42445261866691908
18.009497869018190385759 1613.88504432123318111 18.009497869018190385759 326.57661943493843637
19.009497869018204596614 1628.80291834696686237 19.009497869018204596614 327.61104171890849557
20.009497869018190385759 1642.88077290323462876 20.009497869018190385759 328.58802614116211771
21.009497869018190385759 1656.19786818138459239 21.009497869018190385759 329.51335627721846322
22.009497869018204596614 1668.82204879085657012 22.009497869018204596614 330.40529699159083066
23.009497869018190385759 1680.81857120784889048 23.009497869018190385759 331.28274998997267176
24.009497869018204596614 1692.24222326743438316 24.009497869018204596614 332.11537242740251941
25.009497869018204596614 1703.13993201765902086 25.009497869018204596614 332.91877466925762974
26.009497869018190385759 1713.55284141768379413 26.009497869018190385759 333.66435638759230642
27.009497869018204596614 1723.51847739603817899 27.009497869018204596614 334.34974235125895348
28.009497869018190385759 1733.06674409603101594 28.009497869018190385759 334.98612476095098600
29.009497869018190385759 1742.22219773097504003 29.009497869018190385759 335.59042096272548861
30.009497869018190385759 1751.01111512334955478 30.009497869018190385759 336.16010403289220676
31.009497869018218807469 1759.45937634257029458 31.009497869018218807469 336.68373314255870810
32.009497869018190385759 1767.58938546843592121 32.009497869018190385759 337.17524634365622660
33.009497869018190385759 1775.42139823025217993 33.009497869018190385759 337.67748848443909537
34.009497869018218807469 1782.97449353032288855 34.009497869018218807469 338.14912764846502569
35.009497869018190385759 1790.26484017237589796 35.009497869018190385759 338.60535311224941779
36.009497869018190385759 1797.30745243161095459 36.009497869018190385759 339.05119657475290751
37.009497869018190385759 1804.11627192719697632 37.009497869018190385759 339.48114182206353462
38.009497869018218807469 1810.70361948814434072 38.009497869018218807469 339.89520930330479587
39.009497869018190385759 1817.08105069846874358 39.009497869018190385759 340.28642514801816787
40.009497869018190385759 1823.25929251094316896 40.009497869018190385759 340.65270333674772019
41.009497869018218807469 1829.24842699382838873 41.009497869018218807469 341.01696081984096054
42.009497869018190385759 1835.05769940669688367 42.009497869018190385759 341.36165070379536246
43.009497869018190385759 1840.69569022957716697 43.009497869018190385759 341.69268059004679117
44.009497869018218807469 1846.17079277278162408 44.009497869018218807469 342.00722416188767738
46.009497869018190385759 1856.66263318534879545 46.009497869018190385759 342.60328472100127328
48.009497869018218807469 1866.58839783022926895 48.009497869018218807469 343.16186538404139128
50.009497869018190385759 1875.99592819700274049 50.009497869018190385759 343.68529932411433947
52.009497869018190385759 1884.92785059992388597 52.009497869018190385759 344.17797914209825194
54.009497869018218807469 1893.42202364950458104 54.009497869018218807469 344.64320074541853955
56.009497869018190385759 1901.51235459811414330 56.009497869018190385759 345.07932100240356021
58.009497869018218807469 1909.22884638264122259 58.009497869018218807469 345.48225359944262891
60.009497869018190385759 1916.59852701743193393 60.009497869018190385759 345.86954212723048840
62.009497869018190385759 1923.64573915342498367 62.009497869018190385759 346.23601390205669759
64.009497869018218807469 1930.39246786231774422 64.009497869018218807469 346.58194893093838118
66.009497869018190385759 1936.85857891493174066 66.009497869018190385759 346.89981854726067922
68.009497869018190385759 1943.06205003815830423 68.009497869018190385759 347.19788962740005900
70.009497869018190385759 1949.01951923007914047 70.009497869018190385759 347.48647816467541816
72.009497869018190385759 1954.74616676063646992 72.009497869018190385759 347.75888921587096547
74.009497869018218807469 1960.25587252785567216 74.009497869018218807469 348.01931592858090880
76.009497869018190385759 1965.56110838035397137 76.009497869018190385759 348.26687556402060864
78.009497869018190385759 1970.67330438724980013 78.009497869018190385759 348.49732788388183735
80.009497869018218807469 1975.60321705899582412 80.009497869018218807469 348.72582289324412841
82.009497869018190385759 1980.36118889982867586 82.009497869018190385759 348.95095805195990124
84.009497869018218807469 1984.95662810464386894 84.009497869018218807469 349.16061842082183375
86.009497869018190385759 1989.39820784351195471 86.009497869018190385759 349.36291085690515956
88.009497869018190385759 1993.69372834300543218 88.009497869018190385759 349.55846864544167829
91.009497869018218807469 1999.87897679405591589 91.009497869018218807469 349.84428723986042087
94.009497869018218807469 2005.77474845949723203 94.009497869018218807469 350.13102702472338024
97.009497869018218807469 2011.40230843783911041 97.009497869018218807469 350.44211008113580874
99.504748934509137825444 2015.89306988988755620 99.504748934509137825444 350.55655730776715018
nan nan nan nan

