Time Pressure difference Time.1 Pressure.1 difference.1
(hr) (psi) (hr) (psi)
0.000200000000020850166 0.76082714444918964 0.000200000000020850166 0.60740407843070943
0.000399999999999067768 1.51951149041123701 0.000399999999999067768 1.58170252535248901
0.000600000000019917934 2.27637567650069572 0.000600000000019917934 2.31035481689512867
0.000799999999998135536 3.03158086778807556 0.000799999999998135536 3.04989439732292489
0.001007140329434719206 3.81211581354649054 0.001007140329434719206 3.82387672313508453
0.001267914553977789183 4.79252281800570668 0.001267914553977789183 4.80189692203769969
0.001596209851982166583 6.02344204696925090 0.001596209851982166583 6.02713569382765524
0.002009509145224797066 7.56807552412436468 0.002009509145224797066 7.56063109682444523
0.002529822128153114136 9.50516892891718435 0.002529822128153114136 9.47776555428846912
0.003184857364431081805 11.93263359710539717 0.003184857364431081805 11.87127391642614960
0.004009497869034817086 14.97191244270876886 0.004009497869034817086 14.85470812031299204
0.005047658755856332391 18.77319572439411743 0.005047658755856332391 18.56632379222261520
0.006354625877790454069 23.52157408374455372 0.006354625877790454069 23.17331228216124828
0.008000000000009777068 29.44419903925797755 0.008000000000009777068 28.87619058542510686
0.010071403294361402914 36.81845124666737235 0.010071403294361402914 35.91295043397848730
0.012679145539692626699 45.98100200179446517 0.012679145539692626699 44.56238895085920859
0.015962098519750611558 57.33750071913934931 0.015962098519750611558 55.14584836647303945
0.020095091452091651263 71.37241588371904299 0.020095091452091651263 68.02574442182651637
0.025298221281360611101 88.65801299135699765 0.025298221281360611101 83.59936075348683460
0.031848573644296607199 109.86129174297107625 0.031848573644296607199 102.28564505938305729
0.040094978690191851456 135.74681838385566834 0.040094978690191851456 124.50161138539718308
0.050476587558435426217 167.17270619558178169 0.050476587558435426217 150.62560794319773549
0.063546258777947173257 205.07641262944054006 0.063546258777947173257 180.94444971762447949
0.080000000000012505552 250.44622109391090703 0.080000000000012505552 215.58316789060253882
0.100714032943542974863 304.27450322870436139 0.100714032943542974863 254.41521081530689230
0.126791455396883634421 367.48764690546369138 0.126791455396883634421 296.97050781240818651
0.159620985197506115583 440.85678706553477468 0.159620985197506115583 342.33806380845521744
0.200950914520774404082 524.88275221949390925 0.200950914520774404082 389.11884995958166655
0.252982212813464002465 619.68508411214122589 0.252982212813464002465 435.43386477994704364
0.318485736442809752589 724.89089129824822066 0.318485736442809752589 479.03870426108721858
0.400949786901833249431 839.57702817987637900 0.400949786901833249431 517.59406184523504635
0.504765875584169521062 962.28403398969908267 0.504765875584169521062 548.99939182467335286
0.635462587779443310865 1091.11247489553966261 0.635462587779443310865 571.80364230666600633
0.800000000000011368684 1223.92602560409704893 0.800000000000011368684 585.54277844790397012
1.007140329435344483500 1358.60241419345743452 1.007140329435344483500 590.84074039553934199
1.267914553968907398485 1493.28117825757476567 1.267914553968907398485 589.32156447999761895
1.596209851975117999245 1626.57100595058000181 1.596209851975117999245 583.23466671582639265
2.009509145207687197399 1757.62153838486005952 2.009509145207687197399 574.97899795409978196
2.529822128134725289783 1886.10800054218157129 2.529822128134725289783 566.78422072101011508
3.184857364427983839050 2012.15198648523551128 3.184857364427983839050 560.28764633103708093
4.009497869018204596614 2136.11042285751273084 4.009497869018204596614 556.44796882416915196
5.009497869018190385759 2254.45029358176270762 5.009497869018190385759 555.59830286563851587
6.009497869018190385759 2350.34484386676103895 6.009497869018190385759 556.99547462829514188
7.009497869018204596614 2430.99288369116175090 7.009497869018204596614 559.54655726693727047
8.009497869018190385759 2500.57739051735825342 8.009497869018190385759 562.60500771978115608
9.009497869018204596614 2561.74605484502444597 9.009497869018204596614 565.88938175871794556
10.009497869018190385759 2616.28397722629188138 10.009497869018190385759 569.20017712365734042
11.009497869018190385759 2665.45441133155827629 11.009497869018190385759 572.28520753809857524
12.009497869018204596614 2710.18513555386334701 12.009497869018204596614 575.25062677750656803
13.009497869018190385759 2751.17562298941720655 13.009497869018190385759 578.07601448721356974
14.009497869018204596614 2788.97620562646670805 14.009497869018204596614 580.75416386721315121
15.009497869018190385759 2824.02006476652513811 15.009497869018190385759 583.30564686873435676
16.009497869018190385759 2856.65807223458341468 16.009497869018190385759 585.71401058162200570
17.009497869018204596614 2887.17795287148237549 17.009497869018204596614 587.94634832090514465
18.009497869018190385759 2915.81597751134086138 18.009497869018190385759 590.02797515266979644
19.009497869018204596614 2942.76819172745899778 19.009497869018204596614 591.89687221798851624
20.009497869018190385759 2968.20273763187924487 20.009497869018190385759 593.66199594734609946
21.009497869018190385759 2992.26281509693944827 21.009497869018190385759 595.33379556199622584
22.009497869018204596614 3015.07099939334284500 22.009497869018204596614 596.94527030433368964
23.009497869018190385759 3036.74518979564027177 23.009497869018190385759 598.53057000160742973
24.009497869018204596614 3057.38437182045345253 24.009497869018204596614 600.03487405029716228
25.009497869018204596614 3077.07332885241703480 25.009497869018204596614 601.48638579297823981
26.009497869018190385759 3095.88639593411880924 26.009497869018190385759 602.83343284227726144
27.009497869018204596614 3113.89137139008062150 27.009497869018204596614 604.07172385355659117
28.009497869018190385759 3131.14228321886503181 28.009497869018190385759 605.22147984424282186
29.009497869018190385759 3147.68349728120938380 29.009497869018190385759 606.31326548689639822
30.009497869018190385759 3163.56248807295514780 30.009497869018190385759 607.34251537303600799
31.009497869018218807469 3178.82601327375596156 31.009497869018218807469 608.28855928714745005
32.009497869018190385759 3193.51455047157287481 32.009497869018190385759 609.17657919287785262
33.009497869018190385759 3207.66469581639239550 33.009497869018190385759 610.08398313953898651
34.009497869018218807469 3221.31091927766419758 34.009497869018218807469 610.93609650097425856
35.009497869018190385759 3234.48243313194507209 35.009497869018190385759 611.76036183593771511
36.009497869018190385759 3247.20636376204265616 36.009497869018190385759 612.56586994570739080
37.009497869018190385759 3259.50789957655297258 37.009497869018190385759 613.34265465288001451
38.009497869018218807469 3271.40930069258411095 38.009497869018218807469 614.09075290301223049
39.009497869018190385759 3282.93144465443265290 39.009497869018190385759 614.79756496170546143
40.009497869018190385759 3294.09371191326226835 40.009497869018190385759 615.45932200485390240
41.009497869018218807469 3304.91431780344510116 41.009497869018218807469 616.11742822677376807
42.009497869018190385759 3315.40996579198099425 42.009497869018190385759 616.74018154768555178
43.009497869018190385759 3325.59615828460118792 43.009497869018190385759 617.33825526722466748
44.009497869018218807469 3335.48805952636666916 44.009497869018218807469 617.90654306171416010
46.009497869018190385759 3354.44373175104419715 46.009497869018190385759 618.98344931841643302
48.009497869018218807469 3372.37667142502959905 48.009497869018218807469 619.99264041771573375
50.009497869018190385759 3389.37331406006796897 50.009497869018190385759 620.93833171772917012
52.009497869018190385759 3405.51067287875821421 52.009497869018190385759 621.82845935732154885
54.009497869018218807469 3420.85714726419382714 54.009497869018218807469 622.66897807259044839
56.009497869018190385759 3435.47399765655336523 56.009497869018190385759 623.45691920749845849
58.009497869018218807469 3449.41543054536350610 58.009497869018218807469 624.18489999425923997
60.009497869018190385759 3462.73027760940340158 60.009497869018190385759 624.88461654545005786
62.009497869018190385759 3475.46251886496520456 62.009497869018190385759 625.54672334178292203
64.009497869018218807469 3487.65187487550929291 64.009497869018218807469 626.17172627364811888
66.009497869018190385759 3499.33423725064540122 66.009497869018190385759 626.74602325303897032
68.009497869018190385759 3510.54208645947346668 68.009497869018190385759 627.28455009605215764
70.009497869018190385759 3521.30548247485694446 70.009497869018190385759 627.80594477089289285
72.009497869018190385759 3531.65185158331951243 72.009497869018190385759 628.29811148271755883
74.009497869018218807469 3541.60627068149096885 74.009497869018218807469 628.76862601692323551
76.009497869018190385759 3551.19127273452477311 76.009497869018190385759 629.21589352395039896
78.009497869018190385759 3560.42750851818709634 78.009497869018190385759 629.63225313932105109
80.009497869018218807469 3569.33441188568076541 80.009497869018218807469 630.04507646984541225
82.009497869018190385759 3577.93066870264919999 82.009497869018190385759 630.45182953766311584
84.009497869018218807469 3586.23327681233513431 84.009497869018218807469 630.83062420803310033
86.009497869018190385759 3594.25790608413581140 86.009497869018190385759 631.19610718920137060
88.009497869018190385759 3602.01864923509447181 88.009497869018190385759 631.54942264146859543
91.009497869018218807469 3613.19357543068099403 91.009497869018218807469 632.06581284361368489
94.009497869018218807469 3623.84550214773025800 94.009497869018218807469 632.58386736616682811
97.009497869018218807469 3634.01284916974509542 97.009497869018218807469 633.14590302627289020
99.504748934509137825444 3642.12633534346559827 99.504748934509137825444 633.35267553040364419
nan nan nan nan

