Time Pressure difference Time.1 Pressure.1 difference.1
(hr) (psi) (hr) (psi)
0.000200000000020850166 0.83308911122547735 0.000200000000020850166 0.66509420378384454
0.000399999999999067768 1.66383190489352728 0.000399999999999067768 1.73192973027133856
0.000600000000019917934 2.49258166324257413 0.000600000000019917934 2.52978808007184908
0.000799999999998135536 3.31951485850593819 0.000799999999998135536 3.33956777348787481
0.001007140329434719206 4.17418358186368010 0.001007140329434719206 4.18706152107476992
0.001267914553977789183 5.24770784548004787 0.001267914553977789183 5.25797228472031986
0.001596209851982166583 6.59553752522942993 0.001596209851982166583 6.59958198789207273
0.002009509145224797066 8.28687745709250656 0.002009509145224797066 8.27872597174117786
0.002529822128153114136 10.40795244072482184 0.002529822128153114136 10.37794634383333303
0.003184857364431081805 13.06597325097894391 0.003184857364431081805 12.99878574036618772
0.004009497869034817086 16.39391722711451393 0.004009497869034817086 16.26558105313748115
0.005047658755856332391 20.55623942310840491 0.005047658755856332391 20.32971917423502362
0.006354625877790454069 25.75561005021373973 0.006354625877790454069 25.37427098144949156
0.008000000000009777068 32.24075506154558468 0.008000000000009777068 31.61879820652989537
0.010071403294361402914 40.31540021878534219 0.010071403294361402914 39.32389659965111406
0.012679145539692626699 50.34819323995616713 0.012679145539692626699 48.79484292326614536
0.015962098519750611558 62.78331137696152808 0.015962098519750611558 60.38349990346338814
0.020095091452091651263 78.15123704298055429 0.020095091452091651263 74.48670486363755572
0.025298221281360611101 97.07858846106012152 0.025298221281360611101 91.53947471151451509
0.031848573644296607199 120.29571574039300685 0.031848573644296607199 112.00054802899694550
0.040094978690191851456 148.63980222599045078 0.040094978690191851456 136.32654609121547651
0.050476587558435426217 183.05046322507479317 0.050476587558435426217 164.93175192906912230
0.063546258777947173257 224.55419417830663065 0.063546258777947173257 198.13022168862156036
0.080000000000012505552 274.23314383972996211 0.080000000000012505552 236.05886178414229448
0.100714032943542974863 333.17393748732587255 0.100714032943542974863 278.57910092549434466
0.126791455396883634421 402.39094961373376691 0.126791455396883634421 325.17622198236398390
0.159620985197506115583 482.72855614271981040 0.159620985197506115583 374.85270524004437220
0.200950914520774404082 574.73515335824492922 0.200950914520774404082 426.07664466098299272
0.252982212813464002465 678.54163686078334194 0.252982212813464002465 476.79057464441797265
0.318485736442809752589 793.73969865954461511 0.318485736442809752589 524.53692180553548496
0.400949786901833249431 919.31851448080340106 0.400949786901833249431 566.75419654014285697
0.504765875584169521062 1053.68000665029285301 0.504765875584169521062 601.14234716173291417
0.635462587779443310865 1194.74433659413352871 0.635462587779443310865 626.11250353011564584
0.800000000000011368684 1340.17227476081802706 0.800000000000011368684 641.15655762363280701
1.007140329435344483500 1487.63997973366599581 1.007140329435344483500 646.95771028026854310
1.267914553968907398485 1635.11028579950584572 1.267914553968907398485 645.29424582253011522
1.596209851975117999245 1781.05973686510037624 1.596209851975117999245 638.62922567246073413
2.009509145207687197399 1924.55720851529986248 2.009509145207687197399 629.58944863314638951
2.529822128134725289783 2065.24707919629736352 2.529822128134725289783 620.61634648818017013
3.184857364427983839050 2203.26249175184602791 3.184857364427983839050 613.50273937776216826
4.009497869018204596614 2338.99427306341158328 4.009497869018204596614 609.29837634349530617
5.009497869018190385759 2468.57384766649374797 5.009497869018190385759 608.36801067056273951
6.009497869018190385759 2573.57628646109287729 6.009497869018190385759 609.89788324473806824
7.009497869018204596614 2661.88412919458005490 7.009497869018204596614 612.69126303355687924
8.009497869018190385759 2738.07764485688903733 8.009497869018190385759 616.04019950102667735
9.009497869018204596614 2805.05599673532651650 9.009497869018204596614 619.63651736243912183
10.009497869018190385759 2864.77383095848335870 10.009497869018190385759 623.26176599893915409
11.009497869018190385759 2918.61438271348561102 11.009497869018190385759 626.63980694400959237
12.009497869018204596614 2967.59354908354271174 12.009497869018204596614 629.88687626401645048
13.009497869018190385759 3012.47723783666515374 13.009497869018190385759 632.98061411645778662
14.009497869018204596614 3053.86805048400219675 14.009497869018204596614 635.91312921267990532
15.009497869018190385759 3092.24031109260340600 15.009497869018190385759 638.70694739010980356
16.009497869018190385759 3127.97821664987668555 16.009497869018190385759 641.34405307136125884
17.009497869018204596614 3161.39681957434140713 17.009497869018204596614 643.78841415487750055
18.009497869018190385759 3192.75483127060533661 18.009497869018190385759 646.06775008529245952
19.009497869018204596614 3222.26691736096245222 19.009497869018204596614 648.11415156620353173
20.009497869018190385759 3250.11718978687213166 20.009497869018190385759 650.04692351003075146
21.009497869018190385759 3276.46244928191117651 21.009497869018190385759 651.87750758589766065
22.009497869018204596614 3301.43691309118185018 22.009497869018204596614 653.64203724371907356
23.009497869018190385759 3325.16967834609977217 23.009497869018190385759 655.37790579870329566
24.009497869018204596614 3347.76913202610785447 24.009497869018204596614 657.02508588695206981
25.009497869018204596614 3369.32811008621683868 25.009497869018204596614 658.61445955279168629
26.009497869018190385759 3389.92800777502361598 26.009497869018190385759 660.08944666026650339
27.009497869018204596614 3409.64306277756622876 27.009497869018204596614 661.44534828069572541
28.009497869018190385759 3428.53243457262169613 28.009497869018190385759 662.70430598665450361
29.009497869018190385759 3446.64470280901014121 29.009497869018190385759 663.89978742724576932
30.009497869018190385759 3464.03185102311590526 30.009497869018190385759 665.02679357986357900
31.009497869018218807469 3480.74507785325067744 31.009497869018218807469 666.06269100983513454
32.009497869018190385759 3496.82870537444068759 32.009497869018190385759 667.03505341752895674
33.009497869018190385759 3512.32280557187959857 33.009497869018190385759 668.02864092680954400
34.009497869018218807469 3527.26512230949447257 34.009497869018218807469 668.96168645248587836
35.009497869018190385759 3541.68764239229358282 35.009497869018190385759 669.86423899721137332
36.009497869018190385759 3555.62006861717054562 36.009497869018190385759 670.74625278989583421
37.009497869018190385759 3569.08998174157522953 37.009497869018190385759 671.59681508388507609
38.009497869018218807469 3582.12175610770964340 38.009497869018218807469 672.41596633375684178
39.009497869018190385759 3594.73825217073772365 39.009497869018190385759 673.18991010544823439
40.009497869018190385759 3606.96069110153075599 40.009497869018190385759 673.91451961885206856
41.009497869018218807469 3618.80901829351023480 41.009497869018218807469 674.63513156272279048
42.009497869018190385759 3630.30152367833716198 42.009497869018190385759 675.31703285188700647
43.009497869018190385759 3641.45518205180633231 43.009497869018190385759 675.97191051640425030
44.009497869018218807469 3652.28659793116321453 44.009497869018218807469 676.59417324333992383
46.009497869018190385759 3673.04264513787893520 46.009497869018190385759 677.77336208119174898
48.009497869018218807469 3692.67882253199240949 48.009497869018218807469 678.87840430018445659
50.009497869018190385759 3711.28977511162474912 50.009497869018190385759 679.91391562541741678
52.009497869018190385759 3728.95983067401130029 52.009497869018190385759 680.88858595566978238
54.009497869018218807469 3745.76388505020304365 54.009497869018218807469 681.80893559695221029
56.009497869018190385759 3761.76901708463219620 56.009497869018190385759 682.67171393572152738
58.009497869018218807469 3777.03458169978148362 58.009497869018218807469 683.46883700244757165
60.009497869018190385759 3791.61404851772067559 60.009497869018190385759 684.23501134834759796
62.009497869018190385759 3805.55557469602626952 62.009497869018190385759 684.96000383385182886
64.009497869018218807469 3818.90265338442759457 64.009497869018218807469 685.64436839789198075
66.009497869018190385759 3831.69458511178754634 66.009497869018190385759 686.27321105108956090
68.009497869018190385759 3843.96693528258902006 68.009497869018190385759 686.86288618596097422
70.009497869018190385759 3855.75261891078753251 70.009497869018190385759 687.43380197074839089
72.009497869018190385759 3867.08166718129905348 72.009497869018190385759 687.97271377419838245
74.009497869018218807469 3877.98153874840090793 74.009497869018218807469 688.48791691591054587
76.009497869018190385759 3888.47690671695227138 76.009497869018190385759 688.97766507043911588
78.009497869018190385759 3898.59038323552567817 78.009497869018190385759 689.43356975844869794
80.009497869018218807469 3908.34324794905842282 80.009497869018218807469 689.88560229176300709
82.009497869018190385759 3917.75596147244186795 82.009497869018190385759 690.33098801995220128
84.009497869018218807469 3926.84713607289540960 84.009497869018218807469 690.74575991338122094
86.009497869018190385759 3935.63392991527189224 86.009497869018190385759 691.14595579778278989
88.009497869018190385759 3944.13177421702994252 88.009497869018190385759 691.53282850370408141
91.009497869018218807469 3956.36807440717575446 91.009497869018218807469 692.09826450015771115
94.009497869018218807469 3968.03170158752618590 94.009497869018218807469 692.66552289111939444
97.009497869018218807469 3979.16472458215503138 97.009497869018218807469 693.28093966741460008
99.504748934509137825444 3988.04881479202549599 99.504748934509137825444 693.50735104475427306
nan nan nan nan

