Time Pressure difference Time.1 Pressure.1 difference.1
(hr) (psi) (hr) (psi)
0.000200000000020850166 0.34303669285754951 0.000200000000020850166 0.27386231920511245
0.000399999999999067768 0.68510725495615821 0.000399999999999067768 0.71314753599408065
0.000600000000019917934 1.02635715545282458 0.000600000000019917934 1.04167744473546731
0.000799999999998135536 1.36685905938479801 0.000799999999998135536 1.37511614202441912
0.001007140329434719206 1.71878147488504451 0.001007140329434719206 1.72408415573667018
0.001267914553977789183 2.16082087755060792 0.001267914553977789183 2.16504741135542567
0.001596209851982166583 2.71580956921211847 0.001596209851982166583 2.71747493619085301
0.002009509145224797066 3.41224365880279734 0.002009509145224797066 3.40888716483460241
0.002529822128153114136 4.28562747559257406 0.002529822128153114136 4.27327202393137284
0.003184857364431081805 5.38010663275603651 0.003184857364431081805 5.35244118720960671
0.004009497869034817086 6.75043650528244665 0.004009497869034817086 6.69759219835072717
0.005047658755856332391 8.46433388010346022 0.005047658755856332391 8.37106083644971655
0.006354625877790454069 10.60525119714683484 0.006354625877790454069 10.44822922765567341
0.008000000000009777068 13.27560502534229769 0.008000000000009777068 13.01950514386525093
0.010071403294361402914 16.60045891361749426 0.010071403294361402914 16.19219271750339928
0.012679145539692626699 20.73160898115841988 0.012679145539692626699 20.09199414487429536
0.015962098519750611558 25.85195174345475166 0.015962098519750611558 24.86379407789668861
0.020095091452091651263 32.17992113534493370 0.020095091452091651263 30.67099612032134459
0.025298221281360611101 39.97353642514239880 0.025298221281360611101 37.69272488121186626
0.031848573644296607199 49.53353001075006290 0.031848573644296607199 46.11787271782227293
0.040094978690191851456 61.20462444599606755 0.040094978690191851456 56.13446015520636934
0.050476587558435426217 75.37372015150138793 0.050476587558435426217 67.91307432373433528
0.063546258777947173257 92.46349172047919751 0.063546258777947173257 81.58303246002064668
0.080000000000012505552 112.91952981635938613 0.080000000000012505552 97.20070779347035739
0.100714032943542974863 137.18926837713416944 0.100714032943542974863 114.70904155755650322
0.126791455396883634421 165.69039101741978470 0.126791455396883634421 133.89609140450278346
0.159620985197506115583 198.77058194111992862 0.159620985197506115583 154.35111392237118366
0.200950914520774404082 236.65565138280675228 0.200950914520774404082 175.44332427216946257
0.252982212813464002465 279.39949753091082130 0.252982212813464002465 196.32553073593680892
0.318485736442809752589 326.83399356569486827 0.318485736442809752589 215.98579133169110378
0.400949786901833249431 378.54291772738963573 0.400949786901833249431 233.36937504594115467
0.504765875584169521062 433.86823803247352771 0.504765875584169521062 247.52920177247827382
0.635462587779443310865 491.95355036229034340 0.635462587779443310865 257.81103086534182012
0.800000000000011368684 551.83564254857208198 0.800000000000011368684 264.00564137443706159
1.007140329435344483500 612.55763871386238861 1.007140329435344483500 266.39435129187523899
1.267914553968907398485 673.28070591744358353 1.267914553968907398485 265.70939533868886429
1.596209851975117999245 733.37753870915889820 1.596209851975117999245 262.96497527689558638
2.009509145207687197399 792.46473291806466932 2.009509145207687197399 259.24271414306031147
2.529822128134725289783 850.39585613965175526 2.529822128134725289783 255.54790737748595575
3.184857364427983839050 907.22573189781894598 3.184857364427983839050 252.61877503790208266
4.009497869018204596614 963.11528890846363993 4.009497869018204596614 250.88756672967454620
5.009497869018190385759 1016.47158433326205795 5.009497869018190385759 250.50447498199642382
6.009497869018190385759 1059.70788266045019554 6.009497869018190385759 251.13442251253920290
7.009497869018204596614 1096.06993555070948787 7.009497869018204596614 252.28463771969987306
8.009497869018190385759 1127.44373611754258491 8.009497869018190385759 253.66361155924630566
9.009497869018204596614 1155.02305747925220203 9.009497869018204596614 255.14444832571021493
10.009497869018190385759 1179.61275392408128937 10.009497869018190385759 256.63719776426910357
11.009497869018190385759 1201.78239288202348689 11.009497869018190385759 258.02815580047450794
12.009497869018204596614 1221.95028491675293481 12.009497869018204596614 259.36518434400676369
13.009497869018190385759 1240.43180381509750987 13.009497869018190385759 260.63907640089433926
14.009497869018204596614 1257.47507961105975482 14.009497869018204596614 261.84658261698581327
15.009497869018190385759 1273.27542221460157634 15.009497869018190385759 262.99697833710405348
16.009497869018190385759 1287.99103038524322073 16.009497869018190385759 264.08284538232521754
17.009497869018204596614 1301.75163158943473718 17.009497869018204596614 265.08934700494955905
18.009497869018190385759 1314.66375405260214393 18.009497869018190385759 266.02789709394392048
19.009497869018204596614 1326.81578950157268082 19.009497869018204596614 266.87053299784855653
20.009497869018190385759 1338.28354873577086437 20.009497869018190385759 267.66638026883617840
21.009497869018190385759 1349.13159676313966884 21.009497869018190385759 268.42015018242841506
22.009497869018204596614 1359.41519950813381001 22.009497869018204596614 269.14672121800197147
23.009497869018190385759 1369.18751461309989281 23.009497869018190385759 269.86149062299551815
24.009497869018204596614 1378.49317201075018602 24.009497869018204596614 270.53974124756854280
25.009497869018204596614 1387.37039827079524912 25.009497869018204596614 271.19418922762008606
26.009497869018190385759 1395.85270908383290589 26.009497869018190385759 271.80153686010970659
27.009497869018204596614 1403.97067290840982423 27.009497869018204596614 272.35984929205119442
28.009497869018190385759 1411.74864952990287748 28.009497869018190385759 272.87824364156364254
29.009497869018190385759 1419.20664233312163560 29.009497869018190385759 273.37050070533649659
30.009497869018190385759 1426.36605630363601449 30.009497869018190385759 273.83456206229675445
31.009497869018218807469 1433.24797323369148216 31.009497869018218807469 274.26110806287323385
32.009497869018190385759 1439.87064338947561737 32.009497869018190385759 274.66149258368841402
33.009497869018190385759 1446.25056700018558331 33.009497869018190385759 275.07061685221566449
34.009497869018218807469 1452.40328565685058493 34.009497869018218807469 275.45481206867066248
35.009497869018190385759 1458.34197039682680952 35.009497869018190385759 275.82645135179291174
36.009497869018190385759 1464.07885178354104028 36.009497869018190385759 276.18963350172185756
37.009497869018190385759 1469.62528659947224696 37.009497869018190385759 276.53986503454092372
38.009497869018218807469 1474.99131133846890407 38.009497869018218807469 276.87716260801749968
39.009497869018190385759 1480.18633912912741835 39.009497869018190385759 277.19584533753749156
40.009497869018190385759 1485.21910810063036479 40.009497869018190385759 277.49421396070374612
41.009497869018218807469 1490.09783106203371972 41.009497869018218807469 277.79093652582707819
42.009497869018190385759 1494.83003916166831004 42.009497869018190385759 278.07171940960051870
43.009497869018190385759 1499.42272202133199244 43.009497869018190385759 278.34137491851942059
44.009497869018218807469 1503.88271679518493329 44.009497869018218807469 278.59760074725761569
46.009497869018190385759 1512.42932446853842521 46.009497869018190385759 279.08314909225543943
48.009497869018218807469 1520.51480927787906694 48.009497869018218807469 279.53816647654650751
50.009497869018190385759 1528.17814269302198227 50.009497869018190385759 279.96455349281893632
52.009497869018190385759 1535.45404792459271448 52.009497869018190385759 280.36588833468755411
54.009497869018218807469 1542.37336443243657413 54.009497869018218807469 280.74485583403912869
56.009497869018190385759 1548.96371291720151930 56.009497869018190385759 281.10011750294415833
58.009497869018218807469 1555.24953364108660026 58.009497869018218807469 281.42834464806668393
60.009497869018190385759 1561.25284350729680227 60.009497869018190385759 281.74382820226071544
62.009497869018190385759 1566.99347193365792918 62.009497869018190385759 282.04235451982134464
64.009497869018218807469 1572.48932786417594798 64.009497869018218807469 282.32415169324957560
66.009497869018190385759 1577.75659386955976515 66.009497869018190385759 282.58308690338981251
68.009497869018190385759 1582.80991452812486386 68.009497869018190385759 282.82589431186630691
70.009497869018190385759 1587.66284308091258026 70.009497869018190385759 283.06097728207288355
72.009497869018190385759 1592.32774530994652196 72.009497869018190385759 283.28288214231696429
74.009497869018218807469 1596.81592771992973212 74.009497869018218807469 283.49502461243378093
76.009497869018190385759 1601.13754982462751286 76.009497869018190385759 283.69668561723966604
78.009497869018190385759 1605.30192250874597448 78.009497869018190385759 283.88441107700833754
80.009497869018218807469 1609.31780797902410995 80.009497869018218807469 284.07054212013770211
82.009497869018190385759 1613.19363119453510080 82.009497869018190385759 284.25393624350971322
84.009497869018218807469 1616.93705603001581039 84.009497869018218807469 284.42472467021582361
86.009497869018190385759 1620.55514761217045816 86.009497869018190385759 284.58951121085175373
88.009497869018190385759 1624.05425997171846575 88.009497869018190385759 284.74881173681933433
91.009497869018218807469 1629.09273652060187487 91.009497869018218807469 284.98163832359432490
94.009497869018218807469 1633.89540653604012732 94.009497869018218807469 285.21521530810798595
97.009497869018218807469 1638.47959247500511992 97.009497869018218807469 285.46862221599423037
99.504748934509137825444 1642.13774726730480324 99.504748934509137825444 285.56185043019291925
nan nan nan nan

