Time Pressure difference Time.1 Pressure.1 difference.1
(hr) (psi) (hr) (psi)
0.000200000000020850166 0.40699268644116043 0.000200000000020850166 0.32492139566708250
0.000399999999999067768 0.81283911604967929 0.000399999999999067768 0.84610724609467203
0.000600000000019917934 1.21771187935080905 0.000600000000019917934 1.23588849375394427
0.000799999999998135536 1.62169718910060801 0.000799999999998135536 1.63149372782558211
0.001007140329434719206 2.03923225833818833 0.001007140329434719206 2.04552357460282908
0.001267914553977789183 2.56368578692445004 0.001267914553977789183 2.56870031855728476
0.001596209851982166583 3.22214694652285205 0.001596209851982166583 3.22412280565016474
0.002009509145224797066 4.04842467993552191 0.002009509145224797066 4.04444239895630808
0.002529822128153114136 5.08464276765220546 0.002529822128153114136 5.06998375720671302
0.003184857364431081805 6.38317736089699128 0.003184857364431081805 6.35035395092665222
0.004009497869034817086 8.00899246389442787 0.004009497869034817086 7.94629582855171002
0.005047658755856332391 10.04243002724139622 0.005047658755856332391 9.93176709409288350
0.006354625877790454069 12.58250142034370178 0.006354625877790454069 12.39620416840503658
0.008000000000009777068 15.75071782667730247 0.008000000000009777068 15.44687050967063691
0.010071403294361402914 19.69545972802075440 0.010071403294361402914 19.21107610551251099
0.012679145539692626699 24.59682421493372217 0.012679145539692626699 23.83795915493560003
0.015962098519750611558 30.67180715325140028 0.015962098519750611558 29.49941670258928994
0.020095091452091651263 38.17956744871433017 0.020095091452091651263 36.38931743088973292
0.025298221281360611101 47.42622965694861392 0.025298221281360611101 44.72018206245474659
0.031848573644296607199 58.76859492800854667 0.031848573644296607199 54.71612017368744318
0.040094978690191851456 72.61565612236820755 0.040094978690191851456 66.60020696380416894
0.050476587558435426217 89.42644763737452251 0.050476587558435426217 80.57483394341362271
0.063546258777947173257 109.70244780395836415 0.063546258777947173257 96.79342834239737670
0.080000000000012505552 133.97232351093487068 0.080000000000012505552 115.32287365326990880
0.100714032943542974863 162.76692858304053857 0.100714032943542974863 136.09547303438907306
0.126791455396883634421 196.58181985117602153 0.126791455396883634421 158.85976946296943879
0.159620985197506115583 235.82950399793890028 0.159620985197506115583 183.12844024688106970
0.200950914520774404082 280.77789147112667933 0.200950914520774404082 208.15309659409936671
0.252982212813464002465 331.49092927396196728 0.252982212813464002465 232.92859578839960477
0.318485736442809752589 387.76914490845155115 0.318485736442809752589 256.25432869861657537
0.400949786901833249431 449.11871594775044514 0.400949786901833249431 276.87891954603185241
0.504765875584169521062 514.75892647920591116 0.504765875584169521062 293.67871396734710743
0.635462587779443310865 583.67370381966645709 0.635462587779443310865 305.87749424701564749
0.800000000000011368684 654.72025387118731032 0.800000000000011368684 313.22703213916258846
1.007140329435344483500 726.76330016898930353 1.007140329435344483500 316.06109475307238199
1.267914553968907398485 798.80761719018732947 1.267914553968907398485 315.24843514759697882
1.596209851975117999245 870.10894423120555530 1.596209851975117999245 311.99234354885913945
2.009509145207687197399 940.21239498753436692 2.009509145207687197399 307.57610152566473971
2.529822128134725289783 1008.94423609789180318 2.529822128134725289783 303.19243248176303496
3.184857364427983839050 1076.36951242114105298 3.184857364427983839050 299.71719072293467434
4.009497869018204596614 1142.67915633207553583 4.009497869018204596614 297.66321476402066537
5.009497869018190385759 1205.98323564963311583 5.009497869018190385759 297.20869913118218619
6.009497869018190385759 1257.28053874968668424 6.009497869018190385759 297.95609450640245086
7.009497869018204596614 1300.42195743304500866 7.009497869018204596614 299.32075661659308707
8.009497869018190385759 1337.64511064793191508 8.009497869018190385759 300.95682727368205178
9.009497869018204596614 1370.36633938216368733 9.009497869018204596614 302.71375225084256044
10.009497869018190385759 1399.54055550314728862 10.009497869018190385759 304.48481090675994665
11.009497869018190385759 1425.84351697867191433 11.009497869018190385759 306.13510010225792257
12.009497869018204596614 1449.77152447750336250 12.009497869018204596614 307.72140515390634619
13.009497869018190385759 1471.69875028909859793 13.009497869018190385759 309.23280250953564519
14.009497869018204596614 1491.91958597922348417 14.009497869018204596614 310.66543700320352173
15.009497869018190385759 1510.66575516986631555 15.009497869018190385759 312.03031328130987276
16.009497869018190385759 1528.12495130452589365 16.009497869018190385759 313.31863011462309032
17.009497869018204596614 1544.45108832644814356 17.009497869018204596614 314.51278458214352440
18.009497869018190385759 1559.77055565562977790 18.009497869018190385759 315.62631858603521096
19.009497869018204596614 1574.18822483237454435 19.009497869018204596614 316.62605609914237448
20.009497869018190385759 1587.79404087294847159 20.009497869018190385759 317.57028167489039561
21.009497869018190385759 1600.66460632914890994 21.009497869018190385759 318.46458496220321877
22.009497869018204596614 1612.86549094185352260 22.009497869018204596614 319.32661839423963102
23.009497869018190385759 1624.45976310028800071 23.009497869018190385759 320.17464989168956890
24.009497869018204596614 1635.50037357207656896 24.009497869018204596614 320.97935402253892789
25.009497869018204596614 1646.03267591450276086 25.009497869018204596614 321.75581772768487099
26.009497869018190385759 1656.09643450624275829 26.009497869018190385759 322.47639966453692750
27.009497869018204596614 1665.72791700997777298 27.009497869018204596614 323.13880424480646525
28.009497869018190385759 1674.95602486598681935 28.009497869018190385759 323.75384838829580758
29.009497869018190385759 1683.80449090370370868 29.009497869018190385759 324.33788219277215603
30.009497869018190385759 1692.29871086872071828 30.009497869018190385759 324.88846346374191398
31.009497869018218807469 1700.46369705692200114 31.009497869018218807469 325.39453498984966018
32.009497869018190385759 1708.32110232649642967 32.009497869018190385759 325.86956747217266184
33.009497869018190385759 1715.89050322055913966 33.009497869018190385759 326.35496914669658963
34.009497869018218807469 1723.19033891490767019 34.009497869018218807469 326.81079397977879353
35.009497869018190385759 1730.23623606403180020 35.009497869018190385759 327.25172194280514759
36.009497869018190385759 1737.04270550589603772 36.009497869018190385759 327.68261601899200741
37.009497869018190385759 1743.62322138920421821 37.009497869018190385759 328.09814495623498942
38.009497869018218807469 1749.98969141852239773 38.009497869018218807469 328.49832851798686306
39.009497869018190385759 1756.15328371252394390 39.009497869018190385759 328.87642667165465582
40.009497869018190385759 1762.12436554312080261 40.009497869018190385759 329.23042334320786040
41.009497869018218807469 1767.91268092105701726 41.009497869018218807469 329.58246706454053765
42.009497869018190385759 1773.52716510706409281 42.009497869018190385759 329.91559929952609309
43.009497869018190385759 1778.97611087276686703 43.009497869018190385759 330.23552956434508587
44.009497869018218807469 1784.26763009598221288 44.009497869018218807469 330.53952631030563225
46.009497869018190385759 1794.40767309826605924 46.009497869018190385759 331.11560061793022669
48.009497869018218807469 1804.00062117714469423 48.009497869018218807469 331.65545175183484616
50.009497869018190385759 1813.09271166968710531 50.009497869018190385759 332.16133465249703249
52.009497869018190385759 1821.72514160544915285 52.009497869018190385759 332.63749463437505938
54.009497869018218807469 1829.93450017407735686 54.009497869018218807469 333.08711709123286937
56.009497869018190385759 1837.75355769837460684 56.009497869018190385759 333.50861398654387813
58.009497869018218807469 1845.21131109959424066 58.009497869018218807469 333.89803602312997555
60.009497869018190385759 1852.33388212730096711 60.009497869018190385759 334.27233854505516319
62.009497869018190385759 1859.14479720942449603 62.009497869018190385759 334.62652231165242256
64.009497869018218807469 1865.66530424563279666 64.009497869018218807469 334.96085794114361534
66.009497869018190385759 1871.91460289608789935 66.009497869018190385759 335.26806920741171325
68.009497869018190385759 1877.91006808421616370 68.009497869018190385759 335.55614579373968809
70.009497869018190385759 1883.66777992650645501 70.009497869018190385759 335.83505779228983101
72.009497869018190385759 1889.20240968976713702 72.009497869018190385759 336.09833474512186058
74.009497869018218807469 1894.52737187110324157 74.009497869018218807469 336.35002920119256942
76.009497869018190385759 1899.65472013091402914 76.009497869018190385759 336.58928802045386419
78.009497869018190385759 1904.59550128156297433 78.009497869018190385759 336.81201314221323173
80.009497869018218807469 1909.36011116155418676 80.009497869018218807469 337.03284658321422285
82.009497869018190385759 1913.95854548504166814 82.009497869018190385759 337.25043283128269422
84.009497869018218807469 1918.39989698476438207 84.009497869018218807469 337.45306316805266533
86.009497869018190385759 1922.69254801443958058 86.009497869018190385759 337.64857262304440155
88.009497869018190385759 1926.84403725458105328 88.009497869018190385759 337.83757324707374892
91.009497869018218807469 1932.82189078715464348 91.009497869018218807469 338.11380818053567054
94.009497869018218807469 1938.51997385631875659 94.009497869018218807469 338.39093341639932078
97.009497869018218807469 1943.95883852966699123 97.009497869018218807469 338.69158567999318166
99.504748934509137825444 1948.29902218154802540 99.504748934509137825444 338.80219542565265556
nan nan nan nan

