Time Pressure difference Time.1 Pressure.1 difference.1
(hr) (psi) (hr) (psi)
0.000200000000020850166 0.73507862755189179 0.000200000000020850166 0.58684782686809800
0.000399999999999067768 1.46808697490605344 0.000399999999999067768 1.52817329141588698
0.000600000000019917934 2.19933676168462444 0.000600000000019917934 2.23216595300457277
0.000799999999998135536 2.92898369868171038 0.000799999999998135536 2.94667744719518421
0.001007140329434719206 3.68310316046795272 0.001007140329434719206 3.69446604800715050
0.001267914553977789183 4.63033045189416015 0.001267914553977789183 4.63938731004734084
0.001596209851982166583 5.81959193402596764 0.001596209851982166583 5.82316057755182825
0.002009509145224797066 7.31195069743456560 0.002009509145224797066 7.30475821035986250
0.002529822128153114136 9.18348744769837211 0.002529822128153114136 9.15701147985294028
0.003184857364431081805 11.52879992733436154 0.003184857364431081805 11.46951682973487330
0.004009497869034817086 14.46522108274810137 0.004009497869034817086 14.35198328218012875
0.005047658755856332391 18.13785831450741881 0.005047658755856332391 17.93798750667796327
0.006354625877790454069 22.72553827960035733 0.006354625877790454069 22.38906263069072722
0.008000000000009777068 28.44772505430492515 0.008000000000009777068 27.89893959399696399
0.010071403294361402914 35.57241195775177545 0.010071403294361402914 34.69755582322157039
0.012679145539692626699 44.42487638819661555 0.012679145539692626699 43.05427316758777323
0.015962098519750611558 55.39703945026017351 0.015962098519750611558 53.27955873835004752
0.020095091452091651263 68.95697386145343444 0.020095091452091651263 65.72356311497431136
0.025298221281360611101 85.65757805387657697 0.025298221281360611101 80.77012474545399812
0.031848573644296607199 106.14327859446440527 0.031848573644296607199 98.82401296676201241
0.040094978690191851456 131.15276666999156419 0.040094978690191851456 120.28812890401366076
0.050476587558435426217 161.51511461036011497 0.050476587558435426217 145.52801640800217342
0.063546258777947173257 198.13605368674114970 0.063546258777947173257 174.82078384290139184
0.080000000000012505552 241.97042103505586397 0.080000000000012505552 208.28723098600792696
0.100714032943542974863 293.97700366528749782 0.100714032943542974863 245.80508905190674795
0.126791455396883634421 355.05083789447093068 0.126791455396883634421 286.92019586679174381
0.159620985197506115583 425.93696130239982267 0.159620985197506115583 330.75238697650968334
0.200950914520774404082 507.11925296315729383 0.200950914520774404082 375.94998058322028101
0.252982212813464002465 598.71320899480883782 0.252982212813464002465 420.69756586272171717
0.318485736442809752589 700.35855764077473395 0.318485736442809752589 462.82669571076661441
0.400949786901833249431 811.16339513012064799 0.400949786901833249431 500.07723224130245399
0.504765875584169521062 929.71765292672898795 0.504765875584169521062 530.41971808388200316
0.635462587779443310865 1054.18617934776489165 0.635462587779443310865 552.45220899716093754
0.800000000000011368684 1182.50494831836886078 0.800000000000011368684 565.72637437379364655
1.007140329435344483500 1312.62351152970518342 1.007140329435344483500 570.84503848258987091
1.267914553968907398485 1442.74436982309339328 1.267914553968907398485 569.37727572576181956
1.596209851975117999245 1571.52329723391221705 1.596209851975117999245 563.49637559334757952
2.009509145207687197399 1698.13871339585284659 2.009509145207687197399 555.52010173512917390
2.529822128134725289783 1822.27683458496790081 2.529822128134725289783 547.60265866604140683
3.184857364427983839050 1944.05513978104045236 3.184857364427983839050 541.32594650979012840
4.009497869018204596614 2063.81847623242174450 4.009497869018204596614 537.61621442073112576
5.009497869018190385759 2178.15339499984747818 5.009497869018190385759 536.79530353284940247
6.009497869018190385759 2270.80260570096470474 6.009497869018190385759 538.14519109829836907
7.009497869018204596614 2348.72129046580585054 7.009497869018204596614 540.60993797078538137
8.009497869018190385759 2415.95086310901979232 8.009497869018190385759 543.56488191267067123
9.009497869018204596614 2475.04940888411192645 9.009497869018204596614 546.73810355509328929
10.009497869018190385759 2527.74161555160299031 10.009497869018190385759 549.93685235200518946
11.009497869018190385759 2575.24798474719273145 11.009497869018190385759 552.91747671530265507
12.009497869018204596614 2618.46489625018512015 12.009497869018204596614 555.78253788001450175
13.009497869018190385759 2658.06815103235157949 13.009497869018190385759 558.51230657334497209
14.009497869018204596614 2694.58945630941389027 14.009497869018204596614 561.09981989354105281
15.009497869018190385759 2728.44733331700354029 15.009497869018190385759 563.56495357950871039
16.009497869018190385759 2759.98077939694985616 16.009497869018190385759 565.89181153355389142
17.009497869018204596614 2789.46778197736011862 17.009497869018204596614 568.04860072489191225
18.009497869018190385759 2817.13661582700478903 18.009497869018190385759 570.05977948702275171
19.009497869018204596614 2843.17669178908454342 19.009497869018204596614 571.86542785253254806
20.009497869018190385759 2867.75046157665201463 20.009497869018190385759 573.57081486179185958
21.009497869018190385759 2890.99627877815646571 21.009497869018190385759 575.18603610520381153
22.009497869018204596614 2913.03257037457251499 22.009497869018204596614 576.74297403857565314
23.009497869018190385759 2933.97324559949947798 23.009497869018190385759 578.27462276356175153
24.009497869018204596614 2953.91394002303650268 24.009497869018204596614 579.72801695907537578
25.009497869018204596614 2972.93656772313215697 25.009497869018204596614 581.13040548775745719
26.009497869018190385759 2991.11294803678538301 26.009497869018190385759 582.43186470023522361
27.009497869018204596614 3008.50858480373517523 27.009497869018204596614 583.62824848296679647
28.009497869018190385759 3025.17567756407788693 28.009497869018190385759 584.73909351763632003
29.009497869018190385759 3041.15709071383207629 29.009497869018190385759 585.79393008286388067
30.009497869018190385759 3056.49869207921983616 30.009497869018190385759 586.78834727635023683
31.009497869018218807469 3071.24565692933856553 31.009497869018218807469 587.70237442044276577
32.009497869018190385759 3085.43709297744726427 32.009497869018190385759 588.56034125076087093
33.009497869018190385759 3099.10835785754079552 33.009497869018190385759 589.43703611189073399
34.009497869018218807469 3112.29275497896560410 34.009497869018218807469 590.26031157572288066
35.009497869018190385759 3125.01850799320072838 35.009497869018190385759 591.05668146812763553
36.009497869018190385759 3137.31182525044505383 36.009497869018190385759 591.83492893226105025
37.009497869018190385759 3149.19704271315413280 37.009497869018190385759 592.58542507401625699
38.009497869018218807469 3160.69566715386145006 38.009497869018218807469 593.30820558860898473
39.009497869018190385759 3171.82786956241579901 39.009497869018190385759 593.99109715186614267
40.009497869018190385759 3182.61237450135058680 40.009497869018190385759 594.63045848722231312
41.009497869018218807469 3193.06678084721534105 41.009497869018218807469 595.26629255534373897
42.009497869018190385759 3203.20722677500316422 42.009497869018190385759 595.86797016342984534
43.009497869018190385759 3213.04869004571173718 43.009497869018190385759 596.44580339682727299
44.009497869018218807469 3222.60582170396764923 44.009497869018218807469 596.99485874412346220
46.009497869018190385759 3240.91998100401087868 46.009497869018190385759 598.03531948340457802
48.009497869018218807469 3258.24601988116955908 48.009497869018218807469 599.01035673545686677
50.009497869018190385759 3274.66744862790437764 50.009497869018190385759 599.92404319889772069
52.009497869018190385759 3290.25867412412753765 52.009497869018190385759 600.78404643147337083
54.009497869018218807469 3305.08578092664993164 54.009497869018218807469 601.59611964436953713
56.009497869018190385759 3319.20795625114578797 56.009497869018190385759 602.35739464916593988
58.009497869018218807469 3332.67757208804232505 58.009497869018218807469 603.06073853157147369
60.009497869018190385759 3345.54180751563535523 60.009497869018190385759 603.73677471913015324
62.009497869018190385759 3357.84315414355296525 62.009497869018190385759 604.37647397104569791
64.009497869018218807469 3369.61998828037758358 64.009497869018218807469 604.98032505696346561
66.009497869018190385759 3380.90698686334189915 66.009497869018190385759 605.53518622154967943
68.009497869018190385759 3391.73553113169646167 68.009497869018190385759 606.05548781114214307
70.009497869018190385759 3402.13466374481231469 70.009497869018190385759 606.55923703301334626
72.009497869018190385759 3412.13088280702868360 72.009497869018190385759 607.03474744782204198
74.009497869018218807469 3421.74841654270676372 74.009497869018218807469 607.48933845521514741
76.009497869018190385759 3431.00903533848713778 76.009497869018190385759 607.92146917979926002
78.009497869018190385759 3439.93269109017001028 78.009497869018190385759 608.32373802216068270
80.009497869018218807469 3448.53815995505192404 80.009497869018218807469 608.72259025743790062
82.009497869018190385759 3456.84349541686060547 82.009497869018190385759 609.11557766466376052
84.009497869018218807469 3464.86512006431939881 84.009497869018218807469 609.48155286474809600
86.009497869018190385759 3472.61817345465124163 86.009497869018190385759 609.83466688039663950
88.009497869018190385759 3480.11627136796778359 88.009497869018190385759 610.17602515032717747
91.009497869018218807469 3490.91300682986093307 91.009497869018218807469 610.67493926484507938
94.009497869018218807469 3501.20444257722874681 94.009497869018218807469 611.17546137451711274
97.009497869018218807469 3511.02769816072532194 97.009497869018218807469 611.71847617713046930
99.504748934509137825444 3518.86660128708172124 99.504748934509137825444 611.91825092184205914
nan nan nan nan

