Time Pressure difference Time.1 Pressure.1 difference.1
(hr) (psi) (hr) (psi)
0.000200000000020850166 0.47177927734403902 0.000200000000020850166 0.37664357701816914
0.000399999999999067768 0.94222983248207726 0.000399999999999067768 0.98079370567708912
0.000600000000019917934 1.41155172953318253 0.000600000000019917934 1.43262176418824549
0.000799999999998135536 1.87984490491662326 0.000799999999998135536 1.89120089266312363
0.001007140329434719206 2.36384474027773672 0.001007140329434719206 2.37113753137634076
0.001267914553977789183 2.97178270810834189 0.001267914553977789183 2.97759547130721991
0.001596209851982166583 3.73506013392853076 0.001596209851982166583 3.73735051756998704
0.002009509145224797066 4.69286779225178918 0.002009509145224797066 4.68825159715751649
0.002529822128153114136 5.89403488168663880 0.002529822128153114136 5.87704239610900636
0.003184857364431081805 7.39927498161120667 0.003184857364431081805 7.36122662066599709
0.004009497869034817086 9.28389330508578681 0.004009497869034817086 9.21121638901504447
0.005047658755856332391 11.64102092953696399 0.005047658755856332391 11.51274226417297442
0.006354625877790454069 14.58543021786780258 0.006354625877790454069 14.36947748500828581
0.008000000000009777068 18.25797495010756677 0.008000000000009777068 17.90576010100595994
0.010071403294361402914 22.83065535819548941 0.010071403294361402914 22.26916577128796959
0.012679145539692626699 28.51223704914766444 0.012679145539692626699 27.63257306123147572
0.015962098519750611558 35.55425808785059871 0.015962098519750611558 34.19524221851166601
0.020095091452091651263 44.25713124667293386 0.020095091452091651263 42.18190265458238031
0.025298221281360611101 54.97571111254450926 0.025298221281360611101 51.83890492137611972
0.031848573644296607199 68.12359575328336803 0.031848573644296607199 63.42603318092748310
0.040094978690191851456 84.17488301531662387 0.040094978690191851456 77.20187256212402360
0.050476587558435426217 103.66167807760965047 0.050476587558435426217 93.40103199971213144
0.063546258777947173257 127.16528643397622034 0.063546258777947173257 112.20136183363614180
0.080000000000012505552 155.29853011063471513 0.080000000000012505552 133.68039231644351617
0.100714032943542974863 188.67676619421840201 0.100714032943542974863 157.75965037455713968
0.126791455396883634421 227.87443607238361665 0.126791455396883634421 184.14765113258496854
0.159620985197506115583 273.36971075679446130 0.159620985197506115583 212.27949808209888261
0.200950914520774404082 325.47314766448965884 0.200950914520774404082 241.28767115397641874
0.252982212813464002465 384.25887311757225007 0.252982212813464002465 270.00702532206321393
0.318485736442809752589 449.49566185306218813 0.318485736442809752589 297.04583408329426675
0.400949786901833249431 520.61108297616783602 0.400949786901833249431 320.95352306560431543
0.504765875584169521062 596.70014334732445604 0.504765875584169521062 340.42757047643505075
0.635462587779443310865 676.58502810116442561 0.635462587779443310865 354.56819741286710723
0.800000000000011368684 758.94102897721313639 0.800000000000011368684 363.08766174498850887
1.007140329435344483500 842.45215203262443993 1.007140329435344483500 366.37286085662265123
1.267914553968907398485 925.96474808984976335 1.267914553968907398485 365.43083910986752016
1.596209851975117999245 1008.61608229249941360 1.596209851975117999245 361.65643088928976567
2.009509145207687197399 1089.87885786310084768 2.009509145207687197399 356.53719523791335178
2.529822128134725289783 1169.55168592571953923 2.529822128134725289783 351.45571765232938333
3.184857364427983839050 1247.70996541879230790 3.184857364427983839050 347.42727414413650422
4.009497869018204596614 1324.57502203391618423 4.009497869018204596614 345.04633874686476247
5.009497869018190385759 1397.95607724283991047 5.009497869018190385759 344.51947164594179185
6.009497869018190385759 1457.41907348943254874 6.009497869018190385759 345.38584016252366382
7.009497869018204596614 1507.42790167748898966 7.009497869018204596614 346.96773420045889225
8.009497869018190385759 1550.57637315923511778 8.009497869018190385759 348.86424059479878679
9.009497869018204596614 1588.50628728381434485 9.009497869018204596614 350.90083934383386577
10.009497869018190385759 1622.32456229752597210 10.009497869018190385759 352.95382162252991520
11.009497869018190385759 1652.81452580384825524 11.009497869018190385759 354.86680991445410882
12.009497869018204596614 1680.55148143514702497 12.009497869018204596614 356.70562883146698141
13.009497869018190385759 1705.96916360042428096 13.009497869018190385759 358.45761597023727063
14.009497869018204596614 1729.40882619632429851 14.009497869018204596614 360.11830248534613474
15.009497869018190385759 1751.13907946221229395 15.009497869018190385759 361.70044478323268322
16.009497869018190385759 1771.37749457340964909 16.009497869018190385759 363.19384062266516366
17.009497869018204596614 1790.30248606004579415 17.009497869018204596614 364.57808498501537997
18.009497869018190385759 1808.06056247428091410 18.009497869018190385759 365.86887542217959890
19.009497869018204596614 1824.77328919344631686 19.009497869018204596614 367.02775482512828376
20.009497869018190385759 1840.54492901190769771 20.009497869018190385759 368.12228569660766198
21.009497869018190385759 1855.46427835705412690 21.009497869018190385759 369.15894746639071400
22.009497869018204596614 1869.60734460198546003 22.009497869018204596614 370.15820254679204027
23.009497869018190385759 1883.04723559380317965 23.009497869018190385759 371.14122681322379549
24.009497869018204596614 1895.84533099783584476 24.009497869018204596614 372.07402670367775954
25.009497869018204596614 1908.05420391721963824 25.009497869018204596614 372.97409075372451071
26.009497869018190385759 1919.71994857050162864 26.009497869018190385759 373.80937757032040736
27.009497869018204596614 1930.88460584013751031 27.009497869018204596614 374.57722614500016789
28.009497869018190385759 1941.58167780383769241 28.009497869018190385759 375.29017527459603798
29.009497869018190385759 1951.83867517000771841 29.009497869018190385759 375.96717772549914116
30.009497869018190385759 1961.68503627231280007 30.009497869018190385759 376.60540254572538288
31.009497869018218807469 1971.14975495577868969 31.009497869018218807469 377.19203239639711001
32.009497869018190385759 1980.25793086010185107 32.009497869018190385759 377.74268229427360666
33.009497869018190385759 1989.03225679444403795 33.009497869018190385759 378.30535199045647232
34.009497869018218807469 1997.49410715034173336 34.009497869018218807469 378.83373669492726776
35.009497869018190385759 2005.66159609055148394 35.009497869018190385759 379.34485319084353705
36.009497869018190385759 2013.55154434152859722 36.009497869018190385759 379.84433856895395820
37.009497869018190385759 2021.17957091646530898 37.009497869018190385759 380.32601292886016608
38.009497869018218807469 2028.55947903208311800 38.009497869018218807469 380.78989918003378534
39.009497869018190385759 2035.70421458921146041 39.009497869018190385759 381.22818438673436958
40.009497869018190385759 2042.62579516018922732 40.009497869018190385759 381.63853154886135144
41.009497869018218807469 2049.33551584318456662 41.009497869018218807469 382.04661488297762162
42.009497869018190385759 2055.84373424655586859 42.009497869018190385759 382.43277633087922140
43.009497869018190385759 2062.16006321577879135 43.009497869018190385759 382.80363427050610881
44.009497869018218807469 2068.29390590717957821 44.009497869018218807469 383.15602233521144626
46.009497869018190385759 2080.04807820370433546 46.009497869018190385759 383.82379826731499861
48.009497869018218807469 2091.16806699717972151 48.009497869018218807469 384.44958488784124029
50.009497869018190385759 2101.70746985384130312 50.009497869018190385759 385.03599608697618351
52.009497869018190385759 2111.71404169774541515 52.009497869018190385759 385.58795296392861474
54.009497869018218807469 2121.23019612015514213 54.009497869018218807469 386.10914797514345764
56.009497869018190385759 2130.29391994423849610 56.009497869018190385759 386.59774029460595557
58.009497869018218807469 2138.93882592769296025 58.009497869018218807469 387.04915196150574275
60.009497869018190385759 2147.19519397613657929 60.009497869018190385759 387.48303733385984060
62.009497869018190385759 2155.09029554072094470 62.009497869018190385759 387.89360137350729474
64.009497869018218807469 2162.64876083983517674 64.009497869018218807469 388.28115777667255770
66.009497869018190385759 2169.89284580607727548 66.009497869018190385759 388.63727206083638066
68.009497869018190385759 2176.84269116700988889 68.009497869018190385759 388.97120573641660712
70.009497869018190385759 2183.51693673113413752 70.009497869018190385759 389.29451597147067332
72.009497869018190385759 2189.93258919140362195 72.009497869018190385759 389.59970231679426433
74.009497869018218807469 2196.10519841385030304 74.009497869018218807469 389.89146242097427830
76.009497869018190385759 2202.04873680481432530 76.009497869018190385759 390.16880733799547443
78.009497869018190385759 2207.77600964883231427 78.009497869018190385759 390.42698666281046371
80.009497869018218807469 2213.29906763216877152 80.009497869018218807469 390.68297318217486236
82.009497869018190385759 2218.62949762347670912 82.009497869018190385759 390.93519560850734251
84.009497869018218807469 2223.77783977009448790 84.009497869018218807469 391.17008138664061789
86.009497869018190385759 2228.75381075959558075 86.009497869018190385759 391.39671275487597768
88.009497869018190385759 2233.56614930735122471 88.009497869018190385759 391.61579919252636728
91.009497869018218807469 2240.49557952470149758 91.009497869018218807469 391.93600621743729562
94.009497869018218807469 2247.10070438854882013 94.009497869018218807469 392.25724526635673328
97.009497869018218807469 2253.40534752010398734 97.009497869018218807469 392.60575646170633490
99.504748934509137825444 2258.43641754922282416 99.504748934509137825444 392.73397347300141291
nan nan nan nan

