Time Pressure difference Time.1 Pressure.1 difference.1
(hr) (psi) (hr) (psi)
0.000200000000020850166 0.81979955411719463 0.000200000000020850166 0.65448452555798065
0.000399999999999067768 1.63729021947149689 0.000399999999999067768 1.70430173856212486
0.000600000000019917934 2.45281964269234365 0.000600000000019917934 2.48943253741865878
0.000799999999998135536 3.26656148090265308 0.000799999999998135536 3.28629450890581509
0.001007140329434719206 4.10759640608120780 0.001007140329434719206 4.12026891455712718
0.001267914553977789183 5.16399565651924952 0.001267914553977789183 5.17409635595110196
0.001596209851982166583 6.49032456371031685 0.001596209851982166583 6.49430450852390351
0.002009509145224797066 8.15468399815583922 0.002009509145224797066 8.14666254646913579
0.002529822128153114136 10.24192328912801564 0.002529822128153114136 10.21239585380209292
0.003184857364431081805 12.85754296980679712 0.003184857364431081805 12.79142724400939990
0.004009497869034817086 16.13239910584449177 0.004009497869034817086 16.00611016893987326
0.005047658755856332391 20.22832334058623971 0.005047658755856332391 20.00541657524423655
0.006354625877790454069 25.34475286097802993 0.006354625877790454069 24.96949696778728267
0.008000000000009777068 31.72644590802142517 0.008000000000009777068 31.11441059805085274
0.010071403294361402914 39.67228316644180808 0.010071403294361402914 38.69659615538947861
0.012679145539692626699 49.54503163293792767 0.012679145539692626699 48.01646058351313684
0.015962098519750611558 61.78178298012066705 0.015962098519750611558 59.42025364378700658
0.020095091452091651263 76.90455728955315351 0.020095091452091651263 73.29848225364931125
0.025298221281360611101 95.52997688042506752 0.025298221281360611101 90.07922386865885755
0.031848573644296607199 118.37674121213149192 0.031848573644296607199 110.21389920699900244
0.040094978690191851456 146.26867876077025699 0.040094978690191851456 134.15184545566268071
0.050476587558435426217 180.13041595528295602 0.050476587558435426217 162.30073694316175192
0.063546258777947173257 220.97207343368759780 0.063546258777947173257 194.96961994682897057
0.080000000000012505552 269.85853735774026063 0.080000000000012505552 232.29321693015796768
0.100714032943542974863 327.85909900298167940 0.100714032943542974863 274.13516711212650989
0.126791455396883634421 395.97195141451163636 0.126791455396883634421 319.98896420398131113
0.159620985197506115583 475.02800091013403971 0.159620985197506115583 368.87300106871759908
0.200950914520774404082 565.56689567755518055 0.200950914520774404082 419.27980885382874021
0.252982212813464002465 667.71744325183772162 0.252982212813464002465 469.18474294520490275
0.318485736442809752589 781.07784902988089470 0.318485736442809752589 516.16943352149894508
0.400949786901833249431 904.65341355189741535 0.400949786901833249431 557.71325222843563552
0.504765875584169521062 1036.87155190811472494 0.504765875584169521062 591.55283813422772710
0.635462587779443310865 1175.68560340818544319 0.635462587779443310865 616.12466698327443737
0.800000000000011368684 1318.79365422624869097 0.800000000000011368684 630.92873616602753373
1.007140329435344483500 1463.90893319753558899 1.007140329435344483500 636.63734800261715918
1.267914553968907398485 1609.02677176880570187 1.267914553968907398485 635.00041936873105897
1.596209851975117999245 1752.64801623714265588 1.596209851975117999245 628.44172057698767730
2.009509145207687197399 1893.85639561774769390 2.009509145207687197399 619.54614735883899357
2.529822128134725289783 2032.30196128289640001 2.529822128134725289783 610.71618542755129511
3.184857364427983839050 2168.11573216258420871 3.184857364427983839050 603.71605559905412974
4.009497869018204596614 2301.68230061175245282 4.009497869018204596614 599.57876116752731832
5.009497869018190385759 2429.19480323711786696 5.009497869018190385759 598.66323682138124695
6.009497869018190385759 2532.52222805294013597 6.009497869018190385759 600.16870464861062828
7.009497869018204596614 2619.42137140084787461 7.009497869018204596614 602.91752404199462489
8.009497869018190385759 2694.39943716226298420 8.009497869018190385759 606.21303779413085522
9.009497869018204596614 2760.30934075550112539 9.009497869018204596614 609.75198667669712904
10.009497869018190385759 2819.07454751348268474 10.009497869018190385759 613.31940482647348745
11.009497869018190385759 2872.05622705703899555 11.009497869018190385759 616.64355877740524647
12.009497869018204596614 2920.25407073325686724 12.009497869018204596614 619.83883038143994781
13.009497869018190385759 2964.42176843947027010 13.009497869018190385759 622.88321648349324278
14.009497869018204596614 3005.15230890100701799 14.009497869018204596614 625.76895167788143226
15.009497869018190385759 3042.91244969930176012 15.009497869018190385759 628.51820246663851322
16.009497869018190385759 3078.08025905625891028 16.009497869018190385759 631.11324065945507300
17.009497869018204596614 3110.96576362898804291 17.009497869018204596614 633.51860894403205293
18.009497869018190385759 3141.82354782062566301 18.009497869018190385759 635.76158458044233157
19.009497869018204596614 3170.86485287663981580 19.009497869018204596614 637.77534157112950197
20.009497869018190385759 3198.27085375836759340 20.009497869018190385759 639.67728165942196483
21.009497869018190385759 3224.19584989157146993 21.009497869018190385759 641.47866399529505088
22.009497869018204596614 3248.77191746859080013 22.009497869018204596614 643.21504562268262362
23.009497869018190385759 3272.12609424486527132 23.009497869018190385759 644.92322335326036864
24.009497869018204596614 3294.36503819518293312 24.009497869018204596614 646.54412738825703855
25.009497869018204596614 3315.58010434206971695 25.009497869018204596614 648.10814713719389601
26.009497869018190385759 3335.85138950543159808 26.009497869018190385759 649.55960503856738342
27.009497869018204596614 3355.25194712009761133 27.009497869018204596614 650.89387712168161215
28.009497869018190385759 3373.83999294434488547 28.009497869018190385759 652.13275175356727686
29.009497869018190385759 3391.66333167746006438 29.009497869018190385759 653.30916270258387613
30.009497869018190385759 3408.77311760699467413 30.009497869018190385759 654.41819069125153874
31.009497869018218807469 3425.21973264322832620 31.009497869018218807469 655.43756333669705327
32.009497869018190385759 3441.04679182908557777 32.009497869018190385759 656.39441447966214582
33.009497869018190385759 3456.29372791569767287 33.009497869018190385759 657.37215213834599581
34.009497869018218807469 3470.99768267145691425 34.009497869018218807469 658.29031358784015993
35.009497869018190385759 3485.19013264326440549 35.009497869018190385759 659.17846848479325672
36.009497869018190385759 3498.90030680473364555 36.009497869018190385759 660.04641226682679189
37.009497869018190385759 3512.15534594111113620 37.009497869018190385759 660.88340626898764185
38.009497869018218807469 3524.97923557159492702 38.009497869018218807469 661.68949030051646787
39.009497869018190385759 3537.39447147808414229 39.009497869018190385759 662.45108801004732868
40.009497869018190385759 3549.42193630828614914 40.009497869018190385759 663.16413844846158554
41.009497869018218807469 3561.08125728384311515 41.009497869018218807469 663.87325508714604894
42.009497869018190385759 3572.39043257280036414 42.009497869018190385759 664.54427858904534787
43.009497869018190385759 3583.36616618657308209 43.009497869018190385759 665.18870955103784581
44.009497869018218807469 3594.02479776476411644 44.009497869018218807469 665.80104585361561931
46.009497869018190385759 3614.44974152650729593 46.009497869018190385759 666.96142410183085758
48.009497869018218807469 3633.77267979967700740 48.009497869018218807469 668.04883852869591010
50.009497869018190385759 3652.08674779179818870 50.009497869018190385759 669.06783122860122148
52.009497869018190385759 3669.47492809097639110 52.009497869018190385759 670.02695347781263990
54.009497869018218807469 3686.01092177921282200 54.009497869018218807469 670.93262156948344455
56.009497869018190385759 3701.76073764958346146 56.009497869018190385759 671.78163674432414609
58.009497869018218807469 3716.78278378632512613 58.009497869018218807469 672.56604398944739387
60.009497869018190385759 3731.12967685642070137 60.009497869018190385759 673.31999621218244556
62.009497869018190385759 3744.84880580755543633 62.009497869018190385759 674.03342351347134809
64.009497869018218807469 3757.98296998048863315 64.009497869018218807469 674.70687099573206069
66.009497869018190385759 3770.57084297640540171 66.009497869018190385759 675.32568226064358896
68.009497869018190385759 3782.64742285534975963 68.009497869018190385759 675.90595081310414116
70.009497869018190385759 3794.24509956624888218 70.009497869018190385759 676.46775926732664175
72.009497869018190385759 3805.39342523224513570 72.009497869018190385759 676.99807427231678503
74.009497869018218807469 3816.11942048322180199 74.009497869018218807469 677.50505881954507004
76.009497869018190385759 3826.44736483512633640 76.009497869018190385759 677.98699444119995405
78.009497869018190385759 3836.39950972429096510 78.009497869018190385759 678.43562647217243011
80.009497869018218807469 3845.99679533970174816 80.009497869018218807469 678.88044811761722030
82.009497869018190385759 3855.25935590558401600 82.009497869018190385759 679.31872898872666156
84.009497869018218807469 3864.20550678359722951 84.009497869018218807469 679.72688438136322020
86.009497869018190385759 3872.85213242908548636 86.009497869018190385759 680.12069628356096018
88.009497869018190385759 3881.21441789851360227 88.009497869018190385759 680.50139754053429897
91.009497869018218807469 3893.25552287126856754 91.009497869018218807469 681.05781362079324026
94.009497869018218807469 3904.73309019629914474 94.009497869018218807469 681.61602302446146950
97.009497869018218807469 3915.68851760975758225 97.009497869018218807469 682.22162258398623180
99.504748934509137825444 3924.43088753711845129 99.504748934509137825444 682.44442221452891317
nan nan nan nan

