Time Pressure difference Time.1 Pressure.1 difference.1
(hr) (psi) (hr) (psi)
0.000200000000020850166 0.82893612462913890 0.000200000000020850166 0.66177867933826207
0.000399999999999067768 1.65553762819914274 0.000399999999999067768 1.72329598286220942
0.000600000000019917934 2.48015603182062705 0.000600000000019917934 2.51717697299272691
0.000799999999998135536 3.30296692800491165 0.000799999999998135536 3.32291987830598146
0.001007140329434719206 4.15337508943165723 0.001007140329434719206 4.16618883153800645
0.001267914553977789183 5.22154778642979878 0.001267914553977789183 5.23176105697993865
0.001596209851982166583 6.56265847475470654 0.001596209851982166583 6.56668277558951896
0.002009509145224797066 8.24556700117479835 0.002009509145224797066 8.23745615134366460
0.002529822128153114136 10.35606833085081924 0.002529822128153114136 10.32621181569857072
0.003184857364431081805 13.00083878811264881 0.003184857364431081805 12.93398621025469275
0.004009497869034817086 16.31219281421763156 0.004009497869034817086 16.18449640182572935
0.005047658755856332391 20.45376564732022828 0.005047658755856332391 20.22837461205040199
0.006354625877790454069 25.62721717857758108 0.006354625877790454069 25.24777910218005061
0.008000000000009777068 32.08003345106928350 0.008000000000009777068 31.46117707888019055
0.010071403294361402914 40.11442613992799266 0.010071403294361402914 39.12786521081935831
0.012679145539692626699 50.09720523776297085 0.012679145539692626699 48.55159844209332931
0.015962098519750611558 62.47033375294876834 0.015962098519750611558 60.08248544731451801
0.020095091452091651263 77.76164962003448977 0.020095091452091651263 74.11538529801623554
0.025298221281360611101 96.59464734211165649 0.025298221281360611101 91.08314632312212211
0.031848573644296607199 119.69603620031128344 0.031848573644296607199 111.44222027212258297
0.040094978690191851456 147.89882614310914732 0.040094978690191851456 135.64695214260521539
0.050476587558435426217 182.13794845326484051 0.050476587558435426217 164.10955974597305840
0.063546258777947173257 223.43478144561316867 0.063546258777947173257 197.14253364431138493
0.080000000000012505552 272.86607931410821948 0.080000000000012505552 234.88209776727219946
0.100714032943542974863 331.51305046096825890 0.100714032943542974863 277.19037160881691761
0.126791455396883634421 400.38501267647683335 0.126791455396883634421 323.55520392661935603
0.159620985197506115583 480.32213263253674995 0.159620985197506115583 372.98404768650470942
0.200950914520774404082 571.87007283302932592 0.200950914520774404082 423.95263347124728170
0.252982212813464002465 675.15907635798782849 0.252982212813464002465 474.41375223841390607
0.318485736442809752589 789.78287065027473091 0.318485736442809752589 521.92208171677407336
0.400949786901833249431 914.73567044052026631 0.400949786901833249431 563.92890144273428632
0.504765875584169521062 1048.42736454336227325 0.504765875584169521062 598.14562559063756453
0.635462587779443310865 1188.78848247352493672 0.635462587779443310865 622.99130460922776820
0.800000000000011368684 1333.49145584376515217 0.800000000000011368684 637.96036341813112358
1.007140329435344483500 1480.22402769112522947 1.007140329435344483500 643.73259706850240036
1.267914553968907398485 1626.95918766491217866 1.267914553968907398485 642.07742505571798119
1.596209851975117999245 1772.18107416886368810 1.596209851975117999245 635.44563033012536835
2.009509145207687197399 1914.96320448481469612 2.009509145207687197399 626.45091698492535670
2.529822128134725289783 2054.95172984835926400 2.529822128134725289783 617.52254615673371063
3.184857364427983839050 2192.27912938020153888 3.184857364427983839050 610.44440069691597728
4.009497869018204596614 2327.33428167226838923 4.009497869018204596614 606.26099660100521760
5.009497869018190385759 2456.26789628231381357 5.009497869018190385759 605.33526884269349466
6.009497869018190385759 2560.74689320854531616 6.009497869018190385759 606.85751493344821483
7.009497869018204596614 2648.61451738403866329 7.009497869018204596614 609.63696959869366765
8.009497869018190385759 2724.42820495231853783 8.009497869018190385759 612.96921146762178978
9.009497869018204596614 2791.07266674163111020 9.009497869018204596614 616.54760152314474908
10.009497869018190385759 2850.49280488192061966 10.009497869018190385759 620.15477813254369721
11.009497869018190385759 2904.06495907084581631 11.009497869018190385759 623.51597939194573428
12.009497869018204596614 2952.79996209907858429 12.009497869018204596614 626.74686192571130050
13.009497869018190385759 2997.45990365004126943 13.009497869018190385759 629.82517735615635956
14.009497869018204596614 3038.64438123931586233 14.009497869018204596614 632.74307373305532565
15.009497869018190385759 3076.82535440719675535 15.009497869018190385759 635.52296460152501822
16.009497869018190385759 3112.38510490187127289 16.009497869018190385759 638.14692419264054024
17.009497869018204596614 3145.63711459141859450 17.009497869018204596614 640.57910002648827685
18.009497869018190385759 3176.83880519248714336 18.009497869018190385759 642.84707336502674480
19.009497869018204596614 3206.20377220961154308 19.009497869018204596614 644.88327344274296138
20.009497869018190385759 3233.91520977796471925 20.009497869018190385759 646.80641043171544879
21.009497869018190385759 3260.12913697242993294 21.009497869018190385759 648.62786896383431667
22.009497869018204596614 3284.97910195912209019 22.009497869018204596614 650.38360236214521137
23.009497869018190385759 3308.59355831446373486 23.009497869018190385759 652.11081753450241649
24.009497869018204596614 3331.08035270394384497 24.009497869018204596614 653.74978635610978017
25.009497869018204596614 3352.53185829117091998 25.009497869018204596614 655.33123692291735551
26.009497869018190385759 3373.02906456577602512 26.009497869018190385759 656.79887115348549287
27.009497869018204596614 3392.64583913460774056 27.009497869018204596614 658.14801354350379370
28.009497869018190385759 3411.44104656378522122 28.009497869018190385759 659.40069528881474525
29.009497869018190385759 3429.46302433040091273 29.009497869018190385759 660.59021720078885664
30.009497869018190385759 3446.76349683057787843 30.009497869018190385759 661.71160517717237326
31.009497869018218807469 3463.39340747511823793 31.009497869018218807469 662.74233861197944861
32.009497869018190385759 3479.39685739151718735 32.009497869018190385759 663.70985374944552859
33.009497869018190385759 3494.81371880432243415 33.009497869018190385759 664.69848818041464256
34.009497869018218807469 3509.68154742260730927 34.009497869018218807469 665.62688243228410556
35.009497869018190385759 3524.03217059572170911 35.009497869018190385759 666.52493571208060530
36.009497869018190385759 3537.89514305078409961 36.009497869018190385759 667.40255262643677270
37.009497869018190385759 3551.29790805392985931 37.009497869018190385759 668.24887482922963500
38.009497869018218807469 3564.26471844017396506 38.009497869018218807469 669.06394257336921783
39.009497869018190385759 3576.81832070428390580 39.009497869018190385759 669.83402820063543004
40.009497869018190385759 3588.97983022864173108 40.009497869018190385759 670.55502550310495735
41.009497869018218807469 3600.76909297798965781 41.009497869018218807469 671.27204516410506585
42.009497869018190385759 3612.20430770785696950 42.009497869018190385759 671.95054714474906632
43.009497869018190385759 3623.30236459392108372 43.009497869018190385759 672.60216021472729153
44.009497869018218807469 3634.07978537916369532 44.009497869018218807469 673.22132093405105024
46.009497869018190385759 3654.73236275932549688 46.009497869018190385759 674.39463146264142779
48.009497869018218807469 3674.27065292814359054 48.009497869018218807469 675.49416499659434976
50.009497869018190385759 3692.78882907417892056 50.009497869018190385759 676.52451425141248365
52.009497869018190385759 3710.37079861681286275 52.009497869018190385759 677.49432580633947509
54.009497869018218807469 3727.09108402801894044 54.009497869018218807469 678.41008746336819968
56.009497869018190385759 3743.01642976117955186 56.009497869018190385759 679.26856481340973914
58.009497869018218807469 3758.20589485182654244 58.009497869018218807469 680.06171418588508004
60.009497869018190385759 3772.71268237356434838 60.009497869018190385759 680.82406911829593810
62.009497869018190385759 3786.58470941837913415 62.009497869018190385759 681.54544748373291441
64.009497869018218807469 3799.86525232069652702 64.009497869018218807469 682.22640045971695599
66.009497869018190385759 3812.59341569448088194 66.009497869018190385759 682.85210830407527283
68.009497869018190385759 3824.80458764907689329 68.009497869018190385759 683.43884388194328494
70.009497869018190385759 3836.53151911561917586 70.009497869018190385759 684.00691362592920086
72.009497869018190385759 3847.80409157221947680 72.009497869018190385759 684.54313892986033352
74.009497869018218807469 3858.64962679053269312 74.009497869018218807469 685.05577376079622809
76.009497869018190385759 3869.09267487888155301 76.009497869018190385759 685.54308049880194176
78.009497869018190385759 3879.15573526326443243 78.009497869018190385759 685.99671248148740688
80.009497869018218807469 3888.85998150863497358 80.009497869018218807469 686.44649161234247003
82.009497869018190385759 3898.22577223279949976 82.009497869018190385759 686.88965707269426275
84.009497869018218807469 3907.27162691998910304 84.009497869018218807469 687.30236130962555308
86.009497869018190385759 3916.01461820083795828 86.009497869018190385759 687.70056219958848942
88.009497869018190385759 3924.47010036749361461 88.009497869018190385759 688.08550632771346045
91.009497869018218807469 3936.64540205220509961 91.009497869018218807469 688.64812360035637084
94.009497869018218807469 3948.25088552776742290 94.009497869018218807469 689.21255418278883553
97.009497869018218807469 3959.32840990328077169 97.009497869018218807469 689.82490307884324920
99.504748934509137825444 3968.16821252486715821 99.504748934509137825444 690.05018578530882678
nan nan nan nan

