Time Pressure difference Time.1 Pressure.1 difference.1
(hr) (psi) (hr) (psi)
0.000200000000020850166 0.09053510780017650 0.000200000000020850166 0.07227843291369795
0.000399999999999067768 0.18081523193758173 0.000399999999999067768 0.18821569351901885
0.000600000000019917934 0.27087876499844527 0.000600000000019917934 0.27492213432485701
0.000799999999998135536 0.36074488492238016 0.000799999999998135536 0.36292411496528254
0.001007140329434719206 0.45362513501808677 0.001007140329434719206 0.45502463190144565
0.001267914553977789183 0.57028928729543893 0.001267914553977789183 0.57140476474029400
0.001596209851982166583 0.71676330034896107 0.001596209851982166583 0.71720282819564896
0.002009509145224797066 0.90056793900606524 0.002009509145224797066 0.89968208466579103
0.002529822128153114136 1.13107359525324580 0.002529822128153114136 1.12781271333781974
0.003184857364431081805 1.41993129048524924 0.003184857364431081805 1.41262975643062272
0.004009497869034817086 1.78159220115202599 0.004009497869034817086 1.76764539859619685
0.005047658755856332391 2.23392831218226950 0.005047658755856332391 2.20931145562474374
0.006354625877790454069 2.79896460166829320 0.006354625877790454069 2.75752296807377340
0.008000000000009777068 3.50373110838331803 0.008000000000009777068 3.43614058276346812
0.010071403294361402914 4.38123491909033191 0.010071403294361402914 4.27348427653237461
0.012679145539692626699 5.47153844781178744 0.012679145539692626699 5.30272968956730750
0.015962098519750611558 6.82291220347837246 0.015962098519750611558 6.56211514404537244
0.020095091452091651263 8.49300582022420869 0.020095091452091651263 8.09476653054485773
0.025298221281360611101 10.54991639307632312 0.025298221281360611101 9.94795886695422027
0.031848573644296607199 13.07301397378149233 0.031848573644296607199 12.17154509986108479
0.040094978690191851456 16.15327860681252403 0.040094978690191851456 14.81514807970337699
0.050476587558435426217 19.89282202545678047 0.050476587558435426217 17.92378959149405304
0.063546258777947173257 24.40319757271726786 0.063546258777947173257 21.53159936596186341
0.080000000000012505552 29.80200665855490172 0.080000000000012505552 25.65345556776820501
0.100714032943542974863 36.20733717459473411 0.100714032943542974863 30.27429910356818255
0.126791455396883634421 43.72942523220037714 0.126791455396883634421 35.33819361523197955
0.159620985197506115583 52.46003252199048461 0.159620985197506115583 40.73673466716334701
0.200950914520774404082 62.45875544969960913 0.200950914520774404082 46.30344393623843047
0.252982212813464002465 73.73981896094257138 0.252982212813464002465 51.81472845088889301
0.318485736442809752589 86.25885060208412369 0.318485736442809752589 57.00351393499836661
0.400949786901833249431 99.90600007817306505 0.400949786901833249431 61.59143312350505539
0.504765875584169521062 114.50759793108865381 0.504765875584169521062 65.32853024987926460
0.635462587779443310865 129.83761982927273948 0.635462587779443310865 68.04213647535654275
0.800000000000011368684 145.64185239175392894 0.800000000000011368684 69.67703367993617292
1.007140329435344483500 161.66775452738744434 1.007140329435344483500 70.30746801649976874
1.267914553968907398485 177.69393933414369258 1.267914553968907398485 70.12669271650626968
1.596209851975117999245 193.55484677796204096 1.596209851975117999245 69.40237846290948198
2.009509145207687197399 209.14928786457394949 2.009509145207687197399 68.41998993121929118
2.529822128134725289783 224.43861578504126442 2.529822128134725289783 67.44484722553504241
3.184857364427983839050 239.43729970184568856 3.184857364427983839050 66.67178324244872556
4.009497869018204596614 254.18781232693106631 4.009497869018204596614 66.21487838628215172
5.009497869018190385759 268.26974017512242199 5.009497869018190385759 66.11377184754869063
6.009497869018190385759 279.68077290554253977 6.009497869018190385759 66.28002918611809946
7.009497869018204596614 289.27753746979982452 7.009497869018204596614 66.58359688001765164
8.009497869018190385759 297.55778991964194802 8.009497869018190385759 66.94753912822721986
9.009497869018204596614 304.83659386256294965 9.009497869018204596614 67.33836529661600423
10.009497869018190385759 311.32636846906751771 10.009497869018190385759 67.73233548742210530
11.009497869018190385759 317.17743540954126047 11.009497869018190385759 68.09944063499207800
12.009497869018204596614 322.50019626132223038 12.009497869018204596614 68.45231257505263045
13.009497869018190385759 327.37788526839131009 13.009497869018190385759 68.78852137457018046
14.009497869018204596614 331.87598953415374581 14.009497869018204596614 69.10720945581466879
15.009497869018190385759 336.04605574186820149 15.009497869018190385759 69.41082479114852788
16.009497869018190385759 339.92983610651697290 16.009497869018190385759 69.69740955611003130
17.009497869018204596614 343.56156862772007798 17.009497869018204596614 69.96304799888498849
18.009497869018190385759 346.96936850298703803 18.009497869018190385759 70.21075250179150373
19.009497869018204596614 350.17656429944656793 19.009497869018204596614 70.43314309144186325
20.009497869018190385759 353.20316419418651321 20.009497869018190385759 70.64318510727153466
21.009497869018190385759 356.06620834668819953 21.009497869018190385759 70.84212196097990955
22.009497869018204596614 358.78028267890215375 22.009497869018204596614 71.03388041831044575
23.009497869018190385759 361.35941668965585905 23.009497869018190385759 71.22252415957993321
24.009497869018204596614 363.81538922317622564 24.009497869018204596614 71.40152977236070342
25.009497869018204596614 366.15828913200164152 25.009497869018204596614 71.57425333126052180
26.009497869018190385759 368.39696196159275132 26.009497869018190385759 71.73454604782557453
27.009497869018204596614 370.53947541650524045 27.009497869018204596614 71.88189727078348312
28.009497869018190385759 372.59225859263784741 28.009497869018190385759 72.01871321290661854
29.009497869018190385759 374.56059083368103302 29.009497869018190385759 72.14863093675951689
30.009497869018190385759 376.45012139732767764 30.009497869018190385759 72.27110717866912637
31.009497869018218807469 378.26641424327442564 31.009497869018218807469 72.38368227325227622
32.009497869018190385759 380.01428602773086141 32.009497869018190385759 72.48935276421799756
33.009497869018190385759 381.69809153273661195 33.009497869018190385759 72.59732987140800731
34.009497869018218807469 383.32193253413248613 34.009497869018218807469 72.69872764039976687
35.009497869018190385759 384.88928516526419799 35.009497869018190385759 72.79681161584849747
36.009497869018190385759 386.40337734722993446 36.009497869018190385759 72.89266356340843345
37.009497869018190385759 387.86720639065970317 37.009497869018190385759 72.98509755148900524
38.009497869018218807469 389.28342115228349485 38.009497869018218807469 73.07411797645013962
39.009497869018190385759 390.65450596870437039 39.009497869018190385759 73.15822552491910358
40.009497869018190385759 391.98276702897993573 40.009497869018190385759 73.23697172328500926
41.009497869018218807469 393.27037187835759369 41.009497869018218807469 73.31528348986718413
42.009497869018190385759 394.51930815646937845 42.009497869018190385759 73.38938841560886317
43.009497869018190385759 395.73142058190120451 43.009497869018190385759 73.46055657655838900
44.009497869018218807469 396.90851363359604420 44.009497869018218807469 73.52818034249655454
46.009497869018190385759 399.16415585247142417 46.009497869018190385759 73.65632748439671218
48.009497869018218807469 401.29809736389540831 48.009497869018218807469 73.77641681826530373
50.009497869018190385759 403.32062361631813019 50.009497869018190385759 73.88894995331057203
52.009497869018190385759 405.24089884692648411 52.009497869018190385759 73.99487125540180443
54.009497869018218807469 407.06706228362133970 54.009497869018218807469 74.09488931213140006
56.009497869018190385759 408.80640365127106861 56.009497869018190385759 74.18865086639445394
58.009497869018218807469 410.46537328541990064 58.009497869018218807469 74.27527740106360454
60.009497869018190385759 412.04978194260371538 60.009497869018190385759 74.35854061512451096
62.009497869018190385759 413.56486305270874482 62.009497869018190385759 74.43732843259206788
64.009497869018218807469 415.01534318933460099 64.009497869018218807469 74.51170105221358142
66.009497869018190385759 416.40549329729299188 66.009497869018190385759 74.58003988491402936
68.009497869018190385759 417.73917841057055966 68.009497869018190385759 74.64412222758699045
70.009497869018190385759 419.01997553467185753 70.009497869018190385759 74.70616591706038889
72.009497869018190385759 420.25114827792776850 72.009497869018190385759 74.76473160656792061
74.009497869018218807469 421.43568068153115291 74.009497869018218807469 74.82072078148976857
76.009497869018190385759 422.57625406993798833 76.009497869018190385759 74.87394366169279181
78.009497869018190385759 423.67532579528642600 78.009497869018190385759 74.92348863775764300
80.009497869018218807469 424.73520840124371034 80.009497869018218807469 74.97261281136806588
82.009497869018190385759 425.75812542422352180 82.009497869018190385759 75.02101465022411730
84.009497869018218807469 426.74609953334555712 84.009497869018218807469 75.06608956187294268
86.009497869018190385759 427.70099537464068362 86.009497869018190385759 75.10958044063642092
88.009497869018190385759 428.62448991989663227 88.009497869018190385759 75.15162343659396527
91.009497869018218807469 429.95425733836708559 91.009497869018218807469 75.21307161567018795
94.009497869018218807469 431.22179010273208632 94.009497869018218807469 75.27471784160719892
97.009497869018218807469 432.43165999945659905 97.009497869018218807469 75.34159763085561679
99.504748934509137825444 433.39712942405861895 99.504748934509137825444 75.36620265591048451
nan nan nan nan

