Time Pressure difference Time.1 Pressure.1 difference.1
(hr) (psi) (hr) (psi)
0.000200000000020850166 0.13787915499843392 0.000200000000020850166 0.11007541159333817
0.000399999999999067768 0.27536998625356485 0.000399999999999067768 0.28664041398309292
0.000600000000019917934 0.41253096320864135 0.000600000000019917934 0.41868875502684644
0.000799999999998135536 0.54939129263408348 0.000799999999998135536 0.55271012003887066
0.001007140329434719206 0.69084194874314142 0.001007140329434719206 0.69297329262055019
0.001267914553977789183 0.86851396046828311 0.001267914553977789183 0.87021276098063116
0.001596209851982166583 1.09158447576080286 0.001596209851982166583 1.09225384844474971
0.002009509145224797066 1.37150713646795253 0.002009509145224797066 1.37015803719744311
0.002529822128153114136 1.72255244781686967 0.002529822128153114136 1.71758633407411110
0.003184857364431081805 2.16246416716102141 0.003184857364431081805 2.15134439970168234
0.004009497869034817086 2.71325050817647995 0.004009497869034817086 2.69201042355017117
0.005047658755856332391 3.40212935616749279 0.005047658755856332391 3.36463946452942597
0.006354625877790454069 4.26264333832051889 0.006354625877790454069 4.19953039174537857
0.008000000000009777068 5.33595746781312741 0.008000000000009777068 5.23302143797005215
0.010071403294361402914 6.67233941806417441 0.010071403294361402914 6.50824210921444113
0.012679145539692626699 8.33280167281428064 0.012679145539692626699 8.07571677493736750
0.015962098519750611558 10.39085711722394301 0.015962098519750611558 9.99367994414249594
0.020095091452091651263 12.93430244180934352 0.020095091452091651263 12.32780957862794935
0.025298221281360611101 16.06684514908871364 0.025298221281360611101 15.15010249462752867
0.031848573644296607199 19.90936073071310020 0.031848573644296607199 18.53648152822880490
0.040094978690191851456 24.60040595165943600 0.040094978690191851456 22.56251909386018895
0.050476587558435426217 30.29549042409014348 0.050476587558435426217 27.29678047878910618
0.063546258777947173257 37.16450272542263633 0.063546258777947173257 32.79124307109788816
0.080000000000012505552 45.38654225064324521 0.080000000000012505552 39.06856536008736214
0.100714032943542974863 55.14144927507088312 0.100714032943542974863 46.10581331369098734
0.126791455396883634421 66.59710631692901472 0.126791455396883634421 53.81779945072025839
0.159620985197506115583 79.89326053807725714 0.159620985197506115583 62.03943077751480928
0.200950914520774404082 95.12067343715719403 0.200950914520774404082 70.51717149922549766
0.252982212813464002465 112.30100869281160669 0.252982212813464002465 78.91050387933537991
0.318485736442809752589 131.36668990776112764 0.318485736442809752589 86.81269094687826282
0.400949786901833249431 152.15042213740116495 0.400949786901833249431 93.79979723396182578
0.504765875584169521062 174.38771795009830612 0.504765875584169521062 99.49115616036657173
0.635462587779443310865 197.73435680421354732 0.635462587779443310865 103.62380417347877426
0.800000000000011368684 221.80318804615734507 0.800000000000011368684 106.11364762265509398
1.007140329435344483500 246.20960781235146442 1.007140329435344483500 107.07375863063266763
1.267914553968907398485 270.61645806851242924 1.267914553968907398485 106.79844945816550705
1.596209851975117999245 294.77160151506149077 1.596209851975117999245 105.69536536553187034
2.009509145207687197399 318.52093381210346479 2.009509145207687197399 104.19925072093947449
2.529822128134725289783 341.80559835153070480 2.529822128134725289783 102.71417100402584310
3.184857364427983839050 364.64763073859069209 3.184857364427983839050 101.53684420409622646
4.009497869018204596614 387.11171418596848071 4.009497869018204596614 100.84100745066821503
5.009497869018190385759 408.55758595477362860 5.009497869018190385759 100.68702868525762995
6.009497869018190385759 425.93585598458770392 6.009497869018190385759 100.94022793482204747
7.009497869018204596614 440.55111210997034732 7.009497869018204596614 101.40254203745806194
8.009497869018190385759 453.16140483174831388 8.009497869018190385759 101.95680270904330200
9.009497869018204596614 464.24655579069218447 9.009497869018204596614 102.55200586457115719
10.009497869018190385759 474.13006574188261766 10.009497869018190385759 103.15199716433090771
11.009497869018190385759 483.04086493563170279 11.009497869018190385759 103.71107472852003184
12.009497869018204596614 491.14708788421540930 12.009497869018204596614 104.24847603173152777
13.009497869018190385759 498.57549499589873676 13.009497869018190385759 104.76050044200596290
14.009497869018204596614 505.42581892357361539 14.009497869018204596614 105.24584192353425749
15.009497869018190385759 511.77656195550571283 15.009497869018190385759 105.70822858101519159
16.009497869018190385759 517.69131003377822253 16.009497869018190385759 106.14467877352538494
17.009497869018204596614 523.22220543304149487 17.009497869018204596614 106.54922906252211590
18.009497869018190385759 528.41206579353990946 18.009497869018190385759 106.92646711282009164
19.009497869018204596614 533.29641902484513594 19.009497869018204596614 107.26515369889311557
20.009497869018190385759 537.90573629573361814 20.009497869018190385759 107.58503420006489648
21.009497869018190385759 542.26596867477292108 21.009497869018190385759 107.88800225250150788
22.009497869018204596614 546.39932958438305377 22.009497869018204596614 108.18003806825261393
23.009497869018190385759 550.32718505030163669 23.009497869018190385759 108.46733037147033940
24.009497869018204596614 554.06747349584634321 24.009497869018204596614 108.73994442396217153
25.009497869018204596614 557.63555959552547847 25.009497869018204596614 109.00299131182794099
26.009497869018190385759 561.04491454701280873 26.009497869018190385759 109.24710682512885285
27.009497869018204596614 564.30782494623736056 27.009497869018204596614 109.47151327477116922
28.009497869018190385759 567.43408189337515068 28.009497869018190385759 109.67987516827982120
29.009497869018190385759 570.43172548982613534 29.009497869018190385759 109.87773151836769614
30.009497869018190385759 573.30935919226044462 30.009497869018190385759 110.06425496934930663
31.009497869018218807469 576.07545655397757400 31.009497869018218807469 110.23569960880621466
32.009497869018190385759 578.73735303305795696 32.009497869018190385759 110.39662898036870331
33.009497869018190385759 581.30168068288332961 33.009497869018190385759 110.56107118030945458
34.009497869018218807469 583.77468624464211189 34.009497869018218807469 110.71549347070056513
35.009497869018190385759 586.16166364618220541 35.009497869018190385759 110.86486906633807337
36.009497869018190385759 588.46752880403823838 36.009497869018190385759 111.01084542684219514
37.009497869018190385759 590.69684642981201250 37.009497869018190385759 111.15161645456123551
38.009497869018218807469 592.85365056219325197 38.009497869018218807469 111.28718884486902141
39.009497869018190385759 594.94172468628369188 39.009497869018190385759 111.41527923978505044
40.009497869018190385759 596.96458097991433078 40.009497869018190385759 111.53520464280103397
41.009497869018218807469 598.92552047529682113 41.009497869018218807469 111.65446843410965982
42.009497869018190385759 600.82757021994416391 42.009497869018190385759 111.76732547698230746
43.009497869018190385759 602.67353960179457317 43.009497869018190385759 111.87571001567607709
44.009497869018218807469 604.46617672639399643 44.009497869018218807469 111.97869666838924729
46.009497869018190385759 607.90137496798399752 46.009497869018190385759 112.17385653587021466
48.009497869018218807469 611.15123084776746509 48.009497869018218807469 112.35674487919303033
50.009497869018190385759 614.23140844320016640 50.009497869018190385759 112.52812561696839566
52.009497869018190385759 617.15586429898894494 52.009497869018190385759 112.68943695776788161
54.009497869018218807469 619.93699393652423169 54.009497869018218807469 112.84175803498909829
56.009497869018190385759 622.58589913863295351 56.009497869018190385759 112.98455086074751819
58.009497869018218807469 625.11240335210743524 58.009497869018218807469 113.11647750987668815
60.009497869018190385759 627.52535598598365141 60.009497869018190385759 113.24328203771256085
62.009497869018190385759 629.83272721788671333 62.009497869018190385759 113.36327082394755905
64.009497869018218807469 632.04171531586735000 64.009497869018218807469 113.47653554740783477
66.009497869018190385759 634.15882465459299056 66.009497869018190385759 113.58061120087825202
68.009497869018190385759 636.18994143261193130 68.009497869018190385759 113.67820449338937294
70.009497869018190385759 638.14051319959196462 70.009497869018190385759 113.77269304800023519
72.009497869018190385759 640.01551022143132741 72.009497869018190385759 113.86188483202087696
74.009497869018218807469 641.81947700123089362 74.009497869018218807469 113.94715274979176911
76.009497869018190385759 643.55649702394225642 76.009497869018190385759 114.02820777835782451
78.009497869018190385759 645.23031267906003450 78.009497869018190385759 114.10366159511713136
80.009497869018218807469 646.84444582207754593 80.009497869018218807469 114.17847455676238155
82.009497869018190385759 648.40228275615697839 82.009497869018190385759 114.25218744896517364
84.009497869018218807469 649.90690387647111947 84.009497869018218807469 114.32083364468722664
86.009497869018190385759 651.36114891917748082 86.009497869018190385759 114.38706746005179582
88.009497869018190385759 652.76757180461322605 88.009497869018190385759 114.45109624288622285
91.009497869018218807469 654.79272218503604108 91.009497869018218807469 114.54467787340595919
94.009497869018218807469 656.72309318397742572 94.009497869018218807469 114.63856111657608494
97.009497869018218807469 658.56564733862194316 97.009497869018218807469 114.74041474056910772
99.504748934509137825444 660.03599526966729627 99.504748934509137825444 114.77788661358844990
nan nan nan nan

