Time Pressure difference Time.1 Pressure.1 difference.1
(hr) (psi) (hr) (psi)
0.000200000000020850166 0.85551523884570457 0.000200000000020850166 0.68299803578998974
0.000399999999999067768 1.70862099904320330 0.000399999999999067768 1.77855196628063705
0.000600000000019917934 2.55968007292108801 0.000600000000019917934 2.59788805829910707
0.000799999999998135536 3.40887368321148188 0.000799999999998135536 3.42946640747010090
0.001007140329434719206 4.28654944099660007 0.001007140329434719206 4.29977404457329282
0.001267914553977789183 5.38897216435139548 0.001267914553977789183 5.39951291451837445
0.001596209851982166583 6.77308439779293447 0.001596209851982166583 6.77723773432585652
0.002009509145224797066 8.50995391904814014 0.002009509145224797066 8.50158300188775051
0.002529822128153114136 10.68812663404443342 0.002529822128153114136 10.65731279576105095
0.003184857364431081805 13.41769935045694240 0.003184857364431081805 13.34870320296826840
0.004009497869034817086 16.83522905675767589 0.004009497869034817086 16.70343817022094157
0.005047658755856332391 21.10959781236456578 0.005047658755856332391 20.87697981003197967
0.006354625877790454069 26.44893155704900423 0.006354625877790454069 26.05732712950446484
0.008000000000009777068 33.10865175811759542 0.008000000000009777068 32.46995229583827580
0.010071403294361402914 41.40066024461506089 0.010071403294361402914 40.38246609934262210
0.012679145539692626699 51.70352845179945689 0.012679145539692626699 50.10836312159932504
0.015962098519750611558 64.47339054663048330 0.015962098519750611558 62.00897796666728112
0.020095091452091651263 80.25500912688930555 0.020095091452091651263 76.49183051799271027
0.025298221281360611101 99.69187050338177869 0.025298221281360611101 94.00364800883345140
0.031848573644296607199 123.53398525683428488 0.031848573644296607199 115.01551791611851172
0.040094978690191851456 152.64107307354950649 0.040094978690191851456 139.99635341371080699
0.050476587558435426217 187.97804299284848639 0.050476587558435426217 169.37158971778782757
0.063546258777947173257 230.59902293485126279 0.063546258777947173257 203.46373712789650767
0.080000000000012505552 281.61529227808762244 0.080000000000012505552 242.41338747524085306
0.100714032943542974863 342.14272742965664520 0.100714032943542974863 286.07823923555253032
0.126791455396883634421 413.22300907492103761 0.126791455396883634421 333.92971948338475841
0.159620985197506115583 495.72324309770829132 0.159620985197506115583 384.94345602915819882
0.200950914520774404082 590.20658819440916432 0.200950914520774404082 437.54630508555578672
0.252982212813464002465 696.80746357587918283 0.252982212813464002465 489.62541563683998902
0.318485736442809752589 815.10656990960217172 0.318485736442809752589 538.65705828484703943
0.400949786901833249431 944.06587229833257879 0.400949786901833249431 582.01079006614861555
0.504765875584169521062 1082.04427402771852940 0.504765875584169521062 617.32464364564805237
0.635462587779443310865 1226.90594884542133514 0.635462587779443310865 642.96697770291041252
0.800000000000011368684 1376.24869691290405171 0.800000000000011368684 658.41600633334178383
1.007140329435344483500 1527.68612076338581574 1.007140329435344483500 664.37332162380516820
1.267914553968907398485 1679.12621572631223898 1.267914553968907398485 662.66507796331609370
1.596209851975117999245 1829.00451542477912881 1.596209851975117999245 655.82064052107125462
2.009509145207687197399 1976.36483027991903327 2.009509145207687197399 646.53751953354014859
2.529822128134725289783 2120.84196567516028153 2.529822128134725289783 637.32286827799168805
3.184857364427983839050 2262.57264855872517728 3.184857364427983839050 630.01776825433205431
4.009497869018204596614 2401.95822657558710489 4.009497869018204596614 625.70022695294130699
5.009497869018190385759 2535.02598514106512084 5.009497869018190385759 624.74481654105636608
6.009497869018190385759 2642.85501002485125355 6.009497869018190385759 626.31587212570298107
7.009497869018204596614 2733.54003297150302387 7.009497869018204596614 629.18444758181817633
8.009497869018190385759 2811.78462034157109883 8.009497869018190385759 632.62353488141320668
9.009497869018204596614 2880.56597870128280192 9.009497869018204596614 636.31666289462827990
10.009497869018190385759 2941.89137177192196759 10.009497869018190385759 640.03950047747503049
11.009497869018190385759 2997.18127038373859250 11.009497869018190385759 643.50847572515442607
12.009497869018204596614 3047.47891879965027329 12.009497869018204596614 646.84295369086441951
13.009497869018190385759 3093.57084244443194621 13.009497869018190385759 650.01997262208521988
14.009497869018204596614 3136.07586440530667460 14.009497869018204596614 653.03142880265238546
15.009497869018190385759 3175.48107719380050185 15.009497869018190385759 655.90045444846771261
16.009497869018190385759 3212.18102008910545919 16.009497869018190385759 658.60854901645257087
17.009497869018204596614 3246.49922648212532295 17.009497869018204596614 661.11871044817928578
18.009497869018190385759 3278.70137209244603582 18.009497869018190385759 663.45940437472711437
19.009497869018204596614 3309.00790117825636116 19.009497869018204596614 665.56089343289102089
20.009497869018190385759 3337.60788183497334103 20.009497869018190385759 667.54569413293290836
21.009497869018190385759 3364.66233575310889137 21.009497869018190385759 669.42555614503942252
22.009497869018204596614 3390.30909320430464504 22.009497869018204596614 671.23758560421799757
23.009497869018190385759 3414.68072651693182706 23.009497869018190385759 673.02018242538827053
24.009497869018204596614 3437.88854036579368767 24.009497869018204596614 674.71170335350018377
25.009497869018204596614 3460.02786977946470870 25.009497869018204596614 676.34386175411316344
26.009497869018190385759 3481.18230110495915142 26.009497869018190385759 677.85855439688384649
27.009497869018204596614 3501.42807044954497542 27.009497869018204596614 679.25095586153202021
28.009497869018190385759 3520.82592982033929729 28.009497869018190385759 680.54380375498919875
29.009497869018190385759 3539.42576659349970214 29.009497869018190385759 681.77146665011287041
30.009497869018190385759 3557.28096366282079543 30.009497869018190385759 682.92881095439634009
31.009497869018218807469 3574.44409789516248566 31.009497869018218807469 683.99259395825538377
32.009497869018190385759 3590.96068448222740699 32.009497869018190385759 684.99113162517926412
33.009497869018190385759 3606.87187411668583081 33.009497869018190385759 686.01146575734185262
34.009497869018218807469 3622.21642669868333542 34.009497869018218807469 686.96962816157576981
35.009497869018190385759 3637.02719009378097326 35.009497869018190385759 687.89647673691695218
36.009497869018190385759 3651.33466667565926400 36.009497869018190385759 688.80223367257508471
37.009497869018190385759 3665.16717965485759123 37.009497869018190385759 689.67569245902461716
38.009497869018218807469 3678.54975951240430732 38.009497869018218807469 690.51689463984996564
39.009497869018190385759 3691.50588208959152325 39.009497869018190385759 691.31167239143746883
40.009497869018190385759 3704.05733981513139952 40.009497869018190385759 692.05578784388592339
41.009497869018218807469 3716.22461499732389711 41.009497869018218807469 692.79579811525866262
42.009497869018190385759 3728.02648991893056518 42.009497869018190385759 693.49605567043238352
43.009497869018190385759 3739.48039632438758417 43.009497869018190385759 694.16856214545998682
44.009497869018218807469 3750.60338571196280100 44.009497869018218807469 694.80757571349954560
46.009497869018190385759 3771.91816998206968492 46.009497869018190385759 696.01850742136343797
48.009497869018218807469 3792.08293839277348525 48.009497869018218807469 697.15329653957121536
50.009497869018190385759 3811.19488371383204139 50.009497869018190385759 698.21668304504487423
52.009497869018190385759 3829.34060378288268112 52.009497869018190385759 699.21759076205376005
54.009497869018218807469 3846.59701056999938373 54.009497869018218807469 700.16271551830584485
56.009497869018190385759 3863.03298863127747609 56.009497869018190385759 701.04871919620450171
58.009497869018218807469 3878.70949067873880267 58.009497869018218807469 701.86730021188543560
60.009497869018190385759 3893.68142569616384208 60.009497869018190385759 702.65409939062612921
62.009497869018190385759 3907.99824719532171002 62.009497869018190385759 703.39860812449387595
64.009497869018218807469 3921.70461912857444986 64.009497869018218807469 704.10139526403656873
66.009497869018190385759 3934.84089996524562594 66.009497869018190385759 704.74716588496733038
68.009497869018190385759 3947.44361250355632365 68.009497869018190385759 705.35271462765683737
70.009497869018190385759 3959.54655780469738602 70.009497869018190385759 705.93899903277258545
72.009497869018190385759 3971.18057547032731236 72.009497869018190385759 706.49241793362341468
74.009497869018218807469 3982.37386332089090502 74.009497869018218807469 707.02148995352729344
76.009497869018190385759 3993.15175864253342297 76.009497869018190385759 707.52442175728049278
78.009497869018190385759 4003.53748228573431334 78.009497869018190385759 707.99259905404005622
80.009497869018218807469 4013.55288672734877764 80.009497869018218807469 708.45679996063392991
82.009497869018190385759 4023.21898336651611316 82.009497869018190385759 708.91417513514522852
84.009497869018218807469 4032.55488549858591796 84.009497869018218807469 709.34011237366178193
86.009497869018190385759 4041.57821317320986054 86.009497869018190385759 709.75108122803226252
88.009497869018190385759 4050.30481300452720461 88.009497869018190385759 710.14836825405313903
91.009497869018218807469 4062.87050512401901869 91.009497869018218807469 710.72902535908519894
94.009497869018218807469 4074.84810831022150523 94.009497869018218807469 711.31155391610468541
97.009497869018218807469 4086.28082384807566996 97.009497869018218807469 711.94353724569987207
99.504748934509137825444 4095.40406703468215710 99.504748934509137825444 712.17604344575966024
nan nan nan nan

