Time Pressure difference Time.1 Pressure.1 difference.1
(hr) (psi) (hr) (psi)
0.000200000000020850166 0.78740625866575531 0.000200000000020850166 0.62862343488243722
0.000399999999999067768 1.57259486125529779 0.000399999999999067768 1.63695850877091642
0.000600000000019917934 2.35589971760115668 0.000600000000019917934 2.39106590220150839
0.000799999999998135536 3.13748762299464579 0.000799999999998135536 3.15644092648704477
0.001007140329434719206 3.94529016511143427 0.001007140329434719206 3.95746193617037134
0.001267914553977789183 4.95994719592730338 0.001267914553977789183 4.96964877957613460
0.001596209851982166583 6.23386797000747706 0.001596209851982166583 6.23769065256399280
0.002009509145224797066 7.83246244199770381 0.002009509145224797066 7.82475794736853025
0.002529822128153114136 9.83722723211079852 0.002529822128153114136 9.80886653435094757
0.003184857364431081805 12.34949415944968898 0.003184857364431081805 12.28599090913972702
0.004009497869034817086 15.49494868524881497 0.004009497869034817086 15.37364988870820603
0.005047658755856332391 19.42902788943845138 0.005047658755856332391 19.21492899020419287
0.006354625877790454069 24.34328846221598042 0.006354625877790454069 23.98286030948565895
0.008000000000009777068 30.47281734630629657 0.008000000000009777068 29.88496580238319211
0.010071403294361402914 38.10468535135444768 0.010071403294361402914 37.16755132250175109
0.012679145539692626699 47.58732521583095831 0.012679145539692626699 46.11915363036520432
0.015962098519750611558 59.34055751282106428 0.015962098519750611558 57.07234088582580966
0.020095091452091651263 73.86577539057384456 0.020095091452091651263 70.40218964180299110
0.025298221281360611101 91.75523615262711985 0.025298221281360611101 86.51986243919817809
0.031848573644296607199 113.69924079949409190 0.031848573644296607199 105.85894270337897183
0.040094978690191851456 140.48906531429605593 0.040094978690191851456 128.85101265650277469
0.050476587558435426217 173.01280073516539915 0.050476587558435426217 155.88763791501250466
0.063546258777947173257 212.24065411867863418 0.063546258777947173257 187.26565320120963065
0.080000000000012505552 259.19543405789033841 0.080000000000012505552 223.11445759857116400
0.100714032943542974863 314.90418019739274769 0.100714032943542974863 263.30307844204247658
0.126791455396883634421 380.32564330390783880 0.126791455396883634421 307.34502336917353205
0.159620985197506115583 456.25789753070625920 0.159620985197506115583 354.29747215110870684
0.200950914520774404082 543.21926758087352027 0.200950914520774404082 402.71252157389022841
0.252982212813464002465 641.33347133003258023 0.252982212813464002465 450.64552817837312659
0.318485736442809752589 750.21459055757554779 0.318485736442809752589 495.77368082916018466
0.400949786901833249431 868.90723003768869148 0.400949786901833249431 535.67595046864948927
0.504765875584169521062 995.90094347405545250 0.504765875584169521062 568.17840987968372701
0.635462587779443310865 1129.22994126743628840 0.635462587779443310865 591.77931540034865066
0.800000000000011368684 1266.68326667323572110 0.800000000000011368684 605.99842136311463037
1.007140329435344483500 1406.06450726571824816 1.007140329435344483500 611.48146495084199614
1.267914553968907398485 1545.44820631897459862 1.267914553968907398485 609.90921738759573145
1.596209851975117999245 1683.39444720649566989 1.596209851975117999245 603.60967690677239261
2.009509145207687197399 1819.02316417996439668 2.009509145207687197399 595.06560050271457385
2.529822128134725289783 1951.99823636898236145 2.529822128134725289783 586.58454284226809250
3.184857364427983839050 2082.44550566375846756 3.184857364427983839050 579.86101388845315796
4.009497869018204596614 2210.73436776083190125 4.009497869018204596614 575.88719917610524135
5.009497869018190385759 2333.20838244051446964 5.009497869018190385759 575.00785056400138728
6.009497869018190385759 2432.45296068306697634 6.009497869018190385759 576.45383182055002180
7.009497869018204596614 2515.91839927862611148 7.009497869018204596614 579.09403525006166547
8.009497869018190385759 2587.93380590661081442 8.009497869018190385759 582.25933113357257298
9.009497869018204596614 2651.23936680467568294 9.009497869018204596614 585.65844313020159007
10.009497869018190385759 2707.68254411629322931 10.009497869018190385759 589.08489946858856001
11.009497869018190385759 2758.57072264445105247 11.009497869018190385759 592.27770387130715335
12.009497869018204596614 2804.86409225443503601 12.009497869018204596614 595.34671854265957336
13.009497869018190385759 2847.28656178380697384 13.009497869018190385759 598.27080975314243005
14.009497869018204596614 2886.40768879245706557 14.009497869018204596614 601.04251893681009733
15.009497869018190385759 2922.67578755312888461 15.009497869018190385759 603.68313671567716483
16.009497869018190385759 2956.45398742181760099 16.009497869018190385759 606.17563540543415002
17.009497869018204596614 2988.04006476218910393 17.009497869018204596614 608.48595874259615357
18.009497869018190385759 3017.67854441129975385 18.009497869018190385759 610.64030616237016602
19.009497869018204596614 3045.57232069610381586 19.009497869018204596614 612.57449220813668944
20.009497869018190385759 3071.89540968888832140 20.009497869018190385759 614.40127964856333165
21.009497869018190385759 3096.79601387761840670 21.009497869018190385759 616.13148274320133169
22.009497869018204596614 3120.40099063852494510 22.009497869018204596614 617.79925354640647583
23.009497869018190385759 3142.83235799810836397 23.009497869018190385759 619.43993489249328377
24.009497869018204596614 3164.19255948230329523 24.009497869018204596614 620.99679104768745219
25.009497869018204596614 3184.56934034071127826 25.009497869018204596614 622.49901062417393405
26.009497869018190385759 3204.03963247330239028 26.009497869018190385759 623.89311608567561507
27.009497869018204596614 3222.67360270501831110 27.009497869018204596614 625.17466617158481768
28.009497869018190385759 3240.52716647541910788 28.009497869018190385759 626.36458831041727535
29.009497869018190385759 3257.64623954430862796 29.009497869018190385759 627.49451493622041198
30.009497869018190385759 3274.07995490519851955 30.009497869018190385759 628.55972115025986113
31.009497869018218807469 3289.87670369380020929 31.009497869018218807469 629.53881463342338520
32.009497869018190385759 3305.07837756228263970 32.009497869018190385759 630.45785706861158815
33.009497869018190385759 3319.72285112875533741 33.009497869018190385759 631.39696071646608289
34.009497869018218807469 3333.84579855373931423 34.009497869018218807469 632.27884223026592281
35.009497869018190385759 3347.47745263000479099 35.009497869018190385759 633.13190286077406199
36.009497869018190385759 3360.64588738691736580 36.009497869018190385759 633.96555099184570281
37.009497869018190385759 3373.37717117748070450 37.009497869018190385759 634.76947228267499668
38.009497869018218807469 3385.69434176481445320 38.009497869018218807469 635.54370496949297831
39.009497869018190385759 3397.61900603974027035 39.009497869018190385759 636.27520915250738653
40.009497869018190385759 3409.17122149975193679 40.009497869018190385759 636.96008434563486844
41.009497869018218807469 3420.36983982277934047 41.009497869018218807469 637.64118117792747853
42.009497869018190385759 3431.23214800305413519 42.009497869018190385759 638.28569007336886898
43.009497869018190385759 3441.77419001506723362 43.009497869018190385759 638.90465719795736277
44.009497869018218807469 3452.01165985916577483 44.009497869018218807469 639.49279784116276915
46.009497869018190385759 3471.62953897378838519 46.009497869018190385759 640.60732527713844320
48.009497869018218807469 3490.18895688965949375 48.009497869018218807469 641.65177196069271304
50.009497869018190385759 3507.77936869972108980 50.009497869018190385759 642.63050051136167440
52.009497869018190385759 3524.48047804482803258 52.009497869018190385759 643.55172431303594749
54.009497869018218807469 3540.36307380617427043 54.009497869018218807469 644.42160612752809357
56.009497869018190385759 3555.49055652665128946 56.009497869018190385759 645.23707359029310737
58.009497869018218807469 3569.91902637227622108 58.009497869018218807469 645.99048602025959553
60.009497869018190385759 3583.69902093200289528 60.009497869018190385759 646.71464681778013528
62.009497869018190385759 3596.87605664190732568 62.009497869018190385759 647.39988398254388358
64.009497869018218807469 3609.49124168338721574 64.009497869018218807469 648.04672107796761793
66.009497869018190385759 3621.58172152141105471 66.009497869018190385759 648.64108083393114157
68.009497869018190385759 3633.18111131395289704 68.009497869018190385759 649.19842084176571007
70.009497869018190385759 3644.32052116393469987 70.009497869018190385759 649.73803017773627744
72.009497869018190385759 3655.02833548142734799 72.009497869018190385759 650.24739048648063999
74.009497869018218807469 3665.33050721184872600 74.009497869018218807469 650.73434220965418717
76.009497869018190385759 3675.25035649817618832 76.009497869018190385759 651.19723478242906367
78.009497869018190385759 3684.80925554065652250 78.009497869018190385759 651.62813971187381412
80.009497869018218807469 3694.02731710439456947 80.009497869018218807469 652.05538481813698581
82.009497869018190385759 3702.92387983636626814 82.009497869018190385759 652.47634760011430899
84.009497869018218807469 3711.51653539093194922 84.009497869018218807469 652.86837527206921550
86.009497869018190385759 3719.82150105650771366 86.009497869018190385759 653.24662621764514370
88.009497869018190385759 3727.85336187212851655 88.009497869018190385759 653.61228456780804663
91.009497869018218807469 3739.41867850249536787 91.009497869018218807469 654.14671460234239930
94.009497869018218807469 3750.44272493018434034 94.009497869018218807469 654.68286709948267799
97.009497869018218807469 3760.96526311453953895 97.009497869018218807469 655.26453719312962676
99.504748934509137825444 3769.36218985328059716 99.504748934509137825444 655.47853319085459134
nan nan nan nan

