Time Pressure difference Time.1 Pressure.1 difference.1
(hr) (psi) (hr) (psi)
0.000200000000020850166 0.27825010195467093 0.000200000000020850166 0.22214013785402581
0.000399999999999067768 0.55571653852376035 0.000399999999999067768 0.57846107641166356
0.000600000000019917934 0.83251730527045098 0.000600000000019917934 0.84494417430116597
0.000799999999998135536 1.10871134356878298 0.000799999999998135536 1.11540897718687759
0.001007140329434719206 1.39416899294549612 0.001007140329434719206 1.39847019896315850
0.001267914553977789183 1.75272395636671585 0.001267914553977789183 1.75615225860549051
0.001596209851982166583 2.20289638180643976 0.001596209851982166583 2.20424722427103070
0.002009509145224797066 2.76780054648653051 0.002009509145224797066 2.76507796663339445
0.002529822128153114136 3.47623536155814072 0.002529822128153114136 3.46621338502907950
0.003184857364431081805 4.36400901204182112 0.003184857364431081805 4.34156851747026185
0.004009497869034817086 5.47553566409108861 0.004009497869034817086 5.43267163788739360
0.005047658755856332391 6.86574297780789244 0.005047658755856332391 6.79008566636962474
0.006354625877790454069 8.60232239962273404 0.006354625877790454069 8.47495591105242241
0.008000000000009777068 10.76834790191203339 0.008000000000009777068 10.56061555252992612
0.010071403294361402914 13.46526328344276102 0.010071403294361402914 13.13410305172793890
0.012679145539692626699 16.81619614694448472 0.012679145539692626699 16.29738023857842322
0.015962098519750611558 20.96950080885554613 0.015962098519750611558 20.16796856197431254
0.020095091452091651263 26.10235733738633002 0.020095091452091651263 24.87841089662869720
0.025298221281360611101 32.42405496954650346 0.025298221281360611101 30.57400202229048958
0.031848573644296607199 40.17852918547522734 0.031848573644296607199 37.40795971058223301
0.040094978690191851456 49.64539755304765123 0.040094978690191851456 45.53279455688652888
0.050476587558435426217 61.13848971126625997 0.050476587558435426217 55.08687626743585497
0.063546258777947173257 75.00065309046132711 0.063546258777947173257 66.17509896878188158
0.080000000000012505552 91.59332321665957011 0.080000000000012505552 78.84318913029677844
0.100714032943542974863 111.27943076595627758 0.100714032943542974863 93.04486421738843660
0.126791455396883634421 134.39777479621216116 0.126791455396883634421 108.60820973488726793
0.159620985197506115583 161.23037518226433917 0.159620985197506115583 125.20005608715337075
0.200950914520774404082 191.96039518944371594 0.200950914520774404082 142.30874971229241055
0.252982212813464002465 226.63155368730051009 0.252982212813464002465 159.24710120227319976
0.318485736442809752589 265.10747662108417444 0.318485736442809752589 175.19428594701332713
0.400949786901833249431 307.05055069897224485 0.400949786901833249431 189.29477152636874848
0.504765875584169521062 351.92702116435509652 0.504765875584169521062 200.78034526339035892
0.635462587779443310865 399.04222608079237489 0.635462587779443310865 209.12032769949030353
0.800000000000011368684 447.61486744254642645 0.800000000000011368684 214.14501176861116960
1.007140329435344483500 496.86878685022736590 1.007140329435344483500 216.08258518832496975
1.267914553968907398485 546.12357501778114965 1.267914553968907398485 215.52699137641832294
1.596209851975117999245 594.87040064786503990 1.596209851975117999245 213.30088793646493173
2.009509145207687197399 642.79827004249796119 2.009509145207687197399 210.28162043081158572
2.529822128134725289783 689.78840631182401921 2.529822128134725289783 207.28462220691963580
3.184857364427983839050 735.88527890016791844 3.184857364427983839050 204.90869161670022436
4.009497869018204596614 781.21942320662310522 4.009497869018204596614 203.50444274683042067
5.009497869018190385759 824.49874274005526331 5.009497869018190385759 203.19370246723678974
6.009497869018190385759 859.56934792070398998 6.009497869018190385759 203.70467685641798994
7.009497869018204596614 889.06399130626539318 7.009497869018204596614 204.63766013583403947
8.009497869018190385759 914.51247360623915483 8.009497869018190385759 205.75619823812954223
9.009497869018204596614 936.88310957760165820 9.009497869018204596614 206.95736123271890960
10.009497869018190385759 956.82874712970283326 10.009497869018190385759 208.16818704849913502
11.009497869018190385759 974.81138405684703230 11.009497869018190385759 209.29644598827840696
12.009497869018204596614 991.17032795910938603 12.009497869018204596614 210.38096066644618531
13.009497869018190385759 1006.16139050377148578 13.009497869018190385759 211.41426294019274224
14.009497869018204596614 1019.98583939395894049 14.009497869018204596614 212.39371713484322868
15.009497869018190385759 1032.80209792225537058 15.009497869018190385759 213.32684683518127144
16.009497869018190385759 1044.73848711635946529 16.009497869018190385759 214.20763487428314420
17.009497869018204596614 1055.90023385583685922 17.009497869018204596614 215.02404660207773190
18.009497869018190385759 1066.37374723395100773 18.009497869018190385759 215.78534025779956096
19.009497869018204596614 1076.23072514050090831 19.009497869018204596614 216.46883427186261883
20.009497869018190385759 1085.53266059681163824 20.009497869018190385759 217.11437624711894046
21.009497869018190385759 1094.33192473523445187 21.009497869018190385759 217.72578767824097667
22.009497869018204596614 1102.67334584800187258 22.009497869018204596614 218.31513706544953379
23.009497869018190385759 1110.60004211958448650 23.009497869018190385759 218.89491370146123472
24.009497869018204596614 1118.14821458499113760 24.009497869018204596614 219.44506856642968273
25.009497869018204596614 1125.34887026807837174 25.009497869018204596614 219.97591620158047476
26.009497869018190385759 1132.22919501957403554 26.009497869018190385759 220.46855895432628358
27.009497869018204596614 1138.81398407824985952 27.009497869018204596614 220.92142739185746336
28.009497869018190385759 1145.12299659205223179 28.009497869018190385759 221.34191675526349741
29.009497869018190385759 1151.17245806681785325 29.009497869018190385759 221.74120517260951146
30.009497869018190385759 1156.97973090004370533 30.009497869018190385759 222.11762298031337082
31.009497869018218807469 1162.56191533483433886 31.009497869018218807469 222.46361065632578402
32.009497869018190385759 1167.93381485586996860 32.009497869018190385759 222.78837776158744077
33.009497869018190385759 1173.10881342630068502 33.009497869018190385759 223.12023400845581023
34.009497869018218807469 1178.09951742141652176 34.009497869018218807469 223.43186935352224509
35.009497869018190385759 1182.91661037030758052 35.009497869018190385759 223.73332010375455070
36.009497869018190385759 1187.57001294790848078 36.009497869018190385759 224.02791095175982150
37.009497869018190385759 1192.06893707221115619 37.009497869018190385759 224.31199706191574705
38.009497869018218807469 1196.42152372490818379 38.009497869018218807469 224.58559194597060582
39.009497869018190385759 1200.63540825243990184 39.009497869018190385759 224.84408762245777780
40.009497869018190385759 1204.71767848356216746 40.009497869018190385759 225.08610575505028351
41.009497869018218807469 1208.67499613990639773 41.009497869018218807469 225.32678870738999422
42.009497869018190385759 1212.51347002217630688 42.009497869018190385759 225.55454237824741881
43.009497869018190385759 1216.23876967832029550 43.009497869018190385759 225.77327021235836924
44.009497869018218807469 1219.85644098398779533 44.009497869018218807469 225.98110472235180168
46.009497869018190385759 1226.78891936310014898 46.009497869018190385759 226.37495144287063908
48.009497869018218807469 1233.34736345784381228 48.009497869018218807469 226.74403334054014181
50.009497869018190385759 1239.56338450886778446 50.009497869018190385759 227.08989205833984215
52.009497869018190385759 1245.46514783229690693 52.009497869018190385759 227.41543000513397033
54.009497869018218807469 1251.07766848635901624 54.009497869018218807469 227.72282495012859727
56.009497869018190385759 1256.42335067133763005 56.009497869018190385759 228.01099119488205247
58.009497869018218807469 1261.52201881298788066 58.009497869018218807469 228.27722870969088831
60.009497869018190385759 1266.39153165846073534 60.009497869018190385759 228.53312941345603804
62.009497869018190385759 1271.04797360236170789 62.009497869018190385759 228.77527545796647246
64.009497869018218807469 1275.50587126997334053 64.009497869018218807469 229.00385185772060481
66.009497869018190385759 1279.77835095957016165 66.009497869018190385759 229.21388404996511667
68.009497869018190385759 1283.87729144533136605 68.009497869018190385759 229.41083436918938787
70.009497869018190385759 1287.81368627628512513 70.009497869018190385759 229.60151910289204125
72.009497869018190385759 1291.59756580831026440 72.009497869018190385759 229.78151457064453211
74.009497869018218807469 1295.23810117718267065 74.009497869018218807469 229.95359139265207205
76.009497869018190385759 1298.74353315072698933 76.009497869018190385759 230.11716629969802739
78.009497869018190385759 1302.12141414147663454 78.009497869018190385759 230.26943755641107714
80.009497869018218807469 1305.37885150840952520 80.009497869018218807469 230.42041552117709102
82.009497869018190385759 1308.52267905609983245 82.009497869018190385759 230.56917346628512178
84.009497869018218807469 1311.55911324468593193 84.009497869018218807469 230.70770645162784263
86.009497869018190385759 1314.49388486701491274 86.009497869018190385759 230.84137107902017760
88.009497869018190385759 1317.33214791894829432 88.009497869018190385759 230.97058579136677281
91.009497869018218807469 1321.41904778305479340 91.009497869018218807469 231.15944028669275667
94.009497869018218807469 1325.31467600380983640 94.009497869018218807469 231.34890345815054502
97.009497869018218807469 1329.03308348456835120 97.009497869018218807469 231.55445143428104871
99.504748934509137825444 1332.00035189962977711 99.504748934509137825444 231.63007238284416189
nan nan nan nan

