Time Pressure difference Time.1 Pressure.1 difference.1
(hr) (psi) (hr) (psi)
0.000200000000020850166 0.86963539327325512 0.000200000000020850166 0.69427081890497022
0.000399999999999067768 1.73682153980411069 0.000399999999999067768 1.80790670747167681
0.000600000000019917934 2.60192721975570818 0.000600000000019917934 2.64076582236812163
0.000799999999998135536 3.46513664691497247 0.000799999999998135536 3.48606925108853938
0.001007140329434719206 4.35729831526547606 0.001007140329434719206 4.37074118899828967
0.001267914553977789183 5.47791636512224400 0.001267914553977789183 5.48863108883566753
0.001596209851982166583 6.88487316940699312 0.001596209851982166583 6.88909505615453543
0.002009509145224797066 8.65040946916835018 0.002009509145224797066 8.64190039123929488
0.002529822128153114136 10.86453260761603978 0.002529822128153114136 10.83321019141924246
0.003184857364431081805 13.63915652420234892 0.003184857364431081805 13.56902160534735735
0.004009497869034817086 17.11309206060707311 0.004009497869034817086 16.97912598468089840
0.005047658755856332391 21.45800865004436631 0.005047658755856332391 21.22155132145969247
0.006354625877790454069 26.88546732061195144 0.006354625877790454069 26.48739951902055623
0.008000000000009777068 33.65510523373701801 0.008000000000009777068 33.00586412984726081
0.010071403294361402914 42.08397211273006633 0.010071403294361402914 41.04897282137060444
0.012679145539692626699 52.55688765925633987 0.012679145539692626699 50.93539435758688683
0.015962098519750611558 65.53751446827391192 0.015962098519750611558 63.03242711757344097
0.020095091452091651263 81.57960636490591355 0.020095091452091651263 77.75431704110519604
0.025298221281360611101 101.33727030780652001 0.025298221281360611101 95.55516452936760174
0.031848573644296607199 125.57289569311213029 0.031848573644296607199 116.91383228949133866
0.040094978690191851456 155.16039175534595529 0.040094978690191851456 142.30697283898564365
0.050476587558435426217 191.08059321700230271 0.050476587558435426217 172.16704314031443346
0.063546258777947173257 234.40502622600902782 0.063546258777947173257 206.82187647855113255
0.080000000000012505552 286.26331166520168381 0.080000000000012505552 246.41438513259922161
0.100714032943542974863 347.78974331927236108 0.100714032943542974863 290.79991891225580503
0.126791455396883634421 420.04319466159444119 0.126791455396883634421 339.44118087291633401
0.159620985197506115583 503.90508303233065135 0.159620985197506115583 391.29689171119281355
0.200950914520774404082 599.94786198014207912 0.200950914520774404082 444.76794313065721553
0.252982212813464002465 708.30816928538399679 0.252982212813464002465 497.70661181725381539
0.318485736442809752589 828.55978514111995992 0.318485736442809752589 547.54751458663565700
0.400949786901833249431 959.64754203529537335 0.400949786901833249431 591.61679339733746019
0.504765875584169521062 1099.90325719128281889 0.504765875584169521062 627.51349698737226390
0.635462587779443310865 1247.15585285549150285 0.635462587779443310865 653.57905403392942389
0.800000000000011368684 1398.96348123088387183 0.800000000000011368684 669.28306663204739380
1.007140329435344483500 1552.90035770802410298 1.007140329435344483500 675.33870654380962151
1.267914553968907398485 1706.83994938393084340 1.267914553968907398485 673.60226857047769045
1.596209851975117999245 1859.19196859198405036 1.596209851975117999245 666.64486468501127092
2.009509145207687197399 2008.98444398356832608 2.009509145207687197399 657.20852713749172835
2.529822128134725289783 2155.84615345814836473 2.529822128134725289783 647.84178940491005960
3.184857364427983839050 2299.91608062231580334 3.184857364427983839050 640.41611976920933103
4.009497869018204596614 2441.60219730547578365 4.009497869018204596614 636.02731807740735803
5.009497869018190385759 2576.86621984727662493 5.009497869018190385759 635.05613875581173033
6.009497869018190385759 2686.47494708351359805 6.009497869018190385759 636.65312438408841444
7.009497869018204596614 2778.65671312734320964 7.009497869018204596614 639.56904526035293657
8.009497869018190385759 2858.19271601711170661 8.009497869018190385759 643.06489419498996085
9.009497869018204596614 2928.10930067984736525 9.009497869018204596614 646.81897674822891986
10.009497869018190385759 2990.44686043223555316 10.009497869018190385759 650.60325922321965209
11.009497869018190385759 3046.64931076871289406 11.009497869018190385759 654.12948940217154359
12.009497869018204596614 3097.77711454682867043 12.009497869018204596614 657.51900244110186122
13.009497869018190385759 3144.62977867895142481 13.009497869018190385759 660.74845760710991271
14.009497869018204596614 3187.83633983723848360 14.009497869018204596614 663.80961743337581993
15.009497869018190385759 3227.89192992418384165 15.009497869018190385759 666.72599592965605098
16.009497869018190385759 3265.19760003232340750 16.009497869018190385759 669.47878720410278675
17.009497869018204596614 3300.08222342406315875 17.009497869018204596614 672.03037848470262361
18.009497869018190385759 3332.81586075804943903 18.009497869018190385759 674.40970522363033979
19.009497869018204596614 3363.62259469284890656 19.009497869018204596614 676.54587905265725567
20.009497869018190385759 3392.69461386525927082 20.009497869018190385759 678.56343859920457362
21.009497869018190385759 3420.19559760534457382 21.009497869018190385759 680.47432746005472382
22.009497869018204596614 3446.26565105330746519 22.009497869018204596614 682.31626420156919721
23.009497869018190385759 3471.03953462449271683 23.009497869018190385759 684.12828252367137338
24.009497869018204596614 3494.63039006115150187 24.009497869018204596614 685.84772175836383212
25.009497869018204596614 3517.13512588262074132 25.009497869018204596614 687.50681869568586535
26.009497869018190385759 3538.63870801639995989 26.009497869018190385759 689.04651111993928225
27.009497869018204596614 3559.21863083560538144 27.009497869018204596614 690.46189396798445159
28.009497869018190385759 3578.93664905038394863 28.009497869018190385759 691.77608012764437717
29.009497869018190385759 3597.84347342077126086 29.009497869018190385759 693.02400542006625983
30.009497869018190385759 3615.99336791745008668 30.009497869018190385759 694.20045152354657603
31.009497869018218807469 3633.43977718081077910 31.009497869018218807469 695.28179211096437484
32.009497869018190385759 3650.22896762416667116 32.009497869018190385759 696.29681049666282888
33.009497869018190385759 3666.40276912637864370 33.009497869018190385759 697.33398509508424468
34.009497869018218807469 3682.00058131409832640 34.009497869018218807469 698.30796183026200197
35.009497869018190385759 3697.05579420212552577 35.009497869018190385759 699.25010790636122238
36.009497869018190385759 3711.59941360137372612 36.009497869018190385759 700.17081422833598481
37.009497869018190385759 3725.66023019285057671 37.009497869018190385759 701.05868932485316236
38.009497869018218807469 3739.26368758202579556 38.009497869018218807469 701.91377542516795529
39.009497869018190385759 3752.43364907553632293 39.009497869018190385759 702.72167086780098089
40.009497869018190385759 3765.19226678295399324 40.009497869018190385759 703.47806783742578318
41.009497869018218807469 3777.56036107009549596 41.009497869018218807469 704.23029187055908551
42.009497869018190385759 3789.55702421856312867 42.009497869018190385759 704.94210707470165289
43.009497869018190385759 3801.19997568119788411 43.009497869018190385759 705.62571317116180580
44.009497869018218807469 3812.50654838876198482 44.009497869018218807469 706.27527356508164758
46.009497869018190385759 3834.17313006915219376 46.009497869018190385759 707.50619152443459825
48.009497869018218807469 3854.67071504585828734 48.009497869018218807469 708.65971017177776048
50.009497869018190385759 3874.09810024114767657 50.009497869018190385759 709.74064771666212437
52.009497869018190385759 3892.54331277735809635 52.009497869018190385759 710.75807526977689577
54.009497869018218807469 3910.08453404542706267 54.009497869018218807469 711.71879917249145819
56.009497869018190385759 3926.79178553101655780 56.009497869018190385759 712.61942621206424064
58.009497869018218807469 3942.72702596178623935 58.009497869018218807469 713.45151778819808897
60.009497869018190385759 3957.94607058629389940 60.009497869018190385759 714.25130297280145442
62.009497869018190385759 3972.49918913932151554 62.009497869018190385759 715.00809971489809413
64.009497869018218807469 3986.43178274526053428 64.009497869018218807469 715.72248625383133458
66.009497869018190385759 3999.78487598408992199 66.009497869018190385759 716.37891522481641005
68.009497869018190385759 4012.59559445749800943 68.009497869018190385759 716.99445846131720828
70.009497869018190385759 4024.89829710827007148 70.009497869018190385759 717.59041940515805891
72.009497869018190385759 4036.72433254119641788 72.009497869018190385759 718.15297240437257642
74.009497869018218807469 4048.10236397764356298 74.009497869018218807469 718.69077668091551914
76.009497869018190385759 4059.05814689197313783 76.009497869018190385759 719.20200930084729407
78.009497869018190385759 4069.61528539142091176 78.009497869018190385759 719.67791379570860499
80.009497869018218807469 4079.79599262478996025 80.009497869018218807469 720.14977627066389232
82.009497869018190385759 4089.62162678130334825 82.009497869018190385759 720.61470035582249238
84.009497869018218807469 4099.11161661846563220 84.009497869018218807469 721.04766762643089351
86.009497869018190385759 4108.28387300228223467 86.009497869018190385759 721.46541946189290684
88.009497869018190385759 4117.15450409295135614 88.009497869018190385759 721.86926365242095471
91.009497869018218807469 4129.92759113092051848 91.009497869018218807469 722.45950441840989242
94.009497869018218807469 4142.10288291339929856 94.009497869018218807469 723.05164752442874487
97.009497869018218807469 4153.72429375624778913 97.009497869018218807469 723.69406164684255600
99.504748934509137825444 4162.99811474302259739 99.504748934509137825444 723.93040532787415486
nan nan nan nan

