Time Pressure difference Time.1 Pressure.1 difference.1
(hr) (psi) (hr) (psi)
0.000200000000020850166 0.36795461243557975 0.000200000000020850166 0.29375546587860729
0.000399999999999067768 0.73487291512246511 0.000399999999999067768 0.76495002044885652
0.000600000000019917934 1.10091094398450684 0.000600000000019917934 1.11734408721019851
0.000799999999998135536 1.46614664239095793 0.000799999999998135536 1.47500351311578148
0.001007140329434719206 1.84363242947717842 0.001007140329434719206 1.84932029295725164
0.001267914553977789183 2.31778123185210516 0.001267914553977789183 2.32231477779770845
0.001596209851982166583 2.91308387206045616 0.001596209851982166583 2.91487021000616942
0.002009509145224797066 3.66010639430905371 0.002009509145224797066 3.65650608721968240
0.002529822128153114136 4.59693213483658614 0.002529822128153114136 4.58367919273994673
0.003184857364431081805 5.77091340995381064 0.003184857364431081805 5.74123836787858544
0.004009497869034817086 7.24078298266373821 0.004009497869034817086 7.18410010622123973
0.005047658755856332391 9.07917653483252707 0.005047658755856332391 8.97912820955744451
0.006354625877790454069 11.37560842696379559 0.006354625877790454069 11.20718050327230664
0.008000000000009777068 14.23993468820009234 0.008000000000009777068 13.96523190976345319
0.010071403294361402914 17.80630338676162339 0.010071403294361402914 17.36838105049396219
0.012679145539692626699 22.23753699431762954 0.012679145539692626699 21.55146103191116680
0.015962098519750611558 27.72981748753136344 0.015962098519750611558 26.66988081478990935
0.020095091452091651263 34.51744567302132083 0.020095091452091651263 32.89891351404929054
0.025298221281360611101 42.87718313883313215 0.025298221281360611101 40.43069521156623125
0.031848573644296607199 53.13160725124038208 0.031848573644296607199 49.46783925906844814
0.040094978690191851456 65.65048094328390960 0.040094978690191851456 60.21202384686785081
0.050476587558435426217 80.84880878236104707 0.050476587558435426217 72.84622742231069026
0.063546258777947173257 99.17996811663991252 0.063546258777947173257 87.50916072588171346
0.080000000000012505552 121.12191697009009772 0.080000000000012505552 104.26129189469097014
0.100714032943542974863 147.15459053527951028 0.100714032943542974863 123.04141745762112237
0.126791455396883634421 177.72601264096115870 0.126791455396883634421 143.62219973897032332
0.159620985197506115583 213.20912300221823443 0.159620985197506115583 165.56305924360879089
0.200950914520774404082 253.84613453410020156 0.200950914520774404082 188.18739141058370024
0.252982212813464002465 299.69486054768395888 0.252982212813464002465 210.58646517196126524
0.318485736442809752589 350.57496162131434403 0.318485736442809752589 231.67483186425943131
0.400949786901833249431 406.03998196908867158 0.400949786901833249431 250.32114563039206701
0.504765875584169521062 465.38409067405757469 0.504765875584169521062 265.50953119905051381
0.635462587779443310865 527.68867508594337323 0.635462587779443310865 276.53822439066925654
0.800000000000011368684 591.92055605088978609 0.800000000000011368684 283.18280660744699162
1.007140329435344483500 657.05335096910664561 1.007140329435344483500 285.74503056247152699
1.267914553968907398485 722.18729472500604061 1.267914553968907398485 285.01031993956218002
1.596209851975117999245 786.64951488657970913 1.596209851975117999245 282.06654733090732634
2.009509145207687197399 850.02875710097498541 2.009509145207687197399 278.07390403238667886
2.529822128134725289783 912.16795222727773762 2.529822128134725289783 274.11070936616539484
3.184857364427983839050 973.12590612768485698 3.184857364427983839050 270.96880712297968330
4.009497869018204596614 1033.07523725532541903 4.009497869018204596614 269.11184518461459447
5.009497869018190385759 1090.30729263834155063 5.009497869018190385759 268.70092594921163709
6.009497869018190385759 1136.68424217573692658 6.009497869018190385759 269.37663238027812440
7.009497869018204596614 1175.68760641395715538 7.009497869018204596614 270.61039832887905732
8.009497869018190385759 1209.34037554496694611 8.009497869018190385759 272.08953975967580163
9.009497869018204596614 1238.92303744142554933 9.009497869018204596614 273.67794336147608192
10.009497869018190385759 1265.29891038345772358 10.009497869018190385759 275.27912496264212905
11.009497869018190385759 1289.07893473786043614 11.009497869018190385759 276.77112111285771334
12.009497869018204596614 1310.71180682353906377 12.009497869018204596614 278.20527037383777724
13.009497869018190385759 1330.53580893483808723 13.009497869018190385759 279.57169696270267423
14.009497869018204596614 1348.81709507917548763 14.009497869018204596614 280.86691549473300711
15.009497869018190385759 1365.76516232704216236 15.009497869018190385759 282.10087506861282236
16.009497869018190385759 1381.54970087327546935 16.009497869018190385759 283.26561865464907441
17.009497869018204596614 1396.30986148697229510 17.009497869018204596614 284.34523177528490123
18.009497869018190385759 1410.15991052131425931 18.009497869018190385759 285.35195741553792459
19.009497869018204596614 1423.19466040967722620 19.009497869018204596614 286.25580173861237654
20.009497869018190385759 1435.49542878921670308 20.009497869018190385759 287.10945873872742595
21.009497869018190385759 1447.13147062002644816 21.009497869018190385759 287.91798191480825153
22.009497869018204596614 1458.16206630049214255 22.009497869018204596614 288.69733050744520142
23.009497869018190385759 1468.64423480291338819 23.009497869018190385759 289.46402020820096368
24.009497869018204596614 1478.62584794373469776 24.009497869018204596614 290.19153843262188275
25.009497869018204596614 1488.14790904107076130 25.009497869018204596614 290.89352500686612757
26.009497869018190385759 1497.24636833931731417 26.009497869018190385759 291.54498990079565601
27.009497869018204596614 1505.95401476616348191 27.009497869018204596614 292.14385771520261414
28.009497869018190385759 1514.29697758292263643 28.009497869018190385759 292.69990782860213585
29.009497869018190385759 1522.29671320477723384 29.009497869018190385759 293.22792206407768845
30.009497869018190385759 1529.97618145886372076 30.009497869018190385759 293.72569247844421625
31.009497869018218807469 1537.35799550248225387 31.009497869018218807469 294.18322245000689463
32.009497869018190385759 1544.46173128701616406 32.009497869018190385759 294.61269059218875555
33.009497869018190385759 1551.30508760552606873 33.009497869018190385759 295.05153333058484577
34.009497869018218807469 1557.90473497817151838 34.009497869018218807469 295.46363618988164035
35.009497869018190385759 1564.27480117625736966 35.009497869018190385759 295.86227106257695141
36.009497869018190385759 1570.42840518186108056 36.009497869018190385759 296.25183448247645401
37.009497869018190385759 1576.37772872534173985 37.009497869018190385759 296.62750656247368397
38.009497869018218807469 1582.13353734368456571 38.009497869018218807469 296.98930517034324339
39.009497869018190385759 1587.70592792785328129 39.009497869018190385759 297.33113676641431766
40.009497869018190385759 1593.10427333796428684 40.009497869018190385759 297.65117865518590179
41.009497869018218807469 1598.33738295515968275 41.009497869018218807469 297.96945491753359647
42.009497869018190385759 1603.41333498454969231 42.009497869018190385759 298.27063365242867121
43.009497869018190385759 1608.33962676864439345 43.009497869018190385759 298.55987672858134374
44.009497869018218807469 1613.12359210718386748 44.009497869018218807469 298.83471460299057298
46.009497869018190385759 1622.29101873986087412 46.009497869018190385759 299.35553280355730976
48.009497869018218807469 1630.96382690096970691 48.009497869018218807469 299.84360229808743270
50.009497869018190385759 1639.18381891769672620 50.009497869018190385759 300.30096173684938776
52.009497869018190385759 1646.98824026778379448 52.009497869018190385759 300.73144923066968204
54.009497869018218807469 1654.41017056554346709 54.009497869018218807469 301.13794463554319236
56.009497869018190385759 1661.47923685791829485 56.009497869018190385759 301.51901223681420561
58.009497869018218807469 1668.22165472881670212 58.009497869018218807469 301.87108154744197464
60.009497869018190385759 1674.66104037223362866 60.009497869018190385759 302.20948158257021987
62.009497869018190385759 1680.81866359954119616 62.009497869018190385759 302.52969262053471766
64.009497869018218807469 1686.71373424656167117 64.009497869018218807469 302.83195932229921254
66.009497869018190385759 1692.36361037340179791 66.009497869018190385759 303.10970338547627989
68.009497869018190385759 1697.78400032919944351 68.009497869018190385759 303.37014813597284046
70.009497869018190385759 1702.98944185192317491 70.009497869018190385759 303.62230735098853529
72.009497869018190385759 1707.99319896442216304 72.009497869018190385759 303.86033120834480314
74.009497869018218807469 1712.80739946714015787 74.009497869018218807469 304.08788354311900548
76.009497869018190385759 1717.44294085305068620 76.009497869018190385759 304.30419304706339290
78.009497869018190385759 1721.90981034231094782 78.009497869018190385759 304.50555473877642498
80.009497869018218807469 1726.21740662156821600 80.009497869018218807469 304.70520619666103812
82.009497869018190385759 1730.37476663239476693 82.009497869018190385759 304.90192192705762864
84.009497869018218807469 1734.39011094745023911 84.009497869018218807469 305.08511629274966026
86.009497869018190385759 1738.27101789876905968 86.009497869018190385759 305.26187280001772706
88.009497869018190385759 1742.02430306893757006 88.009497869018190385759 305.43274479276266220
91.009497869018218807469 1747.42877065042762297 91.009497869018218807469 305.68248372240265098
94.009497869018218807469 1752.58030289459020423 94.009497869018218807469 305.93302755809162363
97.009497869018218807469 1757.49748054825022336 97.009497869018218807469 306.20484174742239247
99.504748934509137825444 1761.42136087025664892 99.504748934509137825444 306.30484198686554009
nan nan nan nan

