Time Pressure difference Time.1 Pressure.1 difference.1
(hr) (psi) (hr) (psi)
0.000200000000020850166 0.53075168701204389 0.000200000000020850166 0.42372402414544030
0.000399999999999067768 1.06000856154233691 0.000399999999999067768 1.10339291888672530
0.000600000000019917934 1.58799569572483024 0.000600000000019917934 1.61169948471177604
0.000799999999998135536 2.11482551803120122 0.000799999999998135536 2.12760100424601450
0.001007140329434719206 2.65932533281245398 0.001007140329434719206 2.66752972279838341
0.001267914553977789183 3.34325554662188518 0.001267914553977789183 3.34979490522062262
0.001596209851982166583 4.20194265066959716 0.001596209851982166583 4.20451933226623531
0.002009509145224797066 5.27947626628326283 0.002009509145224797066 5.27428304680220528
0.002529822128153114136 6.63078924189746921 0.002529822128153114136 6.61167269562263193
0.003184857364431081805 8.32418435431260839 0.003184857364431081805 8.28137994824924561
0.004009497869034817086 10.44437996822150971 0.004009497869034817086 10.36261843764192392
0.005047658755856332391 13.09614854572908271 0.005047658755856332391 12.95183504719459755
0.006354625877790454069 16.40860899510127524 0.006354625877790454069 16.16566217063432020
0.008000000000009777068 20.54022181887101084 0.008000000000009777068 20.14398011363170937
0.010071403294361402914 25.68448727796992515 0.010071403294361402914 25.05281149269896446
0.012679145539692626699 32.07626668029111983 0.012679145539692626699 31.08664469388540752
0.015962098519750611558 39.99854034883192355 0.015962098519750611558 38.46964749582562604
0.020095091452091651263 49.78927265250705148 0.020095091452091651263 47.45464048640518229
0.025298221281360611101 61.84767500161257914 0.025298221281360611101 58.31876803654813557
0.031848573644296607199 76.63904522244379791 0.031848573644296607199 71.35428732854342115
0.040094978690191851456 94.69674339223119830 0.040094978690191851456 86.85210663238952122
0.050476587558435426217 116.61938783731085323 0.050476587558435426217 105.07616099967614787
0.063546258777947173257 143.06094723822326387 0.063546258777947173257 126.22653206284066130
0.080000000000012505552 174.71084637446404031 0.080000000000012505552 150.39044135599891661
0.100714032943542974863 212.26136196849572002 0.100714032943542974863 177.47960667137675728
0.126791455396883634421 256.35874058143156162 0.126791455396883634421 207.16610752415809316
0.159620985197506115583 307.54092460139378318 0.159620985197506115583 238.81443534236123583
0.200950914520774404082 366.15729112255087330 0.200950914520774404082 271.44863004822349239
0.252982212813464002465 432.29123225726880264 0.252982212813464002465 303.75790348732112989
0.318485736442809752589 505.68261958469497586 0.318485736442809752589 334.17656334370605009
0.400949786901833249431 585.68746834818887237 0.400949786901833249431 361.07271344880479091
0.504765875584169521062 671.28766126573998463 0.504765875584169521062 382.98101678598936815
0.635462587779443310865 761.15815661380997881 0.635462587779443310865 398.88922208947553827
0.800000000000011368684 853.80865759936466475 0.800000000000011368684 408.47361946311201564
1.007140329435344483500 947.75867103670236702 1.007140329435344483500 412.16946846370046842
1.267914553968907398485 1041.71034160108115429 1.267914553968907398485 411.10969399860096019
1.596209851975117999245 1134.69309257906184030 1.596209851975117999245 406.86348475045099349
2.009509145207687197399 1226.11371509598848206 2.009509145207687197399 401.10434464265256338
2.529822128134725289783 1315.74564666643436794 2.529822128134725289783 395.38768235887056335
3.184857364427983839050 1403.67371109614123270 3.184857364427983839050 390.85568341215355304
4.009497869018204596614 1490.14689978815567883 4.009497869018204596614 388.17713109022281515
5.009497869018190385759 1572.70058689819484243 5.009497869018190385759 387.58440560168452294
6.009497869018190385759 1639.59645767561164575 6.009497869018190385759 388.55907018283909338
7.009497869018204596614 1695.85638938717511337 7.009497869018204596614 390.33870097551630352
8.009497869018190385759 1744.39841980413962119 8.009497869018190385759 392.47227066914859961
9.009497869018204596614 1787.06957319429102427 9.009497869018204596614 394.76344426181304925
10.009497869018190385759 1825.11513258471677545 10.009497869018190385759 397.07304932534611908
11.009497869018190385759 1859.41634152932920188 11.009497869018190385759 399.22516115376089374
12.009497869018204596614 1890.62041661454031782 12.009497869018204596614 401.29383243540030435
13.009497869018190385759 1919.21530905047734450 13.009497869018190385759 403.26481796651688683
14.009497869018204596614 1945.58492947086483582 14.009497869018204596614 405.13309029601441580
15.009497869018190385759 1970.03146439498868858 15.009497869018190385759 406.91300038113678283
16.009497869018190385759 1992.79968139508582681 16.009497869018190385759 408.59307070049828781
17.009497869018204596614 2014.09029681755146157 17.009497869018204596614 410.15034560814234510
18.009497869018190385759 2034.06813278356617047 18.009497869018190385759 411.60248484995202034
19.009497869018204596614 2052.86995034262736226 19.009497869018204596614 412.90622417826932633
20.009497869018190385759 2070.61304513839604624 20.009497869018190385759 414.13757140868358420
21.009497869018190385759 2087.39731315168592118 21.009497869018190385759 415.30381589968953904
22.009497869018204596614 2103.30826267723386991 22.009497869018204596614 416.42797786514108793
23.009497869018190385759 2118.42814004302817921 23.009497869018190385759 417.53388016487679124
24.009497869018204596614 2132.82599737256532535 24.009497869018204596614 418.58328004163752212
25.009497869018204596614 2146.56097940687186565 25.009497869018204596614 419.59585209794005323
26.009497869018190385759 2159.68494214181419011 26.009497869018190385759 420.53554976661041565
27.009497869018204596614 2172.24518157015472752 27.009497869018204596614 421.39937941312518888
28.009497869018190385759 2184.27938752931731869 28.009497869018190385759 422.20144718392054983
29.009497869018190385759 2195.81850956625885374 29.009497869018190385759 422.96307494118656223
30.009497869018190385759 2206.89566580635209903 30.009497869018190385759 423.68107786394102732
31.009497869018218807469 2217.54347432525128170 31.009497869018218807469 424.34103644594677007
32.009497869018190385759 2227.79017221761478140 32.009497869018190385759 424.96051758105784302
33.009497869018190385759 2237.66128889374977007 33.009497869018190385759 425.59352098926353847
34.009497869018218807469 2247.18087054413445003 34.009497869018218807469 426.18795378179316913
35.009497869018190385759 2256.36929560187036259 35.009497869018190385759 426.76295983969896497
36.009497869018190385759 2265.24548738421935923 36.009497869018190385759 427.32488089007324561
37.009497869018190385759 2273.82701728102347261 37.009497869018190385759 427.86676454496767974
38.009497869018218807469 2282.12941391109325195 38.009497869018218807469 428.38863657753802272
39.009497869018190385759 2290.16724141286294980 39.009497869018190385759 428.88170743507623683
40.009497869018190385759 2297.95401955521219861 40.009497869018190385759 429.34334799246903458
41.009497869018218807469 2305.50245532358212586 41.009497869018218807469 429.80244174334984564
42.009497869018190385759 2312.82420102737569323 42.009497869018190385759 430.23687337223913119
43.009497869018190385759 2319.93007111775159501 43.009497869018190385759 430.65408855431934398
44.009497869018218807469 2326.83064414557702548 44.009497869018218807469 431.05052512711284862
46.009497869018190385759 2340.05408797916697949 46.009497869018190385759 431.80177305072936633
48.009497869018218807469 2352.56407537182758460 48.009497869018218807469 432.50578299882135980
50.009497869018190385759 2364.42090358557152285 50.009497869018190385759 433.16549559784823487
52.009497869018190385759 2375.67829690996313730 52.009497869018190385759 433.78644708441976263
54.009497869018218807469 2386.38397063517413699 54.009497869018218807469 434.37279147203634011
56.009497869018190385759 2396.58065993726813758 56.009497869018190385759 434.92245783143175686
58.009497869018218807469 2406.30617916865458028 58.009497869018218807469 435.43029595669395349
60.009497869018190385759 2415.59459322315387908 60.009497869018190385759 435.91841700059234199
62.009497869018190385759 2424.47658248331072173 62.009497869018190385759 436.38030154519572079
64.009497869018218807469 2432.97985594481451699 64.009497869018218807469 436.81630249875667005
66.009497869018190385759 2441.12945153183727598 66.009497869018190385759 437.21693106844094245
68.009497869018190385759 2448.94802756288618184 68.009497869018190385759 437.59260645346870433
70.009497869018190385759 2456.45655382252562049 70.009497869018190385759 437.95633046790453591
72.009497869018190385759 2463.67416284032879048 72.009497869018190385759 438.29966510639354738
74.009497869018218807469 2470.61834821558159092 74.009497869018218807469 438.62789522359599914
76.009497869018190385759 2477.30482890541634333 76.009497869018190385759 438.93990825524491584
78.009497869018190385759 2483.74801085493618302 78.009497869018190385759 439.23035999566172904
80.009497869018218807469 2489.96145108618975428 80.009497869018218807469 439.51834482994672726
82.009497869018190385759 2495.95818482641152514 82.009497869018190385759 439.80209505957077454
84.009497869018218807469 2501.75006974135567361 84.009497869018218807469 440.06634155997068092
86.009497869018190385759 2507.34803710454480097 86.009497869018190385759 440.32130184923551042
88.009497869018190385759 2512.76191797077035517 88.009497869018190385759 440.56777409159212766
91.009497869018218807469 2520.55752696528952583 91.009497869018218807469 440.92800699461696468
94.009497869018218807469 2527.98829243711770687 94.009497869018218807469 441.28940092465137468
97.009497869018218807469 2535.08101596011692891 97.009497869018218807469 441.68147601941967650
99.504748934509137825444 2540.74096974287613193 99.504748934509137825444 441.82572015712656821
nan nan nan nan

