Time Pressure difference Time.1 Pressure.1 difference.1
(hr) (psi) (hr) (psi)
0.000200000000020850166 0.49752779424133692 0.000200000000020850166 0.39719982858078051
0.000399999999999067768 0.99365434798726104 0.000399999999999067768 1.03432293961369082
0.000600000000019917934 1.48859064434925426 0.000600000000019917934 1.51081062807880118
0.000799999999998135536 1.98244207402298822 0.000799999999998135536 1.99441784279086454
0.001007140329434719206 2.49285739335627499 0.001007140329434719206 2.50054820650427434
0.001267914553977789183 3.13397507421988886 0.001267914553977789183 3.14010508329757876
0.001596209851982166583 3.93891024687181357 0.001596209851982166583 3.94132563384581314
0.002009509145224797066 4.94899261894158737 0.002009509145224797066 4.94412448362209833
0.002529822128153114136 6.21571636290545193 0.002529822128153114136 6.19779647054453342
0.003184857364431081805 7.80310865138224141 0.003184857364431081805 7.76298370735727516
0.004009497869034817086 9.79058466504645430 0.004009497869034817086 9.71394122714790775
0.005047658755856332391 12.27635833942366439 0.005047658755856332391 12.14107854971762634
0.006354625877790454069 15.38146602201199542 0.006354625877790454069 15.15372713647880865
0.008000000000009777068 19.25444893506062272 0.008000000000009777068 18.88301109243410281
0.010071403294361402914 24.07669464711108986 0.010071403294361402914 23.48456038204488294
0.012679145539692626699 30.06836266274551051 0.012679145539692626699 29.14068884450291108
0.015962098519750611558 37.49471935672976741 0.015962098519750611558 36.06153184663466504
0.020095091452091651263 46.67257326893853531 0.020095091452091651263 44.48408396143459242
0.025298221281360611101 57.97614605002493704 0.025298221281360611101 54.66814092940897041
0.031848573644296607199 71.84160890179003900 0.031848573644296607199 66.88766527354853508
0.040094978690191851456 88.76893472918072803 0.040094978690191851456 81.41535504350754593
0.050476587558435426217 109.31926966283130298 0.050476587558435426217 98.49862353490767930
0.063546258777947173257 134.10564537667565332 0.063546258777947173257 118.32502770835924366
0.080000000000012505552 163.77433016948975819 0.080000000000012505552 140.97632922103809960
0.100714032943542974863 198.97426575763526557 0.100714032943542974863 166.36977213795725561
0.126791455396883634421 240.31124508337637735 0.126791455396883634421 194.19796307820141124
0.159620985197506115583 288.28953651992941332 0.159620985197506115583 223.86517491404441671
0.200950914520774404082 343.23664692082627425 0.200950914520774404082 254.45654053033780428
0.252982212813464002465 405.23074823490452445 0.252982212813464002465 284.74332423928854041
0.318485736442809752589 474.02799551053561800 0.318485736442809752589 313.25784263361492776
0.400949786901833249431 549.02471602592356703 0.400949786901833249431 338.47035266953696464
0.504765875584169521062 629.26652441029455076 0.504765875584169521062 359.00724421722634361
0.635462587779443310865 713.51132364893919657 0.635462587779443310865 373.91963072237223287
0.800000000000011368684 800.36210626294121084 0.800000000000011368684 382.90406581909877559
1.007140329435344483500 888.43105469637680471 1.007140329435344483500 386.36856276957212231
1.267914553968907398485 976.50155652433102205 1.267914553968907398485 385.37512786410320587
1.596209851975117999245 1063.66379100916765310 1.596209851975117999245 381.39472201176863564
2.009509145207687197399 1149.36168285210828799 2.009509145207687197399 375.99609145688401668
2.529822128134725289783 1233.38285188293320971 2.529822128134725289783 370.63727970729809158
3.184857364427983839050 1315.80681212298668470 3.184857364427983839050 366.38897396538339990
4.009497869018204596614 1396.86696865900671582 4.009497869018204596614 363.87809315030278867
5.009497869018190385759 1474.25297582475536728 5.009497869018190385759 363.32247097873084840
6.009497869018190385759 1536.96131165522911033 6.009497869018190385759 364.23612369252049348
7.009497869018204596614 1589.69949490284489002 7.009497869018204596614 365.90435349661078135
8.009497869018190385759 1635.20290056757380626 8.009497869018190385759 367.90436640190921480
9.009497869018204596614 1675.20293324472663699 9.009497869018204596614 370.05211754745857888
10.009497869018190385759 1710.86692397221486317 10.009497869018190385759 372.21714639418206616
11.009497869018190385759 1743.02095238821311796 11.009497869018190385759 374.23454073725002900
12.009497869018204596614 1772.27172073882570658 12.009497869018204596614 376.17371772895893400
13.009497869018190385759 1799.07663555748990802 13.009497869018190385759 378.02132388410586827
14.009497869018204596614 1823.79557551337734367 14.009497869018204596614 379.77264645901823314
15.009497869018190385759 1846.71181091173434652 15.009497869018190385759 381.44113807245844328
16.009497869018190385759 1868.05478741104298024 16.009497869018190385759 383.01603967073316426
17.009497869018204596614 1888.01265695416805102 17.009497869018204596614 384.47583258102855552
18.009497869018190385759 1906.73992415861675909 18.009497869018190385759 385.83707108782670048
19.009497869018204596614 1924.36478913182099859 19.009497869018204596614 387.05919919058419509
20.009497869018190385759 1940.99720506713492796 20.009497869018190385759 388.21346678216190185
21.009497869018190385759 1956.73081467583710946 21.009497869018190385759 389.30670692318312831
22.009497869018204596614 1971.64577362075556266 22.009497869018204596614 390.36049881255007676
23.009497869018190385759 1985.81917978994351870 23.009497869018190385759 391.39717405126947369
24.009497869018204596614 1999.31576279525302198 24.009497869018204596614 392.38088379489960289
25.009497869018204596614 2012.19096504650428869 25.009497869018204596614 393.33007105894540700
26.009497869018190385759 2024.49339646783528224 26.009497869018190385759 394.21094571236250204
27.009497869018204596614 2036.26739242648295658 27.009497869018204596614 395.02070151558996258
28.009497869018190385759 2047.54828345862438255 28.009497869018190385759 395.77256160120248296
29.009497869018190385759 2058.36508173738502592 29.009497869018190385759 396.48651312953160186
30.009497869018190385759 2068.74883226604833908 30.009497869018190385759 397.15957064241104035
31.009497869018218807469 2078.73011130019631310 31.009497869018218807469 397.77821726310190797
32.009497869018190385759 2088.33538835422723423 32.009497869018190385759 398.35892023639064519
33.009497869018190385759 2097.58859475329609268 33.009497869018190385759 398.95229901810461115
34.009497869018218807469 2106.51227144904032684 34.009497869018218807469 399.50952162017853198
35.009497869018190385759 2115.12552122929582765 35.009497869018190385759 400.04853355865367348
36.009497869018190385759 2123.44608285312597218 36.009497869018190385759 400.57527958240046928
37.009497869018190385759 2131.49042777986369401 37.009497869018190385759 401.08324250772398045
38.009497869018218807469 2139.27311257080555151 38.009497869018218807469 401.57244649443703111
39.009497869018190385759 2146.80778968122831429 39.009497869018190385759 402.03465219657380203
40.009497869018190385759 2154.10713257210090887 40.009497869018190385759 402.46739506649288387
41.009497869018218807469 2161.18305279941432673 41.009497869018218807469 402.89775055440776441
42.009497869018190385759 2168.04647326353369863 42.009497869018190385759 403.30498771513492784
43.009497869018190385759 2174.70753145466824208 43.009497869018190385759 403.69608614090344645
44.009497869018218807469 2181.17614372957814339 44.009497869018218807469 404.06770665280220101
46.009497869018190385759 2193.57182895073765394 46.009497869018190385759 404.77192810232691045
48.009497869018218807469 2205.29871854104021622 48.009497869018218807469 405.43186857010016411
50.009497869018190385759 2216.41333528600534919 50.009497869018190385759 406.05028460580763294
52.009497869018190385759 2226.96604045237563696 52.009497869018190385759 406.63236588977690644
54.009497869018218807469 2237.00156245769858288 54.009497869018218807469 407.18200640336431206
56.009497869018190385759 2246.55996134964561861 56.009497869018190385759 407.69726485293836049
58.009497869018218807469 2255.67668438501414130 58.009497869018218807469 408.17331342419356588
60.009497869018190385759 2264.38366406990462565 60.009497869018190385759 408.63087916017963153
62.009497869018190385759 2272.70966026213318401 62.009497869018190385759 409.06385074424446202
64.009497869018218807469 2280.68064743496734081 64.009497869018218807469 409.47255899335715412
66.009497869018190385759 2288.32009619338077755 66.009497869018190385759 409.84810909232572840
68.009497869018190385759 2295.64924649478689389 68.009497869018190385759 410.20026802132667854
70.009497869018190385759 2302.68775546117831254 70.009497869018190385759 410.54122370935027675
72.009497869018190385759 2309.45355796769490553 72.009497869018190385759 410.86306635168972434
74.009497869018218807469 2315.96305255263450817 74.009497869018218807469 411.17074998268230956
76.009497869018190385759 2322.23097420085150588 76.009497869018190385759 411.46323168214667021
78.009497869018190385759 2328.27082707684940033 78.009497869018190385759 411.73550177997088895
80.009497869018218807469 2334.09531956279761289 80.009497869018218807469 412.00545939458226030
82.009497869018190385759 2339.71667090926530364 82.009497869018190385759 412.27144748150686837
84.009497869018218807469 2345.14599651811022341 84.009497869018218807469 412.51915272992556538
86.009497869018190385759 2350.39354338908060527 86.009497869018190385759 412.75815306368087931
88.009497869018190385759 2355.46852717447791292 88.009497869018190385759 412.98919668366772839
91.009497869018218807469 2362.77614812552201329 91.009497869018218807469 413.32687979620584429
94.009497869018218807469 2369.74176395905124082 94.009497869018218807469 413.66565125800650549
97.009497869018218807469 2376.39049852912376082 97.009497869018218807469 414.03318331084875581
99.504748934509137825444 2381.69615160560670120 99.504748934509137825444 414.16839808156316849
nan nan nan nan

