Time Pressure difference Time.1 Pressure.1 difference.1
(hr) (psi) (hr) (psi)
0.000200000000020850166 0.56563677442128624 0.000200000000020850166 0.45157442948833310
0.000399999999999067768 1.12968048577516655 0.000399999999999067768 1.17591639712341145
0.000600000000019917934 1.69237099966918558 0.000600000000019917934 1.71763278417640008
0.000799999999998135536 2.25382813423982453 0.000799999999998135536 2.26744332377392110
0.001007140329434719206 2.83411666924144168 0.001007140329434719206 2.84286031490719715
0.001267914553977789183 3.56300004264398096 0.001267914553977789183 3.56996921823981772
0.001596209851982166583 4.47812667465727010 0.001596209851982166583 4.48087271560767864
0.002009509145224797066 5.62648409599202193 0.002009509145224797066 5.62094953814131770
0.002529822128153114136 7.06661576483908593 0.002529822128153114136 7.04624273195463591
0.003184857364431081805 8.87131384238949217 0.003184857364431081805 8.82569600118581654
0.004009497869034817086 11.13086503655531878 0.004009497869034817086 11.04372950866064151
0.005047658755856332391 13.95692826234977524 0.005047658755856332391 13.80312936954541492
0.006354625877790454069 17.48710911684502278 0.006354625877790454069 17.22819395649760921
0.008000000000009777068 21.89028334687192512 0.008000000000009777068 21.46799758588919005
0.010071403294361402914 27.37266954037170308 0.010071403294361402914 26.69947515888575040
0.012679145539692626699 34.18456589871400553 0.012679145539692626699 33.12989833573703180
0.015962098519750611558 42.62755239053918643 0.015962098519750611558 40.99816892747613650
0.020095091452091651263 53.06180700525400340 0.020095091452091651263 50.57372483762429738
0.025298221281360611101 65.91278040077961009 0.025298221281360611101 62.15192649904425792
0.031848573644296607199 81.67635335913024619 0.031848573644296607199 76.04424048628806077
0.040094978690191851456 100.92094248843419280 0.040094978690191851456 92.56069580071559244
0.050476587558435426217 124.28451192051439023 0.050476587558435426217 111.98257533768303063
0.063546258777947173257 152.46401419284828194 0.063546258777947173257 134.52311163504614910
0.080000000000012505552 186.19418838968704222 0.080000000000012505552 160.27525909770778867
0.100714032943542974863 226.21281298989919151 0.100714032943542974863 189.14493293146725250
0.126791455396883634421 273.20861085438951932 0.126791455396883634421 220.78265919241260917
0.159620985197506115583 327.75488208693138859 0.159620985197506115583 254.51115879209390869
0.200950914520774404082 390.22396753436169092 0.200950914520774404082 289.29032404200341944
0.252982212813464002465 460.70474048075118390 0.252982212813464002465 323.72321169775540284
0.318485736442809752589 538.91997486256218508 0.318485736442809752589 356.14122008930172569
0.400949786901833249431 624.18335828656745434 0.400949786901833249431 384.80519226703614777
0.504765875584169521062 715.40985496395751397 0.504765875584169521062 408.15347798319055528
0.635462587779443310865 811.18733122692412962 0.635462587779443310865 425.10729302493405157
0.800000000000011368684 909.92753650260931408 0.800000000000011368684 435.32165078932598590
1.007140329435344483500 1010.05266819404437229 1.007140329435344483500 439.26041944253523752
1.267914553968907398485 1110.17956593166832135 1.267914553968907398485 438.13098843982356811
1.596209851975117999245 1209.27385922745111202 1.596209851975117999245 433.60568562606749765
2.009509145207687197399 1306.70334895206315196 2.009509145207687197399 427.46801048770953457
2.529822128134725289783 1402.22658118911090241 2.529822128134725289783 421.37560514302168713
3.184857364427983839050 1495.93395501795339442 3.184857364427983839050 416.54572833126223941
4.009497869018204596614 1588.09082747376191946 4.009497869018204596614 413.69112092713885431
5.009497869018190385759 1676.07057852530624587 5.009497869018190385759 413.05943695578588404
6.009497869018190385759 1747.36336099701338753 6.009497869018190385759 414.09816399767362327
7.009497869018204596614 1807.32112859572180241 7.009497869018204596614 415.99476582836712169
8.009497869018190385759 1859.05371500253386330 8.009497869018190385759 418.26857014974990534
9.009497869018204596614 1904.52954514133352859 9.009497869018204596614 420.71033731188532556
10.009497869018190385759 1945.07575162784360145 10.009497869018190385759 423.17174740306836611
11.009497869018190385759 1981.63150012750111273 11.009497869018190385759 425.46531259109724488
12.009497869018204596614 2014.88654728404048910 12.009497869018204596614 427.66995287716372331
13.009497869018190385759 2045.36091621811465302 13.009497869018190385759 429.77048675304854441
14.009497869018204596614 2073.46375112622672532 14.009497869018204596614 431.76155632486040759
15.009497869018190385759 2099.51710055240573638 15.009497869018190385759 433.65845580524904790
16.009497869018190385759 2123.78182007833083844 16.009497869018190385759 435.44895328175169880
17.009497869018204596614 2146.47181867410427003 17.009497869018204596614 437.10858428661174457
18.009497869018190385759 2167.76275183976304106 18.009497869018190385759 438.65616930018359199
19.009497869018204596614 2187.80036961397354389 19.009497869018204596614 440.04560041533864023
20.009497869018190385759 2206.70967721322040234 20.009497869018190385759 441.35788126653130803
21.009497869018190385759 2224.59713655132736676 21.009497869018190385759 442.60078032502121914
22.009497869018204596614 2241.55387618653503523 22.009497869018204596614 443.79883087036165534
23.009497869018190385759 2257.66754830876789129 23.009497869018190385759 444.97742158416446046
24.009497869018204596614 2273.01174367874318705 24.009497869018204596614 446.09579610071227762
25.009497869018204596614 2287.64949448525794651 25.009497869018204596614 447.17492218888452271
26.009497869018190385759 2301.63606509949249812 26.009497869018190385759 448.17638402357079030
27.009497869018204596614 2315.02186017100984827 27.009497869018204596614 449.09699120553716511
28.009497869018190385759 2327.84704680354479933 28.009497869018190385759 449.95177704577446320
29.009497869018190385759 2340.14460878657610010 29.009497869018190385759 450.76346484342411713
30.009497869018190385759 2351.94984102367106971 30.009497869018190385759 451.52866044654746247
31.009497869018218807469 2363.29750550155904421 31.009497869018218807469 452.23199658793390654
32.009497869018190385759 2374.21769527417154677 32.009497869018190385759 452.89219479295832116
33.009497869018190385759 2384.73761774122613133 33.009497869018190385759 453.56680405898032404
34.009497869018218807469 2394.88289959398343854 34.009497869018218807469 454.20030755148849266
35.009497869018190385759 2404.67525869307291941 35.009497869018190385759 454.81310743479656367
36.009497869018190385759 2414.13486214186787038 36.009497869018190385759 455.41196226312968065
37.009497869018190385759 2423.28043625724103549 37.009497869018190385759 455.98946268407348725
38.009497869018218807469 2432.12853031839540563 38.009497869018218807469 456.54563616479401844
39.009497869018190385759 2440.69466573107911245 39.009497869018190385759 457.07111543550377064
40.009497869018190385759 2448.99325088747991686 40.009497869018190385759 457.56309856474399567
41.009497869018218807469 2457.03782797395888338 41.009497869018218807469 458.05236749173906219
42.009497869018190385759 2464.84081517940967387 42.009497869018190385759 458.51535331219849922
43.009497869018190385759 2472.41373776398813789 43.009497869018190385759 458.95999108840607050
44.009497869018218807469 2479.76786958237516956 44.009497869018218807469 459.38248452513909115
46.009497869018190385759 2493.86045995901895367 46.009497869018190385759 460.18311024655196206
48.009497869018218807469 2507.19270004415420772 48.009497869018218807469 460.93339314897866643
50.009497869018190385759 2519.82885030011584604 50.009497869018190385759 461.63646713949077593
52.009497869018190385759 2531.82616619043028550 52.009497869018190385759 462.29823233879471900
54.009497869018218807469 2543.23549922152369618 54.009497869018218807469 462.92311579414206335
56.009497869018190385759 2554.10239345427135049 56.009497869018190385759 463.50891045884975483
58.009497869018218807469 2564.46714869147672289 58.009497869018218807469 464.05012761581934910
60.009497869018190385759 2574.36606883406557245 60.009497869018190385759 464.57033173302562545
62.009497869018190385759 2583.83185081554711360 62.009497869018190385759 465.06257488619451124
64.009497869018218807469 2592.89402488015502968 64.009497869018218807469 465.52723317942610493
66.009497869018190385759 2601.57927463721580352 66.009497869018190385759 465.95419414336197406
68.009497869018190385759 2609.91174768439032050 68.009497869018190385759 466.35456180721780584
70.009497869018190385759 2617.91379210194054394 70.009497869018190385759 466.74219256438652792
72.009497869018190385759 2625.60579795659441515 72.009497869018190385759 467.10809379883255588
74.009497869018218807469 2633.00640866167577769 74.009497869018218807469 467.45789772655535899
76.009497869018190385759 2640.13237634520919528 76.009497869018190385759 467.79041865699809932
78.009497869018190385759 2646.99905382192719117 78.009497869018190385759 468.09996112213713104
80.009497869018218807469 2653.62088918575182106 80.009497869018218807469 468.40687453707937493
82.009497869018190385759 2660.01177443941514866 82.009497869018190385759 468.70927501653778791
84.009497869018218807469 2666.18434662576419214 84.009497869018218807469 468.99088983151813181
86.009497869018190385759 2672.15025550578229740 86.009497869018190385759 469.26260807406788444
88.009497869018190385759 2677.91997830687705573 88.009497869018190385759 469.52528036991276394
91.009497869018218807469 2686.22797474704566412 91.009497869018218807469 469.90919055294858708
94.009497869018218807469 2694.14714733908795097 94.009497869018218807469 470.29433807462845607
97.009497869018218807469 2701.70605926265943708 97.009497869018218807469 470.71218336341911481
99.504748934509137825444 2707.73802878700871588 99.504748934509137825444 470.86590833646829424
nan nan nan nan

