Time Pressure difference Time.1 Pressure.1 difference.1
(hr) (psi) (hr) (psi)
0.000200000000020850166 0.43523299529626136 0.000200000000020850166 0.34746696189704340
0.000399999999999067768 0.86924019757149373 0.000399999999999067768 0.90481672847675121
0.000600000000019917934 1.30220617302004871 0.000600000000019917934 1.32164402189197316
0.000799999999998135536 1.73422311650758898 0.000799999999998135536 1.74469941506245907
0.001007140329434719206 2.18073000687594032 0.001007140329434719206 2.18745786345282145
0.001267914553977789183 2.74157418846614664 0.001267914553977789183 2.74693666719187179
0.001596209851982166583 3.44572448975096846 0.001596209851982166583 3.44783744930752301
0.002009509145224797066 4.32933578017594645 0.002009509145224797066 4.32507717765939947
0.002529822128153114136 5.43745471479541997 0.002529822128153114136 5.42177854852309782
0.003184857364431081805 6.82609170838780344 0.003184857364431081805 6.79099075568482924
0.004009497869034817086 8.56471847159322586 0.004009497869034817086 8.49767145747162367
0.005047658755856332391 10.73925170260100259 0.005047658755856332391 10.62091011694830733
0.006354625877790454069 13.45557294746959087 0.006354625877790454069 13.25634894743722114
0.008000000000009777068 16.84362477791613699 0.008000000000009777068 16.51869417768859805
0.010071403294361402914 21.06208346425076527 0.010071403294361402914 20.54408954956847921
0.012679145539692626699 26.30354262984749170 0.012679145539692626699 25.49202162691072360
0.015962098519750611558 32.80005499653822909 0.015962098519750611558 31.54631500440160963
0.020095091452091651263 40.82876192474756749 0.020095091452091651263 38.91429047711473288
0.025298221281360611101 50.71702926579811077 0.025298221281360611101 47.82321510352304017
0.031848573644296607199 62.84641580056424459 0.031848573644296607199 58.51274892043310416
0.040094978690191851456 77.65429348596111936 0.040094978690191851456 71.22144581435385646
0.050476587558435426217 95.63154808568214094 0.050476587558435426217 86.16574078846682028
0.063546258777947173257 117.31445438627385158 0.063546258777947173257 103.50970704370658382
0.080000000000012505552 143.26836228516302185 0.080000000000012505552 123.32486896798660325
0.100714032943542974863 174.06096036227191348 0.100714032943542974863 145.53883238779565090
0.126791455396883634421 210.22219102452291395 0.126791455396883634421 169.88269224203261842
0.159620985197506115583 252.19318386718364877 0.159620985197506115583 195.83531161095038442
0.200950914520774404082 300.26043904259256578 0.200950914520774404082 222.59637268430216750
0.252982212813464002465 354.49234069297153837 0.252982212813464002465 249.09098814922731435
0.318485736442809752589 414.67557537148695701 0.318485736442809752589 274.03524130219398103
0.400949786901833249431 480.28205542167597741 0.400949786901833249431 296.09092620840959853
0.504765875584169521062 550.47689280633449016 0.504765875584169521062 314.05642065079570102
0.635462587779443310865 624.17351183980656515 0.635462587779443310865 327.10164690905349971
0.800000000000011368684 700.14982250714729162 0.800000000000011368684 334.96115273657392208
1.007140329435344483500 777.19177405826610538 1.007140329435344483500 337.99186459308145913
1.267914553968907398485 854.23508450542476567 1.267914553968907398485 337.12281636192000178
1.596209851975117999245 930.48385056561573947 1.596209851975117999245 333.64079187673917204
2.009509145207687197399 1005.45162239483261146 2.009509145207687197399 328.91811673356801293
2.529822128134725289783 1078.95261166386785590 2.529822128134725289783 324.23027473559966438
3.184857364427983839050 1151.05637654832230510 3.184857364427983839050 320.51389375268928461
4.009497869018204596614 1221.96709779185221123 4.009497869018204596614 318.31739701295271061
5.009497869018190385759 1289.66370506205657875 5.009497869018190385759 317.83134356069280102
6.009497869018190385759 1344.52041286701182798 6.009497869018190385759 318.63059902317320393
7.009497869018204596614 1390.65531774472560755 7.009497869018204596614 320.08995197366277807
8.009497869018190385759 1430.46130199901290325 8.009497869018190385759 321.83954590083544645
9.009497869018204596614 1465.45298333929349610 9.009497869018204596614 323.71837995804389720
10.009497869018190385759 1496.65153282377400501 10.009497869018190385759 325.61232839824941721
11.009497869018190385759 1524.77959774862051745 11.009497869018190385759 327.37712745629221445
12.009497869018204596614 1550.36791597186083891 12.009497869018204596614 329.07350265438151382
13.009497869018190385759 1573.81662275813800989 13.009497869018190385759 330.68977247958508769
14.009497869018204596614 1595.44053684308778429 14.009497869018204596614 332.22181426465033383
15.009497869018190385759 1615.48746063063231304 15.009497869018190385759 333.68139624368649265
16.009497869018190385759 1634.15811119096224502 16.009497869018190385759 335.05910648992352208
17.009497869018204596614 1651.61708221032404253 17.009497869018204596614 336.33612065519025691
18.009497869018190385759 1667.99953298683681169 18.009497869018190385759 337.52692028384171863
19.009497869018204596614 1683.41761186155963514 19.009497869018204596614 338.59602733867467350
20.009497869018190385759 1697.96750493352033118 20.009497869018190385759 339.60577060743378297
21.009497869018190385759 1711.73113003362050222 21.009497869018190385759 340.56212759223365083
22.009497869018204596614 1724.77860663985984502 22.009497869018204596614 341.48397558894197346
23.009497869018190385759 1737.17737931540978025 23.009497869018190385759 342.39085008825577461
24.009497869018204596614 1748.98407296279219736 24.009497869018204596614 343.25139083226611092
25.009497869018204596614 1760.24718812081528085 25.009497869018204596614 344.08173161083033165
26.009497869018190385759 1771.00924832912482998 26.009497869018190385759 344.85231311064768533
27.009497869018204596614 1781.30903778209858501 27.009497869018204596614 345.56068045771144170
28.009497869018190385759 1791.17746332607566728 28.009497869018190385759 346.21840113360616442
29.009497869018190385759 1800.63990455824637138 29.009497869018190385759 346.84295973267876434
30.009497869018190385759 1809.72351937797884602 30.009497869018190385759 347.43174460204238585
31.009497869018218807469 1818.45505562821858803 31.009497869018218807469 347.97293129526781286
32.009497869018190385759 1826.85766861037564013 32.009497869018190385759 348.48092521513973452
33.009497869018190385759 1834.95229323994499282 33.009497869018190385759 349.00000782218165796
34.009497869018218807469 1842.75864814573787953 34.009497869018218807469 349.48746131715120100
35.009497869018190385759 1850.29344428071976836 35.009497869018190385759 349.95898428169363115
36.009497869018190385759 1857.57219935732564409 36.009497869018190385759 350.41977713051392129
37.009497869018190385759 1864.60932246518973443 37.009497869018190385759 350.86413868789207982
38.009497869018218807469 1871.41754755776673846 38.009497869018218807469 351.29209008862272867
39.009497869018190385759 1878.00881768441354325 39.009497869018190385759 351.69642362438173677
40.009497869018190385759 1884.39421947876576269 40.009497869018190385759 352.07498333028757997
41.009497869018218807469 1890.58417306659976020 41.009497869018218807469 352.45145457514132659
42.009497869018190385759 1896.58823370632967453 42.009497869018190385759 352.80770210806463183
43.009497869018190385759 1902.41526958638746692 43.009497869018190385759 353.14983161574855330
44.009497869018218807469 1908.07395544958103528 44.009497869018218807469 353.47492201346966567
46.009497869018190385759 1918.91759327243130429 46.009497869018190385759 354.09096882407226303
48.009497869018218807469 1929.17617448331407104 48.009497869018218807469 354.66827901624787955
50.009497869018190385759 1938.89914472431837567 50.009497869018190385759 355.20926399573153276
52.009497869018190385759 1948.13055959439884646 52.009497869018190385759 355.71846364982150135
54.009497869018218807469 1956.90954712493157786 54.009497869018218807469 356.19928439960415290
56.009497869018190385759 1965.27115149785367976 56.009497869018190385759 356.65002801826329915
58.009497869018218807469 1973.24638166568865927 58.009497869018218807469 357.06647117575528227
60.009497869018190385759 1980.86317190756267337 60.009497869018190385759 357.46674570940592730
62.009497869018190385759 1988.14668109742547131 62.009497869018190385759 357.84550549246097262
64.009497869018218807469 1995.11963147900314652 64.009497869018218807469 358.20303992073314703
66.009497869018190385759 2001.80255493377558196 66.009497869018190385759 358.53156788710964520
68.009497869018190385759 2008.21403199210021739 68.009497869018190385759 358.83963346106037307
70.009497869018190385759 2014.37125853365159855 70.009497869018190385759 359.13789853706100530
72.009497869018190385759 2020.28992383150625756 72.009497869018190385759 359.41944368662007037
74.009497869018218807469 2025.98437318460833012 74.009497869018218807469 359.68860265596919135
76.009497869018190385759 2031.46749662979368622 76.009497869018190385759 359.94446310758735308
78.009497869018190385759 2036.75110749293639856 78.009497869018190385759 360.18264262555049982
80.009497869018218807469 2041.84632295643768884 80.009497869018218807469 360.41879920327397713
82.009497869018190385759 2046.76383231461591095 82.009497869018190385759 360.65148327263705141
84.009497869018218807469 2051.51335922452335581 84.009497869018218807469 360.86817367359100217
86.009497869018190385759 2056.10386767258478358 86.009497869018190385759 361.07724909076586073
88.009497869018190385759 2060.54341943142981108 88.009497869018190385759 361.27936404380955082
91.009497869018218807469 2066.93606280095718830 91.009497869018218807469 361.57476629918511435
94.009497869018218807469 2073.02952306267525273 94.009497869018218807469 361.87112063304743970
97.009497869018218807469 2078.84577834601122959 97.009497869018218807469 362.19263448227837898
99.504748934509137825444 2083.48711759822708700 99.504748934509137825444 362.31091918988158795
nan nan nan nan

