Time Pressure difference Time.1 Pressure.1 difference.1
(hr) (psi) (hr) (psi)
0.000200000000020850166 0.43274120333845834 0.000200000000020850166 0.34547764722969387
0.000399999999999067768 0.86426363155486308 0.000399999999999067768 0.89963648003127361
0.000600000000019917934 1.29475079416688033 0.000600000000019917934 1.31407735764449973
0.000799999999998135536 1.72429435820697297 0.000799999999998135536 1.73471067795332301
0.001007140329434719206 2.16824491141672704 0.001007140329434719206 2.17493424973076310
0.001267914553977789183 2.72587815303599701 0.001267914553977789183 2.73120993054764316
0.001596209851982166583 3.42599705946613442 0.001596209851982166583 3.42809792192599172
0.002009509145224797066 4.30454950662532099 0.002009509145224797066 4.30031528542089081
0.002529822128153114136 5.40632424887101859 0.002529822128153114136 5.39073783164224007
0.003184857364431081805 6.78701103066802602 0.003184857364431081805 6.75211103761793030
0.004009497869034817086 8.51568382385509537 0.004009497869034817086 8.44902066668457330
0.005047658755856332391 10.67776743712809484 0.005047658755856332391 10.56010337963753543
0.006354625877790454069 13.37853722448789462 0.006354625877790454069 13.18045381987555764
0.008000000000009777068 16.74719181163035842 0.008000000000009777068 16.42412150109877800
0.010071403294361402914 20.94149901693635485 0.010071403294361402914 20.42647071626942079
0.012679145539692626699 26.15294982853157180 0.012679145539692626699 25.34607493820703894
0.015962098519750611558 32.61226842213056898 0.015962098519750611558 31.36570633071228542
0.020095091452091651263 40.59500947097993162 0.020095091452091651263 38.69149873774193793
0.025298221281360611101 50.42666459442903459 0.025298221281360611101 47.54941807048759728
0.031848573644296607199 62.48660807651521765 0.031848573644296607199 58.17775226630848806
0.040094978690191851456 77.20970783623232592 0.040094978690191851456 70.81368944518769126
0.050476587558435426217 95.08403922259617502 0.050476587558435426217 85.67242547860918478
0.063546258777947173257 116.64280674665776871 0.063546258777947173257 102.91709421712047856
0.080000000000012505552 142.44812356978994217 0.080000000000012505552 122.61881055786453487
0.100714032943542974863 173.06442814645740214 0.100714032943542974863 144.70559479778918899
0.126791455396883634421 209.01862886216878223 0.126791455396883634421 168.91008140858588149
0.159620985197506115583 250.74932976107379545 0.159620985197506115583 194.71411707882660380
0.200950914520774404082 298.54139072746323791 0.200950914520774404082 221.32196597046075226
0.252982212813464002465 352.46280439129424167 0.252982212813464002465 247.66489470562487440
0.318485736442809752589 412.30147856592498101 0.318485736442809752589 272.46633724893712269
0.400949786901833249431 477.53234899750606246 0.400949786901833249431 294.39574914996450161
0.504765875584169521062 547.32530754217611957 0.504765875584169521062 312.25838770813845713
0.635462587779443310865 620.59999936744134175 0.635462587779443310865 325.22892755652071628
0.800000000000011368684 696.14133115691549847 0.800000000000011368684 333.04343621327291203
1.007140329435344483500 772.74220283274166832 1.007140329435344483500 336.05679666602185307
1.267914553968907398485 849.34442562466858817 1.267914553968907398485 335.19272390183272137
1.596209851975117999245 925.15665294787368111 1.596209851975117999245 331.73063467133800941
2.009509145207687197399 999.69521997654169354 2.009509145207687197399 327.03499774463534777
2.529822128134725289783 1072.77540205510535998 2.529822128134725289783 322.37399453673168637
3.184857364427983839050 1144.46635912533588453 3.184857364427983839050 318.67889054418157002
4.009497869018204596614 1214.97110295716606743 4.009497869018204596614 316.49496916745869157
5.009497869018190385759 1282.28013423154857264 5.009497869018190385759 316.01169846397124275
6.009497869018190385759 1336.82277691548301846 6.009497869018190385759 316.80637803639928052
7.009497869018204596614 1382.69355065840090901 7.009497869018204596614 318.25737591274486249
8.009497869018190385759 1422.27163805627037618 8.009497869018190385759 319.99695308079247980
9.009497869018204596614 1457.06298534307597947 9.009497869018204596614 321.86503045446733040
10.009497869018190385759 1488.08291717783617969 10.009497869018190385759 323.74813567841209760
11.009497869018190385759 1516.04994356303677705 11.009497869018190385759 325.50283092505384275
12.009497869018204596614 1541.49176378118227149 12.009497869018204596614 327.18949405139835562
13.009497869018190385759 1564.80622224616399762 13.009497869018190385759 328.79651042340424283
14.009497869018204596614 1586.30633529627630196 14.009497869018204596614 330.31978097687562013
15.009497869018190385759 1606.23848661938836813 15.009497869018190385759 331.77100657053563282
16.009497869018190385759 1624.80224414215922479 16.009497869018190385759 333.14082916269109091
17.009497869018204596614 1642.16125922057017306 17.009497869018204596614 334.41053217815675680
18.009497869018190385759 1658.44991733996562289 18.009497869018190385759 335.59451425168231253
19.009497869018204596614 1673.77972477074922608 19.009497869018204596614 336.65750046459828582
20.009497869018190385759 1688.24631692817592921 20.009497869018190385759 337.66146276044463548
21.009497869018190385759 1701.93114264793166512 21.009497869018190385759 338.61234441899568992
22.009497869018204596614 1714.90391996062385260 22.009497869018204596614 339.52891465999761067
23.009497869018190385759 1727.23170729642856713 23.009497869018190385759 340.43059712973524711
24.009497869018204596614 1738.97080536949374618 24.009497869018204596614 341.28621111376077124
25.009497869018204596614 1750.16943704378741131 25.009497869018204596614 342.11179803290571044
26.009497869018190385759 1760.86988240357641189 26.009497869018190385759 342.87796780657913587
27.009497869018204596614 1771.11070359632321924 27.009497869018204596614 343.58227961539625994
28.009497869018190385759 1780.92263052077350949 28.009497869018190385759 344.23623471490230941
29.009497869018190385759 1790.33089747108101619 29.009497869018190385759 344.85721759680467358
30.009497869018190385759 1799.36250686245602992 30.009497869018190385759 345.44263156042762830
31.009497869018218807469 1808.04405340133939717 31.009497869018218807469 345.98071985655445815
32.009497869018190385759 1816.39855982062158546 32.009497869018190385759 346.48580541428970037
33.009497869018190385759 1824.44684117941096702 33.009497869018190385759 347.00191617434472846
34.009497869018218807469 1832.20850321360580892 34.009497869018218807469 347.48657890503011458
35.009497869018190385759 1839.70016120277659866 35.009497869018190385759 347.95540231061528402
36.009497869018190385759 1846.93724401749364006 36.009497869018190385759 348.41355703243846165
37.009497869018190385759 1853.93407825260283062 37.009497869018190385759 348.85537453509880379
38.009497869018218807469 1860.70332495724528599 38.009497869018218807469 349.28087583239016567
39.009497869018190385759 1867.25685880454079779 39.009497869018190385759 349.68289448149408827
40.009497869018190385759 1873.60570295503248417 40.009497869018190385759 350.05928686083939283
41.009497869018218807469 1879.76021787728700474 41.009497869018218807469 350.43360273597068044
42.009497869018190385759 1885.72990412404146809 42.009497869018190385759 350.78781068378179953
43.009497869018190385759 1891.52357911165631776 43.009497869018190385759 351.12798143474236667
44.009497869018218807469 1897.14986791838123281 44.009497869018218807469 351.45121062789638700
46.009497869018190385759 1907.93142384529937772 46.009497869018190385759 352.06373045294208168
48.009497869018218807469 1918.13127272100473419 48.009497869018218807469 352.63773543409376998
50.009497869018190385759 1927.79857710185092401 50.009497869018190385759 353.17562317132848193
52.009497869018190385759 1936.97714036007960203 52.009497869018190385759 353.68190756022329424
54.009497869018218807469 1945.70586651162102498 54.009497869018218807469 354.15997551945372379
56.009497869018190385759 1954.01959910378195673 56.009497869018190385759 354.60813854487628305
58.009497869018218807469 1961.94916955691564908 58.009497869018218807469 355.02219748581774184
60.009497869018190385759 1969.52235222106924084 60.009497869018190385759 355.42018037137495412
62.009497869018190385759 1976.76416193083741746 62.009497869018190385759 355.79677168238964668
64.009497869018218807469 1983.69719084076427862 64.009497869018218807469 356.15225915782821176
66.009497869018190385759 1990.34185328339140142 66.009497869018190385759 356.47890623890100414
68.009497869018190385759 1996.71662341199294133 68.009497869018190385759 356.78520807864970266
70.009497869018190385759 2002.83859865655040267 70.009497869018190385759 357.08176553016943444
72.009497869018190385759 2008.72337846605842060 72.009497869018190385759 357.36169878001726374
74.009497869018218807469 2014.38522600988744671 74.009497869018218807469 357.62931676290065752
76.009497869018190385759 2019.83695752695120973 76.009497869018190385759 357.88371236460500313
78.009497869018190385759 2025.09031870958006039 78.009497869018190385759 358.12052825937365697
80.009497869018218807469 2030.15636309218302813 80.009497869018218807469 358.35533279562162079
82.009497869018190385759 2035.04571877082980791 82.009497869018190385759 358.58668470428222008
84.009497869018218807469 2039.76805373278011757 84.009497869018218807469 358.80213451133761282
86.009497869018190385759 2044.33228064392460510 86.009497869018190385759 359.01001293184930319
88.009497869018190385759 2048.74641512170774149 88.009497869018190385759 359.21097073821516688
91.009497869018218807469 2055.10245938797470444 91.009497869018218807469 359.50468175930427606
94.009497869018218807469 2061.16103342682072253 94.009497869018218807469 359.79933940804909298
97.009497869018218807469 2066.94398953868676472 97.009497869018218807469 360.11901252913560256
99.504748934509137825444 2071.55875623793144769 99.504748934509137825444 360.23662003421435429
nan nan nan nan

