Time Pressure difference Time.1 Pressure.1 difference.1
(hr) (psi) (hr) (psi)
0.000200000000020850166 0.40283969984482204 0.000200000000020850166 0.32160587122150008
0.000399999999999067768 0.80454483935529475 0.000399999999999067768 0.83747349868554266
0.000600000000019917934 1.20528624792886196 0.000600000000019917934 1.22327738667482233
0.000799999999998135536 1.60514925859958146 0.000799999999998135536 1.61484583264368831
0.001007140329434719206 2.01842376590616635 0.001007140329434719206 2.02465088506606561
0.001267914553977789183 2.53752572787420094 0.001267914553977789183 2.54248909081690444
0.001596209851982166583 3.18926789604812910 0.001596209851982166583 3.19122359334761185
0.002009509145224797066 4.00711422401781281 0.002009509145224797066 4.00317257855879483
0.002529822128153114136 5.03275865777820464 0.002529822128153114136 5.01824922907195070
0.003184857364431081805 6.31804289803069619 0.003184857364431081805 6.28555442081515636
0.004009497869034817086 7.92726805099754728 0.004009497869034817086 7.86521117723995911
0.005047658755856332391 9.93995625145321604 0.005047658755856332391 9.83042253190826187
0.006354625877790454069 12.45410854870754136 0.006354625877790454069 12.26971228913559564
0.008000000000009777068 15.58999621620100484 0.008000000000009777068 15.28924938202093564
0.010071403294361402914 19.49448564916340132 0.010071403294361402914 19.01504471668074814
0.012679145539692626699 24.34583621274052234 0.012679145539692626699 23.59471467376278753
0.015962098519750611558 30.35882952923862632 0.015962098519750611558 29.19840224644041982
0.020095091452091651263 37.78998002576826565 0.020095091452091651263 36.01799786526841274
0.025298221281360611101 46.94228853800015600 0.025298221281360611101 44.26385367406235360
0.031848573644296607199 58.16891538792682326 0.031848573644296607199 54.15779241681308065
0.040094978690191851456 71.87468003948690409 0.040094978690191851456 65.92061301519392202
0.050476587558435426217 88.51393286556456985 0.050476587558435426217 79.75264176031757302
0.063546258777947173257 108.58303507126493059 0.063546258777947173257 95.80574029808720127
0.080000000000012505552 132.60525898531309963 0.080000000000012505552 114.14610963639981378
0.100714032943542974863 161.10604155668298176 0.100714032943542974863 134.70674371771161759
0.126791455396883634421 194.57588291391911639 0.126791455396883634421 157.23875140722483934
0.159620985197506115583 233.42308048775583984 0.159620985197506115583 181.25978269334146376
0.200950914520774404082 277.91281094591107603 0.200950914520774404082 206.02908540436365570
0.252982212813464002465 328.10836877116645383 0.252982212813464002465 230.55177338239553819
0.318485736442809752589 383.81231689918161010 0.318485736442809752589 253.63948860985513534
0.400949786901833249431 444.53587190746731039 0.400949786901833249431 274.05362444862339544
0.504765875584169521062 509.50628437227527456 0.504765875584169521062 290.68199239625170094
0.635462587779443310865 577.71784969905763774 0.635462587779443310865 302.75629532612776984
0.800000000000011368684 648.03943495413432174 0.800000000000011368684 310.03083793366096188
1.007140329435344483500 719.34734812644865087 1.007140329435344483500 312.83598154130629609
1.267914553968907398485 790.65651905559354873 1.267914553968907398485 312.03161438078478795
1.596209851975117999245 861.23028153496875348 1.596209851975117999245 308.80874820652383050
2.009509145207687197399 930.61839095704931424 2.009509145207687197399 304.43756987744365006
2.529822128134725289783 998.64888674995427209 2.529822128134725289783 300.09863215031651862
3.184857364427983839050 1065.38615004949679133 3.184857364427983839050 296.65885204208836967
4.009497869018204596614 1131.01916494093188703 4.009497869018204596614 294.62583502153063364
5.009497869018190385759 1193.67728426545295406 5.009497869018190385759 294.17595730331294135
6.009497869018190385759 1244.45114549713866836 6.009497869018190385759 294.91572619511265430
7.009497869018204596614 1287.15234562250384442 7.009497869018204596614 296.26646318172993233
8.009497869018190385759 1323.99567074336118822 8.009497869018190385759 297.88583924027710736
9.009497869018204596614 1356.38300938846805366 9.009497869018204596614 299.62483641154824454
10.009497869018190385759 1385.25952942658454958 10.009497869018190385759 301.37782304036443293
11.009497869018190385759 1411.29409333603234700 11.009497869018190385759 303.01127255019412132
12.009497869018204596614 1434.97793749303900768 12.009497869018204596614 304.58139081560119621
13.009497869018190385759 1456.68141610247516837 13.009497869018190385759 306.07736574923433182
14.009497869018204596614 1476.69591673453760450 14.009497869018204596614 307.49538152357905574
15.009497869018190385759 1495.25079848445943753 15.009497869018190385759 308.84633049272508742
16.009497869018190385759 1512.53183955652048098 16.009497869018190385759 310.12150123590242856
17.009497869018204596614 1528.69138334352487618 17.009497869018204596614 311.30347045375430071
18.009497869018190385759 1543.85452957751112990 18.009497869018190385759 312.40564186576949623
19.009497869018204596614 1558.12507968102363520 19.009497869018204596614 313.39517797568169044
20.009497869018190385759 1571.59206086404083180 20.009497869018190385759 314.32976859657514979
21.009497869018190385759 1584.33129401966766636 21.009497869018190385759 315.21494634013993164
22.009497869018204596614 1596.40767980979376262 22.009497869018204596614 316.06818351266576883
23.009497869018190385759 1607.88364306865241815 23.009497869018190385759 316.90756162748863289
24.009497869018204596614 1618.81159424991255946 24.009497869018204596614 317.70405449169669510
25.009497869018204596614 1629.23642411945684216 25.009497869018204596614 318.47259509781054021
26.009497869018190385759 1639.19749129699516743 26.009497869018190385759 319.18582415775597383
27.009497869018204596614 1648.73069336701860266 27.009497869018204596614 319.84146950761459038
28.009497869018190385759 1657.86463685715011707 28.009497869018190385759 320.45023769045604922
29.009497869018190385759 1666.62281242509448020 29.009497869018190385759 321.02831196631524335
30.009497869018190385759 1675.03035667618269144 30.009497869018190385759 321.57327506105065140
31.009497869018218807469 1683.11202667879001638 31.009497869018218807469 322.07418259199403110
32.009497869018190385759 1690.88925434357315680 32.009497869018190385759 322.54436780408929053
33.009497869018190385759 1698.38141645300242999 33.009497869018190385759 323.02481640030168819
34.009497869018218807469 1705.60676402802073426 34.009497869018218807469 323.47598995957696388
35.009497869018190385759 1712.58076426746015386 35.009497869018190385759 323.91241865767449326
36.009497869018190385759 1719.31777993950936434 36.009497869018190385759 324.33891585553288905
37.009497869018190385759 1725.83114770155930273 37.009497869018190385759 324.75020470157954833
38.009497869018218807469 1732.13265375098626464 38.009497869018218807469 325.14630475759923911
39.009497869018190385759 1738.23335224606967131 39.009497869018190385759 325.52054476684185147
40.009497869018190385759 1744.14350467023177771 40.009497869018190385759 325.87092922746086288
41.009497869018218807469 1749.87275560553598552 41.009497869018218807469 326.21938066592281302
42.009497869018190385759 1755.42994913658367295 42.009497869018190385759 326.54911359238809609
43.009497869018190385759 1760.82329341488161845 43.009497869018190385759 326.86577926266807026
44.009497869018218807469 1766.06081754398223893 44.009497869018218807469 327.16667400101681551
46.009497869018190385759 1776.09739071971239355 46.009497869018190385759 327.73686999937984865
48.009497869018218807469 1785.59245157329633003 48.009497869018218807469 328.27121244824473933
50.009497869018190385759 1794.59176563224127676 50.009497869018190385759 328.77193327849198567
52.009497869018190385759 1803.13610954825071531 52.009497869018190385759 329.24323448504469525
54.009497869018218807469 1811.26169915189302628 54.009497869018218807469 329.68826895764885876
56.009497869018190385759 1819.00097037492173513 56.009497869018190385759 330.10546486423220358
58.009497869018218807469 1826.38262425163907210 58.009497869018218807469 330.49091320656742710
60.009497869018190385759 1833.43251598314486728 60.009497869018190385759 330.86139631500356018
62.009497869018190385759 1840.17393193177736066 62.009497869018190385759 331.21196596153350811
64.009497869018218807469 1846.62790318190172911 64.009497869018218807469 331.54289000296864742
66.009497869018190385759 1852.81343347878078021 66.009497869018190385759 331.84696646039731149
68.009497869018190385759 1858.74772045070358217 68.009497869018190385759 332.13210348972194197
70.009497869018190385759 1864.44668013133787099 70.009497869018190385759 332.40816944747058415
72.009497869018190385759 1869.92483408068778772 72.009497869018190385759 332.66875990078386849
74.009497869018218807469 1875.19545991323479939 74.009497869018218807469 332.91788604607836533
76.009497869018190385759 1880.27048829284331077 76.009497869018190385759 333.15470344881657638
78.009497869018190385759 1885.16085330930195596 78.009497869018190385759 333.37515586525182698
80.009497869018218807469 1889.87684472113005540 80.009497869018218807469 333.59373590379368579
82.009497869018190385759 1894.42835624539839046 82.009497869018190385759 333.80910188402475569
84.009497869018218807469 1898.82438783185853026 84.009497869018218807469 334.00966456429705431
86.009497869018190385759 1903.07323630000655612 86.009497869018190385759 334.20317902485010109
88.009497869018190385759 1907.18236340504449799 88.009497869018190385759 334.39025107108324164
91.009497869018218807469 1913.09921843218376125 91.009497869018218807469 334.66366728073433023
94.009497869018218807469 1918.73915779656044833 94.009497869018218807469 334.93796470806870502
97.009497869018218807469 1924.12252385079295891 97.009497869018218807469 335.23554909142183078
99.504748934509137825444 1928.41841991438923287 99.504748934509137825444 335.34503016620720928
nan nan nan nan

