Time Pressure difference Time.1 Pressure.1 difference.1
(hr) (psi) (hr) (psi)
0.000200000000020850166 0.41446806231456945 0.000200000000020850166 0.33088933966913103
0.000399999999999067768 0.82776881409957137 0.000399999999999067768 0.86164799143110471
0.000600000000019917934 1.24007801591031352 0.000600000000019917934 1.25858848649636346
0.000799999999998135536 1.65148346400245583 0.000799999999998135536 1.66145993915299073
0.001007140329434719206 2.07668754471582861 0.001007140329434719206 2.08309441576900323
0.001267914553977789183 2.61077389321489939 0.001267914553977789183 2.61588052848996933
0.001596209851982166583 3.28132923737735327 0.001596209851982166583 3.28334138779475948
0.002009509145224797066 4.12278350058739917 0.002009509145224797066 4.11872807567183230
0.002529822128153114136 5.17803416542540962 0.002529822128153114136 5.16310590784928536
0.003184857364431081805 6.50041939405632441 0.003184857364431081805 6.46699310512734638
0.004009497869034817086 8.15609640710881578 0.004009497869034817086 8.09224820091286468
0.005047658755856332391 10.22688282366011414 0.005047658755856332391 10.11418730602520100
0.006354625877790454069 12.81360858928879054 0.006354625877790454069 12.62388955109002531
0.008000000000009777068 16.04001672553464175 0.008000000000009777068 15.73058853944009527
0.010071403294361402914 20.05721306996399633 0.010071403294361402914 19.56393260540967916
0.012679145539692626699 25.04860261888148543 0.012679145539692626699 24.27579922104666466
0.015962098519750611558 31.23516687647438417 0.015962098519750611558 30.04124272365725901
0.020095091452091651263 38.88082481001724489 0.020095091452091651263 37.05769264900811777
0.025298221281360611101 48.29732367105582824 0.025298221281360611101 45.54157316156106106
0.031848573644296607199 59.84801810015564172 0.031848573644296607199 55.72111013606129148
0.040094978690191851456 73.94941307155457366 0.040094978690191851456 67.82347607130260769
0.050476587558435426217 91.06897422663242025 0.050476587558435426217 82.05477987298652920
0.063546258777947173257 111.71739072280658434 0.063546258777947173257 98.57126682215569247
0.080000000000012505552 136.43303965705410974 0.080000000000012505552 117.44104888363609973
0.100714032943542974863 165.75652523048412945 0.100714032943542974863 138.59518580440845881
0.126791455396883634421 200.19250633823841667 0.126791455396883634421 161.77760196330967801
0.159620985197506115583 240.16106631626837498 0.159620985197506115583 186.49202384325235471
0.200950914520774404082 285.93503641651466296 0.200950914520774404082 211.97631673562364085
0.252982212813464002465 337.57953817899391424 0.252982212813464002465 237.20687611920695304
0.318485736442809752589 394.89143532513736545 0.318485736442809752589 260.96104085838703668
0.400949786901833249431 457.36783522026013316 0.400949786901833249431 281.96445072136714316
0.504765875584169521062 524.21368227168113663 0.504765875584169521062 299.07281279531878226
0.635462587779443310865 594.39424123676246836 0.635462587779443310865 311.49565230461388410
0.800000000000011368684 666.74572792188257608 0.800000000000011368684 318.98018170906556179
1.007140329435344483500 740.11201384556261473 1.007140329435344483500 321.86629853425120018
1.267914553968907398485 813.47959383245608933 1.267914553968907398485 321.03871252785899060
1.596209851975117999245 886.09053708443184405 1.596209851975117999245 317.72281516506268417
2.009509145207687197399 957.48160224240734806 2.009509145207687197399 313.22545849246267835
2.529822128134725289783 1027.47586492417963200 2.529822128134725289783 308.76127307836685532
3.184857364427983839050 1096.13956469010076944 3.184857364427983839050 305.22220034845798864
4.009497869018204596614 1163.66714083613419461 4.009497869018204596614 303.13049830050260880
5.009497869018190385759 1228.13394814115690679 5.009497869018190385759 302.66763442134674733
6.009497869018190385759 1280.37344660427265808 6.009497869018190385759 303.42875746672410742
7.009497869018204596614 1324.30725869201933165 7.009497869018204596614 304.81848479934683382
8.009497869018190385759 1362.21410247615926892 8.009497869018190385759 306.48460573381089489
9.009497869018204596614 1395.53633337081555510 9.009497869018204596614 308.27380076157237454
10.009497869018190385759 1425.24640244096030983 10.009497869018190385759 310.07738906627184861
11.009497869018190385759 1452.03247953542290816 11.009497869018190385759 311.75798969597286714
12.009497869018204596614 1476.39998104953929214 12.009497869018204596614 313.37343096285565025
13.009497869018190385759 1498.72995182502063471 13.009497869018190385759 314.91258867807817978
14.009497869018204596614 1519.32219061965793117 14.009497869018204596614 316.37153686652766282
15.009497869018190385759 1538.41267720359837767 15.009497869018190385759 317.76148230076250911
16.009497869018190385759 1556.19255245093563644 16.009497869018190385759 319.07346209632027012
17.009497869018204596614 1572.81855729570929725 17.009497869018204596614 320.28955001324413843
18.009497869018190385759 1588.41940259624357168 18.009497869018190385759 321.42353668251337240
19.009497869018204596614 1603.10188610480577154 19.009497869018204596614 322.44163672137148069
20.009497869018190385759 1616.95760488898235963 20.009497869018190385759 323.40320521585772440
21.009497869018190385759 1630.06456848621496647 21.009497869018190385759 324.31393448191715834
22.009497869018204596614 1642.48955097956104510 22.009497869018204596614 325.19180118107260569
23.009497869018190385759 1654.29677915723186743 23.009497869018190385759 326.05540876725120825
24.009497869018204596614 1665.54017635197192249 24.009497869018204596614 326.87489317805489009
25.009497869018204596614 1676.26592914558545999 25.009497869018204596614 327.66561846145867776
26.009497869018190385759 1686.51453228288801256 26.009497869018190385759 328.39943557674274643
27.009497869018204596614 1696.32291956730387028 27.009497869018204596614 329.07400677175189685
28.009497869018190385759 1705.72052328189261061 28.009497869018190385759 329.70034764440737263
29.009497869018190385759 1714.73151216520045637 29.009497869018190385759 330.29510860039442832
30.009497869018190385759 1723.38174841528893921 30.009497869018190385759 330.85580258858618663
31.009497869018218807469 1731.69670373755911896 31.009497869018218807469 331.37116930598972431
32.009497869018190385759 1739.69842869575859368 32.009497869018190385759 331.85492687472276430
33.009497869018190385759 1747.40685940216121708 33.009497869018190385759 332.34924409020732128
34.009497869018218807469 1754.84077371130365464 34.009497869018218807469 332.81344121614205278
35.009497869018190385759 1762.01608529786085455 35.009497869018190385759 333.26246785604030265
36.009497869018190385759 1768.94757152539204981 36.009497869018190385759 333.70127631321838635
37.009497869018190385759 1775.64895402696492965 37.009497869018190385759 334.12443741461481750
38.009497869018218807469 1782.13235922008698253 38.009497869018218807469 334.53197128668460891
39.009497869018190385759 1788.40916035214195290 39.009497869018190385759 334.91701410031771502
40.009497869018190385759 1794.48991511432086554 40.009497869018190385759 335.27751275155247868
41.009497869018218807469 1800.38454648899482891 41.009497869018218807469 335.63602258205253293
42.009497869018190385759 1806.10215385392848475 42.009497869018190385759 335.97527357237453316
43.009497869018190385759 1811.65118229696054186 43.009497869018190385759 336.30108010736364577
44.009497869018218807469 1817.03989268958184766 44.009497869018218807469 336.61066046702552512
46.009497869018190385759 1827.36618137966274844 46.009497869018190385759 337.19731573132071389
48.009497869018218807469 1837.13532646407179527 48.009497869018218807469 337.74708249829717488
50.009497869018190385759 1846.39441453708946028 50.009497869018190385759 338.26225712570624182
52.009497869018190385759 1855.18539930840643137 52.009497869018190385759 338.74716290316973755
54.009497869018218807469 1863.54554201400947022 54.009497869018218807469 339.20504373168409984
56.009497869018190385759 1871.50821488058977593 56.009497869018190385759 339.63428240670486957
58.009497869018218807469 1879.10294742591327122 58.009497869018218807469 340.03085709294254002
60.009497869018190385759 1886.35634118678217419 60.009497869018190385759 340.41203455914796905
62.009497869018190385759 1893.29235470918956707 62.009497869018190385759 340.77272374186645720
64.009497869018218807469 1899.93262616034826351 64.009497869018218807469 341.11320022985847800
66.009497869018190385759 1906.29670784724044097 66.009497869018190385759 341.42605415203763641
68.009497869018190385759 1912.40229382453844664 68.009497869018190385759 341.71942194097164247
70.009497869018190385759 1918.26575955780958793 70.009497869018190385759 342.00345681296460043
72.009497869018190385759 1923.90204578610973840 72.009497869018190385759 342.27156946493016676
74.009497869018218807469 1929.32481339526634656 74.009497869018218807469 342.52788688039811404
76.009497869018190385759 1934.54633743944077651 76.009497869018190385759 342.77154024940097088
78.009497869018190385759 1939.57786763163221622 78.009497869018190385759 342.99835624074370344
80.009497869018218807469 1944.42999075431748679 80.009497869018218807469 343.22324580617123502
82.009497869018190385759 1949.11288611639974988 82.009497869018190385759 343.44482853634713138
84.009497869018218807469 1953.63581345999455152 84.009497869018218807469 343.65118065481277654
86.009497869018190385759 1958.00730910041897914 86.009497869018190385759 343.85028109979424471
88.009497869018190385759 1962.23505018374680731 88.009497869018190385759 344.04275316385673023
91.009497869018218807469 1968.32270102610254980 91.009497869018218807469 344.32406180017818542
94.009497869018218807469 1974.12544276388371145 94.009497869018218807469 344.60627709139441777
97.009497869018218807469 1979.66420495164038584 97.009497869018218807469 344.91245153942162460
99.504748934509137825444 1984.08410626243357910 99.504748934509137825444 345.02509289265441339
nan nan nan nan

