Time Pressure difference Time.1 Pressure.1 difference.1
(hr) (psi) (hr) (psi)
0.000200000000020850166 0.40200910252555438 0.000200000000020850166 0.32094276633238361
0.000399999999999067768 0.80288598401641798 0.000399999999999067768 0.83574674920371672
0.000600000000019917934 1.20280112164447250 0.000600000000019917934 1.22075516525899808
0.000799999999998135536 1.60183967249937598 0.000799999999998135536 1.61151625360730955
0.001007140329434719206 2.01426206741976177 0.001007140329434719206 2.02047634715871283
0.001267914553977789183 2.53229371606415032 0.001267914553977789183 2.53724684526882793
0.001596209851982166583 3.18269208595318442 0.001596209851982166583 3.18464375088710128
0.002009509145224797066 3.99885213283427099 0.002009509145224797066 3.99491861447929253
0.002529822128153114136 5.02238183580340358 0.002529822128153114136 5.00790232344499842
0.003184857364431081805 6.30501600545743734 0.003184857364431081805 6.27259451479285701
0.004009497869034817086 7.91092316841816956 0.004009497869034817086 7.84899424697760839
0.005047658755856332391 9.91946149629558072 0.005047658755856332391 9.81015361947133790
0.006354625877790454069 12.42842997438030928 0.006354625877790454069 12.24441391328170781
0.008000000000009777068 15.55785189410574176 0.008000000000009777068 15.25772515649099681
0.010071403294361402914 19.45429083339192999 0.010071403294361402914 18.97583843891439770
0.012679145539692626699 24.29563861230187882 0.012679145539692626699 23.54606577752822716
0.015962098519750611558 30.29623400443607295 0.015962098519750611558 29.13819935521064508
0.020095091452091651263 37.71206254117905132 0.020095091452091651263 35.94373395214414302
0.025298221281360611101 46.84550031421046157 0.025298221281360611101 44.17258799638388211
0.031848573644296607199 58.04897947991048568 0.031848573644296607199 54.04612686543821098
0.040094978690191851456 71.72648482291063488 0.040094978690191851456 65.78469422547186696
0.050476587558435426217 88.33142991120259069 0.050476587558435426217 79.58820332369836592
0.063546258777947173257 108.35915252472622683 0.063546258777947173257 95.60820268922515197
0.080000000000012505552 132.33184608018873973 0.080000000000012505552 113.91075683302580046
0.100714032943542974863 160.77386415141145903 0.100714032943542974863 134.42899785437612081
0.126791455396883634421 194.17469552646772968 0.126791455396883634421 156.91454779607593650
0.159620985197506115583 232.94179578571925049 0.159620985197506115583 180.88605118263353688
0.200950914520774404082 277.33979484086790990 0.200950914520774404082 205.60428316641653623
0.252982212813464002465 327.43185667060737387 0.252982212813464002465 230.07640890119472488
0.318485736442809752589 383.02095129732765599 0.318485736442809752589 253.11652059210285870
0.400949786901833249431 443.61930309941061523 0.400949786901833249431 273.48856542914165857
0.504765875584169521062 508.45575595088905629 0.504765875584169521062 290.08264808203267648
0.635462587779443310865 576.52667887493589660 0.635462587779443310865 302.13205554195013747
0.800000000000011368684 646.70327117072372403 0.800000000000011368684 309.39159909256062519
1.007140329435344483500 717.86415771794042939 1.007140329435344483500 312.19095889895311302
1.267914553968907398485 789.02629942867486079 1.267914553968907398485 311.38825022742236115
1.596209851975117999245 859.45454899572143859 1.596209851975117999245 308.17202913805675735
2.009509145207687197399 928.69959015095230370 2.009509145207687197399 303.80986354779940939
2.529822128134725289783 996.58981688036669766 2.529822128134725289783 299.47987208402713577
3.184857364427983839050 1063.18947757516798447 3.184857364427983839050 296.04718430591913148
4.009497869018204596614 1128.68716666270302085 4.009497869018204596614 294.01835907303262729
5.009497869018190385759 1191.21609398861710361 5.009497869018190385759 293.56940893773912649
6.009497869018190385759 1241.88526684662929256 6.009497869018190385759 294.30765253285466088
7.009497869018204596614 1284.49842326039561158 7.009497869018204596614 295.65560449475725591
8.009497869018190385759 1321.26578276244686094 8.009497869018190385759 297.27164163359611848
9.009497869018204596614 1353.58634338972910882 9.009497869018204596614 299.00705324368942684
10.009497869018190385759 1382.40332421127209273 10.009497869018190385759 300.75642546708536429
11.009497869018190385759 1408.38420860750443353 11.009497869018190385759 302.38650703978129286
12.009497869018204596614 1432.01922009614622766 12.009497869018204596614 303.95338794794014348
13.009497869018190385759 1453.67794926515057341 13.009497869018190385759 305.44627839717401230
14.009497869018204596614 1473.65118288560029214 14.009497869018204596614 306.86137042765409433
15.009497869018190385759 1492.16780714737819835 15.009497869018190385759 308.20953393500809625
16.009497869018190385759 1509.41321720691962582 16.009497869018190385759 309.48207546015834168
17.009497869018204596614 1525.53944234694063198 17.009497869018204596614 310.66160762807652418
18.009497869018190385759 1540.67132436188717293 18.009497869018190385759 311.76150652171639877
19.009497869018204596614 1554.91245065075349885 19.009497869018204596614 312.74900235098954226
20.009497869018190385759 1568.35166486225944027 20.009497869018190385759 313.68166598091215747
21.009497869018190385759 1581.06463155777169050 21.009497869018190385759 314.56501861572729695
22.009497869018204596614 1593.11611758338199252 22.009497869018204596614 315.41649653635096229
23.009497869018190385759 1604.56841906232534711 23.009497869018190385759 316.25414397464845706
24.009497869018204596614 1615.47383838547966661 24.009497869018204596614 317.04899458552819169
25.009497869018204596614 1625.87717376044747652 25.009497869018204596614 317.81595057183568542
26.009497869018190385759 1635.81770265514592211 26.009497869018190385759 318.52770905639977173
27.009497869018204596614 1645.33124863842681407 27.009497869018204596614 319.18200256017615857
28.009497869018190385759 1654.44635925538273113 28.009497869018190385759 319.78951555088809755
29.009497869018190385759 1663.18647672937254356 29.009497869018190385759 320.36639792102391766
30.009497869018190385759 1671.57668583767508608 30.009497869018190385759 320.91023738051245573
31.009497869018218807469 1679.64169260316361942 31.009497869018218807469 321.41011211242289392
32.009497869018190385759 1687.40288474698832033 32.009497869018190385759 321.87932787047253669
33.009497869018190385759 1694.87959909949108805 33.009497869018190385759 322.35878585102273064
34.009497869018218807469 1702.09004905064330160 34.009497869018218807469 322.80902915553662069
35.009497869018190385759 1709.04966990814568817 35.009497869018190385759 323.24455800064839650
36.009497869018190385759 1715.77279482623202966 36.009497869018190385759 323.67017582284103128
37.009497869018190385759 1722.27273296403018321 37.009497869018190385759 324.08061665064843737
38.009497869018218807469 1728.56124621747926540 38.009497869018218807469 324.47590000552173706
39.009497869018190385759 1734.64936595277890774 39.009497869018190385759 324.84936838587930197
40.009497869018190385759 1740.54733249565379083 40.009497869018190385759 325.19903040431142927
41.009497869018218807469 1746.26477054243173370 41.009497869018218807469 325.54676338619924536
42.009497869018190385759 1751.81050594248767993 42.009497869018190385759 325.87581645096042848
43.009497869018190385759 1757.19272992330456873 43.009497869018190385759 326.19182920233265577
44.009497869018218807469 1762.41945503358238057 44.009497869018218807469 326.49210353915907490
46.009497869018190385759 1772.43533424400152398 46.009497869018190385759 327.06112387566980715
48.009497869018218807469 1781.91081765252670266 48.009497869018218807469 327.59436458752668386
50.009497869018190385759 1790.89157642475220200 50.009497869018190385759 328.09405300369098768
52.009497869018190385759 1799.41830313681111875 52.009497869018190385759 328.56438245517864516
54.009497869018218807469 1807.52713894745602374 54.009497869018218807469 329.00849933093206801
56.009497869018190385759 1815.25045291023138816 56.009497869018190385759 329.42483503976990278
58.009497869018218807469 1822.61688688204799291 58.009497869018218807469 329.80948864325489467
60.009497869018190385759 1829.65224275431364731 60.009497869018190385759 330.17920786899321683
62.009497869018190385759 1836.37975887624793359 62.009497869018190385759 330.52905469150971385
64.009497869018218807469 1842.82042296915551560 64.009497869018218807469 330.85929641533368795
66.009497869018190385759 1848.99319959531931090 66.009497869018190385759 331.16274591099443114
68.009497869018190385759 1854.91525092400115682 68.009497869018190385759 331.44729502891840411
70.009497869018190385759 1860.60246017230406324 70.009497869018190385759 331.72279177850668930
72.009497869018190385759 1866.06931895887214523 72.009497869018190385759 331.98284493191624733
74.009497869018218807469 1871.32907752166124737 74.009497869018218807469 332.23145741505550177
76.009497869018190385759 1876.39364192522930352 76.009497869018190385759 332.46778653448910745
78.009497869018190385759 1881.27392371484984324 78.009497869018190385759 332.68778440985960287
80.009497869018218807469 1885.98019143304532008 80.009497869018218807469 332.90591376790956701
82.009497869018190385759 1890.52231839746968944 82.009497869018190385759 333.12083569457314525
84.009497869018218807469 1894.90928600127745085 84.009497869018218807469 333.32098484354588663
86.009497869018190385759 1899.14937395712013313 86.009497869018190385759 333.51410030521122962
88.009497869018190385759 1903.25002863513736884 88.009497869018190385759 333.70078663588509471
91.009497869018218807469 1909.15468396118967576 91.009497869018218807469 333.97363910077399396
94.009497869018218807469 1914.78299458460878668 94.009497869018218807469 334.24737096640257050
97.009497869018218807469 1920.15526091501806150 97.009497869018218807469 334.54434177370751513
99.504748934509137825444 1924.44229946095765627 99.504748934509137825444 334.65359711431813139
nan nan nan nan

