Time Pressure difference Time.1 Pressure.1 difference.1
(hr) (psi) (hr) (psi)
0.000200000000020850166 0.63457635192050321 0.000200000000020850166 0.50661213528500215
0.000399999999999067768 1.26736547890194884 0.000399999999999067768 1.31923660411495791
0.000600000000019917934 1.89863648127350615 0.000600000000019917934 1.92697716168982303
0.000799999999998135536 2.52852378055686655 0.000799999999998135536 2.54379838379335643
0.001007140329434719206 3.17953764361301205 0.001007140329434719206 3.18934696121747230
0.001267914553977789183 3.99725702287812279 0.001267914553977789183 4.00507559873013363
0.001596209851982166583 5.02391891253767131 0.001596209851982166583 5.02699963983005293
0.002009509145224797066 6.31223766422599830 0.002009509145224797066 6.30602855674003937
0.002529822128153114136 7.92789198874752099 0.002529822128153114136 7.90503589899169157
0.003184857364431081805 9.95254592597000354 0.003184857364431081805 9.90136820103665727
0.004009497869034817086 12.48749029064355831 0.004009497869034817086 12.38973472043572777
0.005047658755856332391 15.65799294043352141 0.005047658755856332391 15.48544910181012924
0.006354625877790454069 19.61843078600528401 0.006354625877790454069 19.32795915237029760
0.008000000000009777068 24.55826208077849060 0.008000000000009777068 24.08450830487421612
0.010071403294361402914 30.70883924940379117 0.010071403294361402914 29.95359621349297186
0.012679145539692626699 38.35096673512114762 0.012679145539692626699 37.16775672320571289
0.015962098519750611558 47.82298094915115882 0.015962098519750611558 45.99500889954738625
0.020095091452091651263 59.52895822615866450 0.020095091452091651263 56.73762962693827916
0.025298221281360611101 73.94620297532395625 0.025298221281360611101 69.72697774635801693
0.031848573644296607199 91.63103372448679806 0.031848573644296607199 85.31248125040247032
0.040094978690191851456 113.22114546426391257 0.040094978690191851456 103.84195534764569402
0.050476587558435426217 139.43225713255947085 0.050476587558435426217 125.63096557707758905
0.063546258777947173257 171.04626555555958589 0.063546258777947173257 150.91873317059508963
0.080000000000012505552 208.88745951500865772 0.080000000000012505552 179.80954177775146263
0.100714032943542974863 253.78353762743461175 0.100714032943542974863 212.19783958831274617
0.126791455396883634421 306.50716401285404800 0.126791455396883634421 247.69155891777276679
0.159620985197506115583 367.70151235597006689 0.159620985197506115583 285.53087418085129912
0.200950914520774404082 437.78430425294033057 0.200950914520774404082 324.54890979161615405
0.252982212813464002465 516.85524482715698014 0.252982212813464002465 363.17846363742302174
0.318485736442809752589 604.60331981644276311 0.318485736442809752589 399.54756556274088553
0.400949786901833249431 700.25856935526803682 0.400949786901833249431 431.70509088401701092
0.504765875584169521062 802.60371393900675230 0.504765875584169521062 457.89905606337384825
0.635462587779443310865 910.05450962903091749 0.635462587779443310865 476.91919511167338896
0.800000000000011368684 1020.82913052568801504 0.800000000000011368684 488.37847460065353289
1.007140329435344483500 1133.15747210022004765 1.007140329435344483500 492.79729875785153581
1.267914553968907398485 1245.48779496592464966 1.267914553968907398485 491.53021316890630033
1.596209851975117999245 1356.65965998498154477 1.596209851975117999245 486.45336830883343282
2.009509145207687197399 1465.96381585811491277 2.009509145207687197399 479.56763584817923629
2.529822128134725289783 1573.12938036487616955 2.529822128134725289783 472.73269064503460868
3.184857364427983839050 1678.25777038724868362 3.184857364427983839050 467.31415043331037396
4.009497869018204596614 1781.64668456674644403 4.009497869018204596614 464.11162465247298314
5.009497869018190385759 1880.34937150269320227 5.009497869018190385759 463.40295129841467769
6.009497869018190385759 1960.33128898930726791 6.009497869018190385759 464.56827796508463280
7.009497869018204596614 2027.59668465070694765 7.009497869018204596614 466.69603684709613844
8.009497869018190385759 2085.63441741840824761 8.009497869018190385759 469.24697150427158476
9.009497869018204596614 2136.65282303667981978 9.009497869018204596614 471.98634024417088995
10.009497869018190385759 2182.14078449878479660 10.009497869018190385759 474.74774598523384839
11.009497869018190385759 2223.15193259531679359 11.009497869018190385759 477.32084995535728922
12.009497869018204596614 2260.46009122614805165 12.009497869018204596614 479.79419089302945167
13.009497869018190385759 2294.64866371606376561 13.009497869018190385759 482.15073697405154007
14.009497869018204596614 2326.17666058801387408 14.009497869018204596614 484.38447728662754344
15.009497869018190385759 2355.40538153015859280 15.009497869018190385759 486.51257009575664370
16.009497869018190385759 2382.62747509521977918 16.009497869018190385759 488.52129266851437706
17.009497869018204596614 2408.08292139062541537 17.009497869018204596614 490.38319881787282384
18.009497869018190385759 2431.96878473653259789 18.009497869018190385759 492.11940285659358096
19.009497869018204596614 2454.44857912639599817 19.009497869018204596614 493.67817726478517670
20.009497869018190385759 2475.66254536108681350 20.009497869018190385759 495.15039836656382022
21.009497869018190385759 2495.73012088871382730 21.009497869018190385759 496.54478145127200150
22.009497869018204596614 2514.75354097872696002 22.009497869018204596614 497.88884990448786994
23.009497869018190385759 2532.83114083391865279 23.009497869018190385759 499.21108676989962305
24.009497869018204596614 2550.04548042666647234 24.009497869018204596614 500.46576831269334207
25.009497869018204596614 2566.46727428302074259 25.009497869018204596614 501.67641784479849321
26.009497869018190385759 2582.15852237299895933 26.009497869018190385759 502.79993743613522383
27.009497869018204596614 2597.17577264412830118 27.009497869018204596614 503.83274784292268578
28.009497869018190385759 2611.56408775023237467 28.009497869018190385759 504.79171462991433827
29.009497869018190385759 2625.36047153148911093 29.009497869018190385759 505.70233060260790126
30.009497869018190385759 2638.60452061980095095 30.009497869018190385759 506.56078793122208026
31.009497869018218807469 2651.33523377854726277 31.009497869018218807469 507.34984639233704229
32.009497869018190385759 2663.58637179070046841 32.009497869018190385759 508.09050928314275097
33.009497869018190385759 2675.38845808266796666 33.009497869018190385759 508.84733964913510817
34.009497869018218807469 2686.77024271630489238 34.009497869018218807469 509.55805428683879654
35.009497869018190385759 2697.75609051616402212 35.009497869018190385759 510.24554196796560745
36.009497869018190385759 2708.36862654388687588 36.009497869018190385759 510.91738497655074980
37.009497869018190385759 2718.62885947214726912 37.009497869018190385759 511.56527091135416185
38.009497869018218807469 2728.55535559949203162 38.009497869018218807469 512.18923058722850783
39.009497869018190385759 2738.16552807422112892 39.009497869018190385759 512.77875505539634560
40.009497869018190385759 2747.47554137743691172 40.009497869018190385759 513.33070088614454107
41.009497869018218807469 2756.50058821160746447 41.009497869018218807469 513.87960170879387078
42.009497869018190385759 2765.25460028938186952 42.009497869018190385759 514.39901605068962454
43.009497869018190385759 2773.75050756488599291 43.009497869018190385759 514.89784609624416589
44.009497869018218807469 2782.00095794557228146 44.009497869018218807469 515.37183285933360821
46.009497869018190385759 2797.81114744301066821 46.009497869018190385759 516.27003851448705518
48.009497869018218807469 2812.76831546803759920 48.009497869018218807469 517.11176558857516738
50.009497869018190385759 2826.94455452171587240 50.009497869018190385759 517.90052994797497377
52.009497869018190385759 2840.40409833992453059 52.009497869018190385759 518.64295081767863849
54.009497869018218807469 2853.20399618978581202 54.009497869018218807469 519.34399481163654855
56.009497869018190385759 2865.39534302358833884 56.009497869018190385759 520.00118588922362051
58.009497869018218807469 2877.02335036753038366 58.009497869018218807469 520.60836637075772160
60.009497869018190385759 2888.12874682705705709 60.009497869018190385759 521.19197275188196272
62.009497869018190385759 2898.74821442449092501 62.009497869018190385759 521.74421029816824102
64.009497869018218807469 2908.91488253808847730 64.009497869018218807469 522.26550095313007205
66.009497869018190385759 2918.65868696451207143 66.009497869018190385759 522.74449974380104322
68.009497869018190385759 2928.00671840069571772 68.009497869018190385759 523.19366405391247099
70.009497869018190385759 2936.98404870173635572 70.009497869018190385759 523.62853908838667394
72.009497869018190385759 2945.61355306731047676 72.009497869018190385759 524.03903621484300857
74.009497869018218807469 2953.91614716229150872 74.009497869018218807469 524.43147410145127196
76.009497869018190385759 2961.91062485718020980 76.009497869018190385759 524.80452254617705421
78.009497869018190385759 2969.61421016145732210 78.009497869018190385759 525.15179191969571093
80.009497869018218807469 2977.04311209679053718 80.009497869018218807469 525.49611181546060834
82.009497869018190385759 2984.21291581749346733 82.009497869018190385759 525.83536874102037473
84.009497869018218807469 2991.13779856400014978 84.009497869018218807469 526.15130665386175224
86.009497869018190385759 2997.83082996537132203 86.009497869018190385759 526.45614180409381788
88.009497869018190385759 3004.30376420918355507 88.009497869018190385759 526.75082849135583274
91.009497869018218807469 3013.62433583956362781 91.009497869018218807469 527.18152948965155247
94.009497869018218807469 3022.50869393107677752 94.009497869018218807469 527.61361863291654117
97.009497869018218807469 3030.98888293197069288 97.009497869018218807469 528.08239073370361893
99.504748934509137825444 3037.75602642184230717 99.504748934509137825444 528.25485164326255472
nan nan nan nan

