Time Pressure difference Time.1 Pressure.1 difference.1
(hr) (psi) (hr) (psi)
0.000200000000020850166 0.48174644517525111 0.000200000000020850166 0.38460083568756709
0.000399999999999067768 0.96213609654859999 0.000399999999999067768 1.00151469945899962
0.000600000000019917934 1.44137324494585539 0.000600000000019917934 1.46288842117813811
0.000799999999998135536 1.91955993811908709 0.000799999999998135536 1.93115584109966854
0.001007140329434719206 2.41378512211459029 0.001007140329434719206 2.42123198626457281
0.001267914553977789183 3.03456684982894087 0.001267914553977789183 3.04050241788413311
0.001596209851982166583 3.81396985506786557 0.001596209851982166583 3.81630862709611396
0.002009509145224797066 4.79201288645429191 0.002009509145224797066 4.78729916611154849
0.002529822128153114136 6.01855674538424346 0.002529822128153114136 6.00120526363243645
0.003184857364431081805 7.55559769249031632 0.003184857364431081805 7.51674549293358840
0.004009497869034817086 9.48003189603830343 0.004009497869034817086 9.40581955216324772
0.005047658755856332391 11.88695799142858966 0.005047658755856332391 11.75596921341606560
0.006354625877790454069 14.89357310979458582 0.006354625877790454069 14.67305799525493981
0.008000000000009777068 18.64370681525068463 0.008000000000009777068 18.28405080736524368
0.010071403294361402914 23.31299314745314177 0.010071403294361402914 22.73964110448419618
0.012679145539692626699 29.11460825441134759 0.012679145539692626699 28.21635981604622501
0.015962098519750611558 36.30540438548124627 0.015962098519750611558 34.91767691326895573
0.020095091452091651263 45.19214106174349155 0.020095091452091651263 43.07306961207356011
0.025298221281360611101 56.13716979802080687 0.025298221281360611101 52.93409305351786998
0.031848573644296607199 69.56282664947950423 0.031848573644296607199 64.76601979742595461
0.040094978690191851456 85.95322561423176921 0.040094978690191851456 78.83289803878861335
0.050476587558435426217 105.85171352995351413 0.050476587558435426217 95.37429323914265922
0.063546258777947173257 129.85187699244050918 0.063546258777947173257 114.57181313998056282
0.080000000000012505552 158.57948497212700545 0.080000000000012505552 136.50462595693173284
0.100714032943542974863 192.66289505747656108 0.100714032943542974863 161.09260073458295892
0.126791455396883634421 232.68868472180017193 0.126791455396883634421 188.03809446637200153
0.159620985197506115583 279.14512718123376089 0.159620985197506115583 216.76427621059391981
0.200950914520774404082 332.34934092500708402 0.200950914520774404082 246.38529800934207969
0.252982212813464002465 392.37701832428155058 0.252982212813464002465 275.71139909647303057
0.318485736442809752589 458.99204907530997843 0.318485736442809752589 303.32145029632158639
0.400949786901833249431 531.60990867284749584 0.400949786901833249431 327.73423129938464626
0.504765875584169521062 609.30648440395805210 0.504765875584169521062 347.61970224706391264
0.635462587779443310865 690.87907799062566028 0.635462587779443310865 362.05907482299812727
0.800000000000011368684 774.97499437814008161 0.800000000000011368684 370.75852783819243541
1.007140329435344483500 860.25043693472207451 1.007140329435344483500 374.11313256486113232
1.267914553968907398485 945.52738361287481439 1.267914553968907398485 373.15120895021681235
1.596209851975117999245 1029.92487276346787439 1.596209851975117999245 369.29705971089452987
2.009509145207687197399 1112.90446753626520149 2.009509145207687197399 364.06967119364395558
2.529822128134725289783 1194.26052436076997765 2.529822128134725289783 358.88083844780112486
3.184857364427983839050 1274.07003511073844493 3.184857364427983839050 354.76728697816758995
4.009497869018204596614 1352.55900137266075944 4.009497869018204596614 352.33605012884072494
5.009497869018190385759 1427.49036056487170754 5.009497869018190385759 351.79805203282791126
6.009497869018190385759 1488.20961729554733211 6.009497869018190385759 352.68272410961924379
7.009497869018204596614 1539.27497002278801119 7.009497869018204596614 354.29803844413061142
8.009497869018190385759 1583.33502893020499869 8.009497869018190385759 356.23461187497059655
9.009497869018204596614 1622.06627926868350187 9.009497869018204596614 358.31423735814024667
10.009497869018190385759 1656.59902488127659126 10.009497869018190385759 360.41059250187907992
11.009497869018190385759 1687.73314254618298946 11.009497869018190385759 362.36399603940731140
12.009497869018204596614 1716.05609019786106728 12.009497869018204596614 364.24166324339938683
13.009497869018190385759 1742.01076564832078475 13.009497869018190385759 366.03066419496059325
14.009497869018204596614 1765.94563238357045520 14.009497869018204596614 367.72643563644504638
15.009497869018190385759 1788.13497550718852835 15.009497869018190385759 369.34200347583617940
16.009497869018190385759 1808.80096276862241211 16.009497869018190385759 370.86694993159466094
17.009497869018204596614 1828.12577801906081731 17.009497869018204596614 372.28043889314955095
18.009497869018190385759 1846.25902506176589668 18.009497869018190385759 373.59849955081716644
19.009497869018204596614 1863.32483755668818048 19.009497869018204596614 374.78186232143383450
20.009497869018190385759 1879.42968103328598772 20.009497869018190385759 375.89951708456408142
21.009497869018190385759 1894.66422789980879315 21.009497869018190385759 376.95808015934261448
22.009497869018204596614 1909.10609131892874757 22.009497869018204596614 377.97844626256932088
23.009497869018190385759 1922.82992366972848686 23.009497869018190385759 378.98223864730601917
24.009497869018204596614 1935.89840137102964945 24.009497869018204596614 379.93474557769911826
25.009497869018204596614 1948.36520822532997954 25.009497869018204596614 380.85382506542293868
26.009497869018190385759 1960.27741227269530100 26.009497869018190385759 381.70675878659477576
27.009497869018204596614 1971.67794258323874601 27.009497869018204596614 382.49082951426072441
28.009497869018190385759 1982.60100902504518672 28.009497869018190385759 383.21884094941145804
29.009497869018190385759 1993.07470351866982128 29.009497869018190385759 383.91014626899561790
30.009497869018190385759 2003.12908633440406447 30.009497869018190385759 384.56185471218435623
31.009497869018218807469 2012.79376386329522575 31.009497869018218807469 385.16087815125058569
32.009497869018190385759 2022.09436601911829712 32.009497869018190385759 385.72316149767374327
33.009497869018190385759 2031.05406503658014117 33.009497869018190385759 386.29771858180413346
34.009497869018218807469 2039.69468687887001579 34.009497869018218807469 386.83726634341161343
35.009497869018190385759 2048.03472840232370800 35.009497869018190385759 387.35918107515709607
36.009497869018190385759 2056.09136570085684070 36.009497869018190385759 387.86921896125585363
37.009497869018190385759 2063.88054776681292424 37.009497869018190385759 388.36106954003327019
38.009497869018218807469 2071.41636943416915528 38.009497869018218807469 388.83475620496403735
39.009497869018190385759 2078.71205010870198748 39.009497869018190385759 389.28230095828513413
40.009497869018190385759 2085.77986125512234139 40.009497869018190385759 389.70131742665421370
41.009497869018218807469 2092.63133660043467899 41.009497869018218807469 390.11802223966026304
42.009497869018190385759 2099.27705257570869435 42.009497869018190385759 390.51234202801049378
43.009497869018190385759 2105.72682511470384270 43.009497869018190385759 390.89103499453085533
44.009497869018218807469 2111.99025603197924283 44.009497869018218807469 391.25086787750461781
46.009497869018190385759 2123.99275591223295123 46.009497869018190385759 391.93275175183572401
48.009497869018218807469 2135.34767404641615940 48.009497869018218807469 392.57175921645762173
50.009497869018190385759 2146.10974034371110974 50.009497869018190385759 393.17055938458832998
52.009497869018190385759 2156.32771863502148335 52.009497869018190385759 393.73417732232150001
54.009497869018218807469 2166.04491857339780836 54.009497869018218807469 394.26638349574506037
56.009497869018190385759 2175.30012952052493347 56.009497869018190385759 394.76529818815401995
58.009497869018218807469 2184.12767436278454625 58.009497869018218807469 395.22624672125584766
60.009497869018190385759 2192.55847272211167365 60.009497869018190385759 395.66929868598367648
62.009497869018190385759 2200.62037220707406959 62.009497869018190385759 396.08853661379271216
64.009497869018218807469 2208.33852339278973886 64.009497869018218807469 396.48428082829246932
66.009497869018190385759 2215.73565240761399764 66.009497869018190385759 396.84791865367100172
68.009497869018190385759 2222.83232548743944790 68.009497869018190385759 397.18890726605923192
70.009497869018190385759 2229.64757623953801158 70.009497869018190385759 397.51904799903695675
72.009497869018190385759 2236.19877065319406029 72.009497869018190385759 397.83068194320543398
74.009497869018218807469 2242.50178711273429144 74.009497869018218807469 398.12860599324835675
76.009497869018190385759 2248.57089321618377653 76.009497869018190385759 398.41181030992498791
78.009497869018190385759 2254.41916478225812170 78.009497869018190385759 398.67544412751772143
80.009497869018218807469 2260.05890708918650489 80.009497869018218807469 398.93683881278417402
82.009497869018190385759 2265.50195179862066652 82.009497869018190385759 399.19438988192644047
84.009497869018218807469 2270.75906173706789559 84.009497869018218807469 399.43423803565417529
86.009497869018190385759 2275.84015887423447566 86.009497869018190385759 399.66565739054243522
88.009497869018190385759 2280.75416654623904833 88.009497869018190385759 399.88937241490361885
91.009497869018218807469 2287.82999317663234251 91.009497869018218807469 400.21634437696059194
94.009497869018218807469 2294.57466293196921470 94.009497869018218807469 400.54437016635017699
97.009497869018218807469 2301.01250274940184681 97.009497869018218807469 400.90024427427761111
99.504748934509137825444 2306.14986299040356243 99.504748934509137825444 401.03117009567046125
nan nan nan nan

