Time Pressure difference Time.1 Pressure.1 difference.1
(hr) (psi) (hr) (psi)
0.000200000000020850166 0.73175623827482117 0.000200000000020850166 0.58419540731163211
0.000399999999999067768 1.46145155355054590 0.000399999999999067768 1.52126629348858389
0.000600000000019917934 2.18939625654706660 0.000600000000019917934 2.22207706734127530
0.000799999999998135536 2.91574535428088932 0.000799999999998135536 2.93335913104966872
0.001007140329434719206 3.66645636652233486 0.001007140329434719206 3.67776789637773938
0.001267914553977789183 4.60940240465396034 0.001267914553977789183 4.61841832785503570
0.001596209851982166583 5.79328869364618981 0.001596209851982166583 5.79684120770978595
0.002009509145224797066 7.27890233270039833 0.002009509145224797066 7.27174235404185243
0.002529822128153114136 9.14198015979917145 0.002529822128153114136 9.11562385734513114
0.003184857364431081805 11.47669235704132618 0.003184857364431081805 11.41767720564567590
0.004009497869034817086 14.39984155243059583 0.004009497869034817086 14.28711556113072767
0.005047658755856332391 18.05587929387687396 0.005047658755856332391 17.85691185693026739
0.006354625877790454069 22.62282398229142899 0.006354625877790454069 22.28786912727517588
0.008000000000009777068 28.31914776592388350 0.008000000000009777068 27.77284269187720511
0.010071403294361402914 35.41163269466589014 0.010071403294361402914 34.54073071215616153
0.012679145539692626699 44.22408598644205568 0.012679145539692626699 42.85967758264951755
0.015962098519750611558 55.14665735104996003 0.015962098519750611558 53.03874717343095568
0.020095091452091651263 68.64530392309657714 0.020095091452091651263 65.42650746247726090
0.025298221281360611101 85.27042515871781347 0.025298221281360611101 80.40506203474006952
0.031848573644296607199 105.66353496239904075 0.031848573644296607199 98.37735076126253375
0.040094978690191851456 130.55998580368651574 0.040094978690191851456 119.74445374512545470
0.050476587558435426217 160.78510279291214147 0.050476587558435426217 144.87026266152531662
0.063546258777947173257 197.24052350058639149 0.063546258777947173257 174.03063340745325149
0.080000000000012505552 240.87676941455842439 0.080000000000012505552 207.34581977251184526
0.100714032943542974863 292.64829404420146375 0.100714032943542974863 244.69410559856484610
0.126791455396883634421 353.44608834466544067 0.126791455396883634421 285.62338142219601878
0.159620985197506115583 424.01182249425340842 0.159620985197506115583 329.25746093367803269
0.200950914520774404082 504.82718854298485667 0.200950914520774404082 374.25077163143174630
0.252982212813464002465 596.00716059257240431 0.252982212813464002465 418.79610793791846390
0.318485736442809752589 697.19309523335880385 0.318485736442809752589 460.73482363975750786
0.400949786901833249431 807.49711989789420841 0.400949786901833249431 497.81699616337567704
0.504765875584169521062 925.51553924118445593 0.504765875584169521062 528.02234082700567797
0.635462587779443310865 1049.42149605127792711 0.635462587779443310865 549.95524986045063542
0.800000000000011368684 1177.16029318472646992 0.800000000000011368684 563.16941900939229981
1.007140329435344483500 1306.69074989567275225 1.007140329435344483500 568.26494791317702493
1.267914553968907398485 1436.22349131541841416 1.267914553968907398485 566.80381911231211234
1.596209851975117999245 1564.42036707692273012 1.596209851975117999245 560.94949931947940058
2.009509145207687197399 1690.46351017146480444 2.009509145207687197399 553.00927641655232492
2.529822128134725289783 1814.04055510661783046 2.529822128134725289783 545.12761840088410281
3.184857364427983839050 1935.26844988372522494 3.184857364427983839050 538.87927556511317562
4.009497869018204596614 2054.49048311950718926 4.009497869018204596614 535.18631062673910037
5.009497869018190385759 2168.30863389250316686 5.009497869018190385759 534.36911007055414302
6.009497869018190385759 2260.53909109892629203 6.009497869018190385759 535.71289644926639539
7.009497869018204596614 2338.10560101737291916 7.009497869018204596614 538.16650322289490305
8.009497869018190385759 2405.03131118536293798 8.009497869018190385759 541.10809148594671569
9.009497869018204596614 2463.86274488915523762 9.009497869018204596614 544.26697088365779109
10.009497869018190385759 2516.31679469035270813 10.009497869018190385759 547.45126205888868753
11.009497869018190385759 2563.60844583308153233 11.009497869018190385759 550.41841467365156859
12.009497869018204596614 2606.63002666261354534 12.009497869018204596614 553.27052640937040451
13.009497869018190385759 2646.05428368305274489 13.009497869018190385759 555.98795716510392140
14.009497869018204596614 2682.41052091366509558 14.009497869018204596614 558.56377550984154823
15.009497869018190385759 2716.11536796867812882 15.009497869018190385759 561.01776734864085938
16.009497869018190385759 2747.50628999854552603 16.009497869018190385759 563.33410843057743023
17.009497869018204596614 2776.86001799102177756 17.009497869018204596614 565.48114942218046508
18.009497869018190385759 2804.40379496450987062 18.009497869018190385759 567.48323811081024814
19.009497869018204596614 2830.32617566800399800 19.009497869018204596614 569.28072535376418273
20.009497869018190385759 2854.78887756952553900 20.009497869018190385759 570.97840439913954924
21.009497869018190385759 2877.92962893057165275 21.009497869018190385759 572.58632520755315909
22.009497869018204596614 2899.86632146892452511 22.009497869018204596614 574.13622613331654065
23.009497869018190385759 2920.71234957419119382 23.009497869018190385759 575.66095215220104819
24.009497869018204596614 2940.56291656530538603 24.009497869018204596614 577.10777733440158954
25.009497869018204596614 2959.49956628709560391 25.009497869018204596614 578.50382738385792436
26.009497869018190385759 2977.59379346938703748 26.009497869018190385759 579.79940429481041519
27.009497869018204596614 2994.91080588936802087 27.009497869018204596614 580.99038069321329658
28.009497869018190385759 3011.50256715700879795 28.009497869018190385759 582.09620495936451334
29.009497869018190385759 3027.41174793094478446 29.009497869018190385759 583.14627390169846421
30.009497869018190385759 3042.68400872518986944 30.009497869018190385759 584.13619655419722676
31.009497869018218807469 3057.36432062683297772 31.009497869018218807469 585.04609250215821703
32.009497869018190385759 3071.49161459110882788 32.009497869018190385759 585.90018151629408294
33.009497869018190385759 3085.10108844349497303 33.009497869018190385759 586.77291391477490379
34.009497869018218807469 3098.22589506945632820 34.009497869018218807469 587.59246835956139421
35.009497869018190385759 3110.89413055594286561 35.009497869018190385759 588.38523884002324849
36.009497869018190385759 3123.13188479733571512 36.009497869018190385759 589.15996880149384651
37.009497869018190385759 3134.96338376303856421 37.009497869018190385759 589.90707287029192685
38.009497869018218807469 3146.41003701983299834 38.009497869018218807469 590.62658658029886283
39.009497869018190385759 3157.49192438925274473 39.009497869018190385759 591.30639162801583097
40.009497869018190385759 3168.22768580303954877 40.009497869018190385759 591.94286319462469237
41.009497869018218807469 3178.63484059479833377 41.009497869018218807469 592.57582343644946832
42.009497869018190385759 3188.72945399861919213 42.009497869018190385759 593.17478159771940227
43.009497869018190385759 3198.52643607940353832 43.009497869018190385759 593.75000315548572871
44.009497869018218807469 3208.04037166236776102 44.009497869018218807469 594.29657689669238607
46.009497869018190385759 3226.27175510116830992 46.009497869018190385759 595.33233498856429833
48.009497869018218807469 3243.51948419809104962 48.009497869018218807469 596.30296529258475857
50.009497869018190385759 3259.86669179794762385 50.009497869018190385759 597.21252209969372871
52.009497869018190385759 3275.38744847836915142 52.009497869018190385759 598.06863831200905679
54.009497869018218807469 3290.14754010890237623 54.009497869018218807469 598.87704113750237411
56.009497869018190385759 3304.20588639238394535 56.009497869018190385759 599.63487535131673667
58.009497869018218807469 3317.61462260967846305 58.009497869018218807469 600.33504027832145766
60.009497869018190385759 3330.42071460031093011 60.009497869018190385759 601.00802093508889357
62.009497869018190385759 3342.66646192143480221 62.009497869018190385759 601.64482889095052087
64.009497869018218807469 3354.39006742939272954 64.009497869018218807469 602.24595070642351402
66.009497869018190385759 3365.62605132949647668 66.009497869018190385759 602.79830402393815802
68.009497869018190385759 3376.40565302488630550 68.009497869018190385759 603.31625396792787797
70.009497869018190385759 3386.75778390867753842 70.009497869018190385759 603.81772635715788056
72.009497869018190385759 3396.70882231976474941 72.009497869018190385759 604.29108757235167104
74.009497869018218807469 3406.28288697641210092 74.009497869018218807469 604.74362393112380687
76.009497869018190385759 3415.50164986803065403 76.009497869018190385759 605.17380152248938430
78.009497869018190385759 3424.38497271236110464 78.009497869018190385759 605.57425220059155890
80.009497869018218807469 3432.95154680271298275 80.009497869018218807469 605.97130171390142550
82.009497869018190385759 3441.21934402514625617 82.009497869018190385759 606.36251290685731874
84.009497869018218807469 3449.20471274199508116 84.009497869018218807469 606.72683398174365266
86.009497869018190385759 3456.92272408310464016 86.009497869018190385759 607.07835200184115365
88.009497869018190385759 3464.38693228833881221 88.009497869018190385759 607.41816740953470344
91.009497869018218807469 3475.13486894588413634 91.009497869018218807469 607.91482654500396166
94.009497869018218807469 3485.37978972942210021 94.009497869018218807469 608.41308640785257467
97.009497869018218807469 3495.15864641762618703 97.009497869018218807469 608.95364690627343407
99.504748934509137825444 3502.96211947335496006 99.504748934509137825444 609.15251871428574759
nan nan nan nan

