Time Pressure difference Time.1 Pressure.1 difference.1
(hr) (psi) (hr) (psi)
0.000200000000020850166 0.68358159375729599 0.000200000000020850166 0.54573532374287537
0.000399999999999067768 1.36523794389568587 0.000399999999999067768 1.42111482354268381
0.000600000000019917934 2.04525893205248099 0.000600000000019917934 2.07578822522346140
0.000799999999998135536 2.72378936046898046 0.000799999999998135536 2.74024354693970240
0.001007140329434719206 3.42507785431087530 0.001007140329434719206 3.43564469775128201
0.001267914553977789183 4.30594571967106621 0.001267914553977789183 4.31436808606662225
0.001596209851982166583 5.41189170813940290 0.001596209851982166583 5.41521034500017517
0.002009509145224797066 6.79970104405496834 0.002009509145224797066 6.79301243743069705
0.002529822128153114136 8.54012448526074586 0.002529822128153114136 8.51550333098188794
0.003184857364431081805 10.72113258779229383 0.003184857364431081805 10.66600265635231715
0.004009497869034817086 13.45183836282676637 0.004009497869034817086 13.34653360591440219
0.005047658755856332391 16.86718349473401446 0.005047658755856332391 16.68131493558865941
0.006354625877790454069 21.13346667131197165 0.006354625877790454069 20.82056332774968155
0.008000000000009777068 26.45477708439881681 0.008000000000009777068 25.94443761114068181
0.010071403294361402914 33.08033337992057454 0.010071403294361402914 32.26676660170774369
0.012679145539692626699 41.31262516100092341 0.012679145539692626699 40.03804160104489540
0.015962098519750611558 51.51611691250183611 0.015962098519750611558 49.54697948210405656
0.020095091452091651263 64.12608981692223153 0.020095091452091651263 61.11920050126989423
0.025298221281360611101 79.65670817891573563 0.025298221281360611101 75.11165272938828252
0.031848573644296607199 98.70725229745109175 0.031848573644296607199 91.90074878151992266
0.040094978690191851456 121.96466324226335587 0.040094978690191851456 111.86116394124660189
0.050476587558435426217 150.19993143991680995 0.050476587558435426217 135.33283333761104927
0.063546258777947173257 184.25533580134231215 0.063546258777947173257 162.57345209345518811
0.080000000000012505552 225.01882091734572100 0.080000000000012505552 193.69535717681864639
0.100714032943542974863 273.38200453845377069 0.100714032943542974863 228.58484552510651611
0.126791455396883634421 330.17721987248540927 0.126791455396883634421 266.81957197555885841
0.159620985197506115583 396.09730977613003233 0.159620985197506115583 307.58103331261861513
0.200950914520774404082 471.59225445048411984 0.200950914520774404082 349.61224183049750991
0.252982212813464002465 556.76945876014428904 0.252982212813464002465 391.22496802827117790
0.318485736442809752589 651.29389032582776053 0.318485736442809752589 430.40267861012534922
0.400949786901833249431 754.33612903060941335 0.400949786901833249431 465.04357303343721242
0.504765875584169521062 864.58489080078868483 0.504765875584169521062 493.26037060229930375
0.635462587779443310865 980.33358825221523603 0.635462587779443310865 513.74934237815091365
0.800000000000011368684 1099.66279374691248449 0.800000000000011368684 526.09356622557311312
1.007140329435344483500 1220.66570620220045384 1.007140329435344483500 530.85363465669081506
1.267914553968907398485 1341.67075295413087588 1.267914553968907398485 529.48869821729044816
1.596209851975117999245 1461.42787980057596542 1.596209851975117999245 524.01979334838995328
2.009509145207687197399 1579.17306341783819335 2.009509145207687197399 516.60230929718784409
2.529822128134725289783 1694.61450267054078722 2.529822128134725289783 509.23953455610404717
3.184857364427983839050 1807.86144637265124402 3.184857364427983839050 503.40254686729639388
4.009497869018204596614 1919.23458298224113605 4.009497869018204596614 499.95270561385507335
5.009497869018190385759 2025.55959783601610980 5.009497869018190385759 499.18930486727128937
6.009497869018190385759 2111.71812936937158156 6.009497869018190385759 500.44462403830453923
7.009497869018204596614 2184.17810401509404983 7.009497869018204596614 502.73669937848183054
8.009497869018190385759 2246.69780829234241537 8.009497869018190385759 505.48463029844958783
9.009497869018204596614 2301.65611696228734218 9.009497869018204596614 508.43554714784374937
10.009497869018190385759 2350.65689220222475342 10.009497869018190385759 511.41020280870088754
11.009497869018190385759 2394.83513157846300601 11.009497869018190385759 514.18201506971081471
12.009497869018204596614 2435.02441764282730219 12.009497869018204596614 516.84636008503036919
13.009497869018190385759 2471.85320711822078010 13.009497869018190385759 519.38489074560789049
14.009497869018204596614 2505.81595767530825469 14.009497869018204596614 521.79113194619696969
15.009497869018190385759 2537.30187041795898040 15.009497869018190385759 524.08356700105730397
16.009497869018190385759 2566.62619372168319387 16.009497869018190385759 526.24741343741800392
17.009497869018204596614 2594.04744018911560488 17.009497869018204596614 528.25310553286556114
18.009497869018190385759 2619.77789245833309906 18.009497869018190385759 530.12338815572843487
19.009497869018204596614 2643.99369191233472520 19.009497869018204596614 531.80253912162061170
20.009497869018190385759 2666.84590946619755414 20.009497869018190385759 533.38845269068326616
21.009497869018190385759 2688.46320614059095533 21.009497869018190385759 534.89051719161886922
22.009497869018204596614 2708.95571233703185499 22.009497869018204596614 536.33838150705958014
23.009497869018190385759 2728.42935720721789039 23.009497869018190385759 537.76272828747039512
24.009497869018204596614 2746.97307642820214824 24.009497869018204596614 539.11430277663168908
25.009497869018204596614 2764.66304546456240132 25.009497869018204596614 540.41844487731566460
26.009497869018190385759 2781.56605224211807581 26.009497869018190385759 541.62872841615080688
27.009497869018204596614 2797.74301163104382795 27.009497869018204596614 542.74129774178720709
28.009497869018190385759 2813.24246625450450665 28.009497869018190385759 543.77432086442343007
29.009497869018190385759 2828.10427757907791602 29.009497869018190385759 544.75525927479895927
30.009497869018190385759 2842.37110009174921288 30.009497869018190385759 545.68001108297880819
31.009497869018218807469 2856.08494424050377347 31.009497869018218807469 546.53000468703316983
32.009497869018190385759 2869.28217798919695269 32.009497869018190385759 547.32786536652668019
33.009497869018190385759 2881.99568193983714082 33.009497869018190385759 548.14314205659445634
34.009497869018218807469 2894.25642638156932662 34.009497869018218807469 548.90874172522035224
35.009497869018190385759 2906.09065771571067671 35.009497869018190385759 549.64932073250747635
36.009497869018190385759 2917.52274822724984915 36.009497869018190385759 550.37304690536825547
37.009497869018190385759 2928.57532898635690799 37.009497869018190385759 551.07096591628851456
38.009497869018218807469 2939.26840007641567354 38.009497869018218807469 551.74311095980249320
39.009497869018190385759 2949.62071937838209124 39.009497869018190385759 552.37816153218739146
40.009497869018190385759 2959.64969967752722368 40.009497869018190385759 552.97273145195936195
41.009497869018218807469 2969.37170693475491134 41.009497869018218807469 553.56402121248345338
42.009497869018190385759 2978.80174874104795890 42.009497869018190385759 554.12354739491831879
43.009497869018190385759 2987.95375356793329047 43.009497869018190385759 554.66089965603259770
44.009497869018218807469 2996.84134605917006411 44.009497869018218807469 555.17149010894195271
46.009497869018190385759 3013.87247950994469647 46.009497869018190385759 556.13905981338064066
48.009497869018218807469 3029.98471679344902441 48.009497869018218807469 557.04578937093890545
50.009497869018190385759 3045.25571776357628551 50.009497869018190385759 557.89546616123482181
52.009497869018190385759 3059.75467661486663928 52.009497869018190385759 558.69522057977690110
54.009497869018218807469 3073.54304825156259540 54.009497869018218807469 559.45040278792782829
56.009497869018190385759 3086.67587344033108820 56.009497869018190385759 560.15834553250124372
58.009497869018218807469 3099.20185517339996295 58.009497869018218807469 560.81241560619582742
60.009497869018190385759 3111.16486732809971727 60.009497869018190385759 561.44109106649057139
62.009497869018190385759 3122.60442470072712240 62.009497869018190385759 562.03597522957136334
64.009497869018218807469 3133.55621509011371018 64.009497869018218807469 562.59752262359427277
66.009497869018190385759 3144.05248608873534977 66.009497869018190385759 563.11351215857109764
68.009497869018190385759 3154.12242047614245166 68.009497869018190385759 563.59736324132188656
70.009497869018190385759 3163.79302628472396464 70.009497869018190385759 564.06582155725425309
72.009497869018190385759 3173.08894525444566170 72.009497869018190385759 564.50801937803123565
74.009497869018218807469 3182.03270826513880820 74.009497869018218807469 564.93076333179897119
76.009497869018190385759 3190.64456054641232186 76.009497869018190385759 565.33262049149698214
78.009497869018190385759 3198.94305623413538342 78.009497869018190385759 565.70670778783983224
80.009497869018218807469 3206.94565609379424131 80.009497869018218807469 566.07761783262310473
82.009497869018190385759 3214.66914884528432594 82.009497869018190385759 566.44307391866470880
84.009497869018218807469 3222.12880656828792780 84.009497869018218807469 566.78341017817831471
86.009497869018190385759 3229.33870819568164734 86.009497869018190385759 567.11178626278683623
88.009497869018190385759 3236.31151563371486191 88.009497869018190385759 567.42923016804434155
91.009497869018218807469 3246.35186962822081114 91.009497869018218807469 567.89319210730798204
94.009497869018218807469 3255.92232343622526969 94.009497869018218807469 568.35864939121768202
97.009497869018218807469 3265.05739614268577498 97.009497869018218807469 568.86362247884562748
99.504748934509137825444 3272.34713317431442192 99.504748934509137825444 569.04940170471866168
nan nan nan nan

