Time Pressure difference Time.1 Pressure.1 difference.1
(hr) (psi) (hr) (psi)
0.000200000000020850166 0.24087322258762556 0.000200000000020850166 0.19230041784378354
0.000399999999999067768 0.48106804827430000 0.000399999999999067768 0.50075734972949981
0.000600000000019917934 0.72068662247292770 0.000600000000019917934 0.73144421058906905
0.000799999999998135536 0.95977996905954355 0.000799999999998135536 0.96557792054983427
0.001007140329434719206 1.20689256105729514 0.001007140329434719206 1.21061599313228641
0.001267914553977789183 1.51728342491447044 0.001267914553977789183 1.52025120894206656
0.001596209851982166583 1.90698492753393278 0.001596209851982166583 1.90815431354805698
0.002009509145224797066 2.39600644322714595 0.002009509145224797066 2.39364958305577424
0.002529822128153114136 3.00927837269212173 0.002529822128153114136 3.00060263181621822
0.003184857364431081805 3.77779884624515816 0.003184857364431081805 3.75837274646679420
0.004009497869034817086 4.74001594801915171 0.004009497869034817086 4.70290977608162386
0.005047658755856332391 5.94347899571429483 0.005047658755856332391 5.87798460670803280
0.006354625877790454069 7.44678655489729291 0.006354625877790454069 7.33652899762746991
0.008000000000009777068 9.32185340762534231 0.008000000000009777068 9.14202540368262184
0.010071403294361402914 11.65649657372657089 0.010071403294361402914 11.36982055224209809
0.012679145539692626699 14.55730412720567379 0.012679145539692626699 14.10817990802311250
0.015962098519750611558 18.15270219274062313 0.015962098519750611558 17.45883845663447786
0.020095091452091651263 22.59607053087174577 0.020095091452091651263 21.53653480603678005
0.025298221281360611101 28.06858489901040343 0.025298221281360611101 26.46704652675893499
0.031848573644296607199 34.78141332473975211 0.031848573644296607199 32.38300989871297730
0.040094978690191851456 42.97661280711588461 0.040094978690191851456 39.41644901939430667
0.050476587558435426217 52.92585676497675706 0.050476587558435426217 47.68714661957132961
0.063546258777947173257 64.92593849622025459 0.063546258777947173257 57.28590656999028141
0.080000000000012505552 79.28974248606350272 0.080000000000012505552 68.25231297846586642
0.100714032943542974863 96.33144752873828054 0.100714032943542974863 80.54630036729147946
0.126791455396883634421 116.34434236090008596 0.126791455396883634421 94.01904723318600077
0.159620985197506115583 139.57256359061688045 0.159620985197506115583 108.38213810529695991
0.200950914520774404082 166.17467046250354201 0.200950914520774404082 123.19264900467103985
0.252982212813464002465 196.18850916214077529 0.252982212813464002465 137.85569954823651528
0.318485736442809752589 229.49602453765498922 0.318485736442809752589 151.66072514816079320
0.400949786901833249431 265.80495433642374792 0.400949786901833249431 163.86711564969232313
0.504765875584169521062 304.65324220197902605 0.504765875584169521062 173.80985112353195632
0.635462587779443310865 345.43953899531283014 0.635462587779443310865 181.02953741149906364
0.800000000000011368684 387.48749718907004080 0.800000000000011368684 185.37926391909621771
1.007140329435344483500 430.12521846736103726 1.007140329435344483500 187.05656628243056616
1.267914553968907398485 472.76369180643740719 1.267914553968907398485 186.57560447510840618
1.596209851975117999245 514.96243638173393720 1.596209851975117999245 184.64852985544726494
2.009509145207687197399 556.45223376813260074 2.009509145207687197399 182.03483559682197779
2.529822128134725289783 597.13026218038498882 2.529822128134725289783 179.44041922390056243
3.184857364427983839050 637.03501755536922246 3.184857364427983839050 177.38364348908379498
4.009497869018204596614 676.27950068633037972 4.009497869018204596614 176.16802506442036247
5.009497869018190385759 713.74518028243585377 5.009497869018190385759 175.89902601641395563
6.009497869018190385759 744.10480864777366605 6.009497869018190385759 176.34136205480962190
7.009497869018204596614 769.63748501139400560 7.009497869018204596614 177.14901922206530571
8.009497869018190385759 791.66751446510249934 8.009497869018190385759 178.11730593748529827
9.009497869018204596614 811.03313963434175093 9.009497869018204596614 179.15711867907012333
10.009497869018190385759 828.29951244063829563 10.009497869018190385759 180.20529625093953996
11.009497869018190385759 843.86657127309149473 11.009497869018190385759 181.18199801970365570
12.009497869018204596614 858.02804509893053364 12.009497869018204596614 182.12083162169969341
13.009497869018190385759 871.00538282416039237 13.009497869018190385759 183.01533209748029662
14.009497869018204596614 882.97281619178522760 14.009497869018204596614 183.86321781822252319
15.009497869018190385759 894.06748775359426418 15.009497869018190385759 184.67100173791808970
16.009497869018190385759 904.40048138431120606 16.009497869018190385759 185.43347496579733047
17.009497869018204596614 914.06288900953040866 17.009497869018204596614 186.14021944657477547
18.009497869018190385759 923.12951253088294834 18.009497869018190385759 186.79924977540858322
19.009497869018204596614 931.66241877834409024 19.009497869018204596614 187.39093116071691725
20.009497869018190385759 939.71484051664299386 20.009497869018190385759 187.94975854228204071
21.009497869018190385759 947.33211394990439658 21.009497869018190385759 188.47904007967130724
22.009497869018204596614 954.55304565946437378 22.009497869018204596614 188.98922313128466044
23.009497869018190385759 961.41496183486424343 23.009497869018190385759 189.49111932365300959
24.009497869018204596614 967.94920068551482473 24.009497869018204596614 189.96737278884955913
25.009497869018204596614 974.18260411266498977 25.009497869018204596614 190.42691253271146934
26.009497869018190385759 980.13870613634765050 26.009497869018190385759 190.85337939329738788
27.009497869018204596614 985.83897129161937301 27.009497869018204596614 191.24541475713036220
28.009497869018190385759 991.30050451252259336 28.009497869018190385759 191.60942047470572902
29.009497869018190385759 996.53735175933491064 29.009497869018190385759 191.95507313449780895
30.009497869018190385759 1001.56454316720203224 30.009497869018190385759 192.28092735609217812
31.009497869018218807469 1006.39688193164761287 31.009497869018218807469 192.58043907562529284
32.009497869018190385759 1011.04718300955914856 32.009497869018190385759 192.86158074883687163
33.009497869018190385759 1015.52703251829007058 33.009497869018190385759 193.14885929090206673
34.009497869018218807469 1019.84734343943500789 34.009497869018218807469 193.41863317170580672
35.009497869018190385759 1024.01736420116185400 35.009497869018190385759 193.67959053757854804
36.009497869018190385759 1028.04568285042842035 36.009497869018190385759 193.93460948062792681
37.009497869018190385759 1031.94027388340646212 37.009497869018190385759 194.18053477001663509
38.009497869018218807469 1035.70818471708457764 38.009497869018218807469 194.41737810248201868
39.009497869018190385759 1039.35602505435099374 39.009497869018190385759 194.64115047914256706
40.009497869018190385759 1042.88993062756117070 40.009497869018190385759 194.85065871332710685
41.009497869018218807469 1046.31566830021733949 41.009497869018218807469 195.05901111983013152
42.009497869018190385759 1049.63852628785434717 42.009497869018190385759 195.25617101400524689
43.009497869018190385759 1052.86341255735192135 43.009497869018190385759 195.44551749726542766
44.009497869018218807469 1055.99512801598962142 44.009497869018218807469 195.62543393875230890
46.009497869018190385759 1061.99637795611647562 46.009497869018190385759 195.96637587591786200
48.009497869018218807469 1067.67383702320807970 48.009497869018218807469 196.28587960822881087
50.009497869018190385759 1073.05487017185555487 50.009497869018190385759 196.58527969229416499
52.009497869018190385759 1078.16385931751074168 52.009497869018190385759 196.86708866116075001
54.009497869018218807469 1083.02245928669890418 54.009497869018218807469 197.13319174787253019
56.009497869018190385759 1087.65006476026246673 56.009497869018190385759 197.38264909407700998
58.009497869018218807469 1092.06383718139227312 58.009497869018218807469 197.61312336062792383
60.009497869018190385759 1096.27923636105583682 60.009497869018190385759 197.83464934299183824
62.009497869018190385759 1100.31018610353703480 62.009497869018190385759 198.04426830689635608
64.009497869018218807469 1104.16926169639486943 64.009497869018218807469 198.24214041414623466
66.009497869018190385759 1107.86782620380699882 66.009497869018190385759 198.42395932683550086
68.009497869018190385759 1111.41616274371972395 68.009497869018190385759 198.59445363302961596
70.009497869018190385759 1114.82378811976900579 70.009497869018190385759 198.75952399951847838
72.009497869018190385759 1118.09938532659703014 72.009497869018190385759 198.91534097160271699
74.009497869018218807469 1121.25089355636714572 74.009497869018218807469 199.06430299662417838
76.009497869018190385759 1124.28544660809188827 76.009497869018190385759 199.20590515496249395
78.009497869018190385759 1127.20958239112906085 78.009497869018190385759 199.33772206375886071
80.009497869018218807469 1130.02945354459325245 80.009497869018218807469 199.46841940639208701
82.009497869018190385759 1132.75097589931033326 82.009497869018190385759 199.59719494096322023
84.009497869018218807469 1135.37953086853394780 84.009497869018218807469 199.71711901782708765
86.009497869018190385759 1137.92007943711723783 86.009497869018190385759 199.83282869527121761
88.009497869018190385759 1140.37708327311952416 88.009497869018190385759 199.94468620745180942
91.009497869018218807469 1143.91499658831617126 91.009497869018218807469 200.10817218848029597
94.009497869018218807469 1147.28733146598460735 94.009497869018218807469 200.27218508317508849
97.009497869018218807469 1150.50625137470092341 97.009497869018218807469 200.45012213713880556
99.504748934509137825444 1153.07493149520178122 99.504748934509137825444 200.51558504783523063
nan nan nan nan

