Time Pressure difference Time.1 Pressure.1 difference.1
(hr) (psi) (hr) (psi)
0.000200000000020850166 0.46015091487429155 0.000200000000020850166 0.36736010857053825
0.000399999999999067768 0.91900585773780064 0.000399999999999067768 0.95661921293152719
0.000600000000019917934 1.37675996155173097 0.000600000000019917934 1.39731066436670437
0.000799999999998135536 1.83351069951374845 0.000799999999998135536 1.84458678615382121
0.001007140329434719206 2.30558096146807445 0.001007140329434719206 2.31269400067340225
0.001267914553977789183 2.89853454276764344 0.001267914553977789183 2.90420403363415458
0.001596209851982166583 3.64299879259930615 0.001596209851982166583 3.64523272312283941
0.002009509145224797066 4.57719851568220282 0.002009509145224797066 4.57269610004447902
0.002529822128153114136 5.74875937403943293 0.002529822128153114136 5.73218571733167170
0.003184857364431081805 7.21689848558557845 0.003184857364431081805 7.17978793635380708
0.004009497869034817086 9.05506494897451830 0.004009497869034817086 8.98417936534213801
0.005047658755856332391 11.35409435733006589 0.005047658755856332391 11.22897749005603529
0.006354625877790454069 14.22593017728655163 0.006354625877790454069 14.01530022305385614
0.008000000000009777068 17.80795444077392986 0.008000000000009777068 17.46442094358680208
0.010071403294361402914 22.26792793739489795 0.010071403294361402914 21.72027788255903857
0.012679145539692626699 27.80947064300669780 0.012679145539692626699 26.95148851394759859
0.015962098519750611558 34.67792074061484442 0.015962098519750611558 33.35240174129483393
0.020095091452091651263 43.16628646242395462 0.020095091452091651263 41.14220787084267528
0.025298221281360611101 53.62067597948883702 0.025298221281360611101 50.56118543387741227
0.031848573644296607199 66.44449304105455667 0.031848573644296607199 61.86271546167927227
0.040094978690191851456 82.10014998324896851 0.040094978690191851456 75.29900950601532372
0.050476587558435426217 101.10663671654181428 0.050476587558435426217 91.09889388704316104
0.063546258777947173257 124.03093078243456659 0.063546258777947173257 109.43583530956765060
0.080000000000012505552 151.47074943889373344 0.080000000000012505552 130.38545306920721600
0.100714032943542974863 184.02628252041725432 0.100714032943542974863 153.87120828786029847
0.126791455396883634421 222.25781264806431636 0.126791455396883634421 179.60880057650012986
0.159620985197506115583 266.63172492828192617 0.159620985197506115583 207.04725693218799165
0.200950914520774404082 317.45092219388607191 0.200950914520774404082 235.34043982271643358
0.252982212813464002465 374.78770370974478965 0.252982212813464002465 263.35192258525182751
0.318485736442809752589 438.41654342710643277 0.318485736442809752589 289.72428183476233698
0.400949786901833249431 507.77911966337501326 0.400949786901833249431 313.04269679286051087
0.504765875584169521062 581.99274544791853714 0.504765875584169521062 332.03675007736796942
0.635462587779443310865 659.90863656345959498 0.635462587779443310865 345.82884043438099297
0.800000000000011368684 740.23473600946476836 0.800000000000011368684 354.13831796958385212
1.007140329435344483500 821.68748631351036238 1.007140329435344483500 357.34254386367769030
1.267914553968907398485 903.14167331298722274 1.267914553968907398485 356.42374096279331752
1.596209851975117999245 983.75582674303655040 1.596209851975117999245 352.74236393075096885
2.009509145207687197399 1063.01564657774292755 2.009509145207687197399 347.74930662289438033
2.529822128134725289783 1140.72470775149417932 2.529822128134725289783 342.79307672427904663
3.184857364427983839050 1216.95655077818810241 3.184857364427983839050 338.86392583776694210
4.009497869018204596614 1291.92704613871387664 4.009497869018204596614 336.54167546789273047
5.009497869018190385759 1363.49941336713595774 5.009497869018190385759 336.02779452790804271
6.009497869018190385759 1421.49677238229855902 6.009497869018190385759 336.87280889091215386
7.009497869018204596614 1470.27298860797327507 7.009497869018204596614 338.41571258284193391
8.009497869018190385759 1512.35794142643726445 8.009497869018190385759 340.26547410126499926
9.009497869018204596614 1549.35296330146661603 9.009497869018204596614 342.25187499380979261
10.009497869018190385759 1582.33768928315043922 10.009497869018190385759 344.25425559662249952
11.009497869018190385759 1612.07613960445769408 11.009497869018190385759 346.12009276867530616
12.009497869018204596614 1639.12943787864674050 12.009497869018204596614 347.91358868421247053
13.009497869018190385759 1663.92062787787881462 13.009497869018190385759 349.62239304139336582
14.009497869018204596614 1686.78255231120351709 14.009497869018204596614 351.24214714239752766
15.009497869018190385759 1707.97720074307312643 15.009497869018190385759 352.78529297519526153
16.009497869018190385759 1727.71678167899449363 16.009497869018190385759 354.24187976224737895
17.009497869018204596614 1746.17531210786160045 17.009497869018204596614 355.59200542552554225
18.009497869018190385759 1763.49568945554869970 18.009497869018190385759 356.85098060543572274
19.009497869018204596614 1779.79648276966418052 19.009497869018204596614 357.98129607943849351
20.009497869018190385759 1795.17938498696639726 20.009497869018190385759 359.04884907732508736
21.009497869018190385759 1809.73100389050705417 21.009497869018190385759 360.05995932461343045
22.009497869018204596614 1823.52547343221817755 22.009497869018204596614 361.03458487838520341
23.009497869018190385759 1836.63409950522350300 23.009497869018190385759 361.99337967346127698
24.009497869018204596614 1849.11674889577648173 24.009497869018204596614 362.90318801731950771
25.009497869018204596614 1861.02469889109079304 25.009497869018204596614 363.78106739007637316
26.009497869018190385759 1872.40290758460901088 26.009497869018190385759 364.59576615133363475
27.009497869018204596614 1883.29237963985224269 27.009497869018204596614 365.34468888086280458
28.009497869018190385759 1893.72579137909519886 28.009497869018190385759 366.04006532064471457
29.009497869018190385759 1903.72997542990196962 29.009497869018190385759 366.70038109141995619
30.009497869018190385759 1913.33364453320655230 30.009497869018190385759 367.32287501818984765
31.009497869018218807469 1922.56507789700958710 31.009497869018218807469 367.89504568240141680
32.009497869018190385759 1931.44875650791618682 32.009497869018190385759 368.43212322364013289
33.009497869018190385759 1940.00681384528525086 33.009497869018190385759 368.98092430055078239
34.009497869018218807469 1948.26009746705858561 34.009497869018218807469 369.49628543836217887
35.009497869018190385759 1956.22627506015032850 35.009497869018190385759 369.99480399247767082
36.009497869018190385759 1963.92175275564568437 36.009497869018190385759 370.48197811126851775
37.009497869018190385759 1971.36176459105968206 37.009497869018190385759 370.95178021582489691
38.009497869018218807469 1978.55977356298217273 38.009497869018218807469 371.40423265094841554
39.009497869018190385759 1985.52840648313940619 39.009497869018190385759 371.83171505325856288
40.009497869018190385759 1992.27938471609968474 40.009497869018190385759 372.23194802476967880
41.009497869018218807469 1998.82372495972549586 41.009497869018218807469 372.62997296684790172
42.009497869018190385759 2005.17152952921128417 42.009497869018190385759 373.00661635089272750
43.009497869018190385759 2011.33217433369986793 43.009497869018190385759 373.36833342581053330
44.009497869018218807469 2017.31483076157996948 44.009497869018218807469 373.71203586920273665
46.009497869018190385759 2028.77928754375398057 46.009497869018190385759 374.36335253537407652
48.009497869018218807469 2039.62519210640425626 48.009497869018218807469 374.97371483778880474
50.009497869018190385759 2049.90482094899289223 50.009497869018190385759 375.54567223976198420
52.009497869018190385759 2059.66475193758969908 52.009497869018190385759 376.08402454580362928
54.009497869018218807469 2068.94635325803847081 54.009497869018218807469 376.59237320110821656
56.009497869018190385759 2077.78667543857045530 56.009497869018190385759 377.06892275213334642
58.009497869018218807469 2086.21850275341830638 58.009497869018218807469 377.50920807513062982
60.009497869018190385759 2094.27136877249949976 60.009497869018190385759 377.93239908971543173
62.009497869018190385759 2101.97187276330851091 62.009497869018190385759 378.33284359317440249
64.009497869018218807469 2109.34403786138864234 64.009497869018218807469 378.71084754978278397
66.009497869018190385759 2116.40957143761761472 66.009497869018190385759 379.05818436919605574
68.009497869018190385759 2123.18811779317502442 68.009497869018190385759 379.38388728516690662
70.009497869018190385759 2129.69785730466264795 70.009497869018190385759 379.69922860597665704
72.009497869018190385759 2135.95537748598144390 72.009497869018190385759 379.99689275264796606
74.009497869018218807469 2141.97584493181875587 74.009497869018218807469 380.28146158665447274
76.009497869018190385759 2147.77288765821685956 76.009497869018190385759 380.55197053741107993
78.009497869018190385759 2153.35899532650182664 78.009497869018190385759 380.80378628731858726
80.009497869018218807469 2158.74592159898156751 80.009497869018218807469 381.05346327979731313
82.009497869018190385759 2163.94496775247580445 82.009497869018190385759 381.29946895618496683
84.009497869018218807469 2168.96641414195801190 84.009497869018218807469 381.52856529612483882
86.009497869018190385759 2173.81973795918293035 86.009497869018190385759 381.74961067993189090
88.009497869018190385759 2178.51346252864868802 88.009497869018190385759 381.96329709975282185
91.009497869018218807469 2185.27209693078293640 91.009497869018218807469 382.27561169799338359
94.009497869018218807469 2191.71441942122555702 94.009497869018218807469 382.58893288303107738
97.009497869018218807469 2197.86366641925633303 97.009497869018218807469 382.92885401370654108
99.504748934509137825444 2202.77073120117893268 99.504748934509137825444 383.05391074655420880
nan nan nan nan

