Time Pressure difference Time.1 Pressure.1 difference.1
(hr) (psi) (hr) (psi)
0.000200000000020850166 0.35051206873095858 0.000200000000020850166 0.27983026320716092
0.000399999999999067768 0.70003695300605029 0.000399999999999067768 0.72868828133051344
0.000600000000019917934 1.04872329201232928 0.000600000000019917934 1.06437743747788671
0.000799999999998135536 1.39664533428664606 0.000799999999998135536 1.40508235335182774
0.001007140329434719206 1.75623676126268458 0.001007140329434719206 1.76165499690284455
0.001267914553977789183 2.20790898384105727 0.001267914553977789183 2.21222762128811068
0.001596209851982166583 2.77499186006661969 0.001596209851982166583 2.77669351833544775
0.002009509145224797066 3.48660247945467461 0.002009509145224797066 3.48317284155012663
0.002529822128153114136 4.37901887336577733 0.002529822128153114136 4.36639417457394430
0.003184857364431081805 5.49734866591536875 0.003184857364431081805 5.46908034141030086
0.004009497869034817086 6.89754044849683456 0.004009497869034817086 6.84354457071188094
0.005047658755856332391 8.64878667652217992 0.005047658755856332391 8.55348104838203405
0.006354625877790454069 10.83635836609192182 0.006354625877790454069 10.67591461034066214
0.008000000000009777068 13.56490392419963698 0.008000000000009777068 13.30322317363471285
0.010071403294361402914 16.96221225556073264 0.010071403294361402914 16.54504921740056744
0.012679145539692626699 21.18338738510618313 0.012679145539692626699 20.52983421098535644
0.015962098519750611558 26.41531146667773555 0.015962098519750611558 25.40562009896465412
0.020095091452091651263 32.88117849664785552 0.020095091452091651263 31.33937133843972944
0.025298221281360611101 40.84463043924962022 0.025298221281360611101 38.51411598031817363
0.031848573644296607199 50.61295318289715794 0.031848573644296607199 47.12286268019612123
0.040094978690191851456 62.53838139518241945 0.040094978690191851456 57.35772926270481520
0.050476587558435426217 77.01624674075928567 0.050476587558435426217 69.39302025330724177
0.063546258777947173257 94.47843463932740349 0.063546258777947173257 83.36087093977896245
0.080000000000012505552 115.38024596247861098 0.080000000000012505552 99.31888302383654832
0.100714032943542974863 140.17886502457776032 0.100714032943542974863 117.20875432757588896
0.126791455396883634421 169.30107750448217985 0.126791455396883634421 136.81392390484305110
0.159620985197506115583 203.10214425944940331 0.159620985197506115583 157.71469751874246867
0.200950914520774404082 241.81279632819476433 0.200950914520774404082 179.26654441369373671
0.252982212813464002465 285.48810643594276826 0.252982212813464002465 200.60381106674415719
0.318485736442809752589 333.95628398238073942 0.318485736442809752589 220.69250349146156509
0.400949786901833249431 386.79203699989938059 0.400949786901833249431 238.45490622127641700
0.504765875584169521062 443.32299382494875317 0.504765875584169521062 252.92330060044994866
0.635462587779443310865 502.67408777938624098 0.635462587779443310865 263.42918892293999988
0.800000000000011368684 563.86111659926746142 0.800000000000011368684 269.75879094434003491
1.007140329435344483500 625.90635239043569982 1.007140329435344483500 272.19955507305417086
1.267914553968907398485 687.95268255971234339 1.267914553968907398485 271.49967271895087606
1.596209851975117999245 749.35913156238518695 1.596209851975117999245 268.69544689309913110
2.009509145207687197399 809.73394017293765046 2.009509145207687197399 264.89207110985819327
2.529822128134725289783 868.92748496593958407 2.529822128134725289783 261.11674797408983295
3.184857364427983839050 926.99578416677877613 3.184857364427983839050 258.12378466342539696
4.009497869018204596614 984.10327341252207134 4.009497869018204596614 256.35485026615651805
5.009497869018190385759 1038.62229682478596260 5.009497869018190385759 255.96341027216095654
6.009497869018190385759 1082.80079051503616938 6.009497869018190385759 256.60708547286088788
7.009497869018204596614 1119.95523680968358349 7.009497869018204596614 257.78236590245364823
8.009497869018190385759 1152.01272794576993874 8.009497869018190385759 259.19139001937514877
9.009497869018204596614 1180.19305146790429717 9.009497869018204596614 260.70449683643994376
10.009497869018190385759 1205.31860086189408321 10.009497869018190385759 262.22977592378100553
11.009497869018190385759 1227.97135543877448072 11.009497869018190385759 263.65104539418950935
12.009497869018204596614 1248.57874148878886444 12.009497869018204596614 265.01721015295606776
13.009497869018190385759 1267.46300535101954665 13.009497869018190385759 266.31886256943681701
14.009497869018204596614 1284.87768425149465656 14.009497869018204596614 267.55268248030995437
15.009497869018190385759 1301.02234424833386583 15.009497869018190385759 268.72814735655668983
16.009497869018190385759 1316.05863153165296353 16.009497869018190385759 269.83767736402234050
17.009497869018204596614 1330.11910055869611824 17.009497869018204596614 270.86611243605017307
18.009497869018190385759 1343.31260099321593771 18.009497869018190385759 271.82511519042213877
19.009497869018204596614 1355.72945077400413538 19.009497869018204596614 272.68611362007766274
20.009497869018190385759 1367.44711275180452503 20.009497869018190385759 273.49930380980356404
21.009497869018190385759 1378.53155892020572537 21.009497869018190385759 274.26949970214235464
22.009497869018204596614 1389.03925954584133251 22.009497869018204596614 275.01190400483494614
23.009497869018190385759 1399.02453067004375953 23.009497869018190385759 275.74224949855710065
24.009497869018204596614 1408.53297479064576692 24.009497869018204596614 276.43528040308450500
25.009497869018204596614 1417.60365150187772088 25.009497869018204596614 277.10398996139389283
26.009497869018190385759 1426.27080686047838753 26.009497869018190385759 277.72457277231552553
27.009497869018204596614 1434.56567546573592153 27.009497869018204596614 278.29505181899662603
28.009497869018190385759 1442.51314794580889611 28.009497869018190385759 278.82474289767520759
29.009497869018190385759 1450.13366359461838329 29.009497869018190385759 279.32772711295888257
30.009497869018190385759 1457.44909385020423542 30.009497869018190385759 279.80190118714102709
31.009497869018218807469 1464.48097991432882736 31.009497869018218807469 280.23774237901335482
32.009497869018190385759 1471.24796975873778138 32.009497869018190385759 280.64685198623851647
33.009497869018190385759 1477.76692318178766072 33.009497869018190385759 281.06489179572645298
34.009497869018218807469 1484.05372045324702412 34.009497869018218807469 281.45745930503397858
35.009497869018190385759 1490.12181963065609125 35.009497869018190385759 281.83719726502806679
36.009497869018190385759 1495.98371780303705236 36.009497869018190385759 282.20829379594817965
37.009497869018190385759 1501.65101923723295840 37.009497869018190385759 282.56615749292075179
38.009497869018218807469 1507.13397914003348887 38.009497869018218807469 282.91080537671524553
39.009497869018190385759 1512.44221576874519997 39.009497869018190385759 283.23643276620055076
40.009497869018190385759 1517.58465767183042772 40.009497869018190385759 283.54130336904842125
41.009497869018218807469 1522.56969662997153137 41.009497869018218807469 283.84449204333901662
42.009497869018190385759 1527.40502790853270199 42.009497869018190385759 284.13139368244901561
43.009497869018190385759 1532.09779344552566727 43.009497869018190385759 284.40692546153798048
44.009497869018218807469 1536.65497938878456807 44.009497869018218807469 284.66873490397750857
46.009497869018190385759 1545.38783274993534178 46.009497869018190385759 285.16486420564598347
48.009497869018218807469 1553.64951456480616798 48.009497869018218807469 285.62979722300883623
50.009497869018190385759 1561.47984556042433724 50.009497869018190385759 286.06547596602808881
52.009497869018190385759 1568.91430562754999301 52.009497869018190385759 286.47555660348217543
54.009497869018218807469 1575.98440627236868750 54.009497869018218807469 286.86278247449035916
56.009497869018190385759 1582.71837009941668839 56.009497869018190385759 287.22578592310514978
58.009497869018218807469 1589.14116996740563081 58.009497869018218807469 287.56116571787924840
60.009497869018190385759 1595.27530256677755460 60.009497869018190385759 287.88352421635357814
62.009497869018190385759 1601.14102943342277285 62.009497869018190385759 288.18855595003537928
64.009497869018218807469 1606.75664977889186957 64.009497869018218807469 288.47649398196449511
66.009497869018190385759 1612.13869882071230677 66.009497869018190385759 288.74107184801579251
68.009497869018190385759 1617.30214026844737418 68.009497869018190385759 288.98917045909826129
70.009497869018190385759 1622.26082271221571318 70.009497869018190385759 289.22937630274759613
72.009497869018190385759 1627.02738140628912333 72.009497869018190385759 289.45611686212532732
74.009497869018218807469 1631.61336924409306448 74.009497869018218807469 289.67288229163932556
76.009497869018190385759 1636.02916713315448760 76.009497869018190385759 289.87893784618677273
78.009497869018190385759 1640.28428885881544375 78.009497869018190385759 290.07075417553875241
80.009497869018218807469 1644.38768757178740998 80.009497869018218807469 290.26094134309465744
82.009497869018190385759 1648.34797182589295517 82.009497869018190385759 290.44833194857409353
84.009497869018218807469 1652.17297250524597985 84.009497869018218807469 290.62284215697599166
86.009497869018190385759 1655.86990869815031147 86.009497869018190385759 290.79121968760154004
88.009497869018190385759 1659.44527290088421978 88.009497869018190385759 290.95399165360231564
91.009497869018218807469 1664.59354675954955383 91.009497869018218807469 291.19189194323689662
94.009497869018218807469 1669.50087544360508218 94.009497869018218807469 291.43055898310308294
97.009497869018218807469 1674.18495889697874190 97.009497869018218807469 291.68948807542267332
99.504748934509137825444 1677.92283134819035695 99.504748934509137825444 291.78474789719473392
nan nan nan nan

