Time Pressure difference Time.1 Pressure.1 difference.1
(hr) (psi) (hr) (psi)
0.000200000000020850166 0.51330914330742272 0.000200000000020850166 0.40979882147399393
0.000399999999999067768 1.02517259942592220 0.000399999999999067768 1.06713117976838223
0.000600000000019917934 1.53580804375265267 0.000600000000019917934 1.55873283497946447
0.000799999999998135536 2.04532420992688913 0.000799999999998135536 2.05767984448206054
0.001007140329434719206 2.57192966459796013 0.001007140329434719206 2.57986442674397587
0.001267914553977789183 3.23338329861083729 0.001267914553977789183 3.23970774871102440
0.001596209851982166583 4.06385063867575980 0.001596209851982166583 4.06634264059551409
0.002009509145224797066 5.10597235142888373 0.002009509145224797066 5.10094980113264995
0.002529822128153114136 6.41287598042665952 0.002529822128153114136 6.39438767745662950
0.003184857364431081805 8.05061961027416473 0.003184857364431081805 8.00922192178096104
0.004009497869034817086 10.10113743405460696 0.004009497869034817086 10.02206290213256423
0.005047658755856332391 12.66575868741873911 0.005047658755856332391 12.52618788601918887
0.006354625877790454069 15.86935893422940502 0.006354625877790454069 15.63439627770267926
0.008000000000009777068 19.86519105487056081 0.008000000000009777068 19.48197137750296548
0.010071403294361402914 24.84039614676903440 0.010071403294361402914 24.22947965960556971
0.012679145539692626699 31.02211707107967698 0.012679145539692626699 30.06501787295959716
0.015962098519750611558 38.68403432797828856 0.015962098519750611558 37.20538678000037436
0.020095091452091651263 48.15300547613357907 0.020095091452091651263 45.89509831079562474
0.025298221281360611101 59.81512230202906721 0.025298221281360611101 56.40218880530007795
0.031848573644296607199 74.12039115410057377 0.031848573644296607199 69.00931074967111556
0.040094978690191851456 91.58464384412971526 0.040094978690191851456 83.99781204822649272
0.050476587558435426217 112.78682579570909184 0.050476587558435426217 101.62295383067269938
0.063546258777947173257 138.35941376091076904 0.063546258777947173257 122.07824227673791029
0.080000000000012505552 168.96917536685256778 0.080000000000012505552 145.44803248514452321
0.100714032943542974863 205.28563645779399849 0.100714032943542974863 171.64694354133152387
0.126791455396883634421 247.93380544495261120 0.126791455396883634421 200.35783169003084936
0.159620985197506115583 297.43394585862500890 0.159620985197506115583 230.96607361749488518
0.200950914520774404082 354.12395291664546448 0.200950914520774404082 262.52778305133347203
0.252982212813464002465 418.08447814552755517 0.252982212813464002465 293.77524938210399341
0.318485736442809752589 489.06394194576131440 0.318485736442809752589 323.19423497090821229
0.400949786901833249431 566.43952337899952454 0.400949786901833249431 349.20647403968916933
0.504765875584169521062 649.22656441663116311 0.504765875584169521062 370.39478618738883142
0.635462587779443310865 736.14356930725284656 0.635462587779443310865 385.78018662174628162
0.800000000000011368684 825.74921814774234008 0.800000000000011368684 395.04960380000505893
1.007140329435344483500 916.61167245803142123 1.007140329435344483500 398.62399297428311229
1.267914553968907398485 1007.47572943578722970 1.267914553968907398485 397.59904677798965622
1.596209851975117999245 1097.40270925486743181 1.596209851975117999245 393.49238431264274141
2.009509145207687197399 1185.81889816795137449 2.009509145207687197399 387.92251172012407778
2.529822128134725289783 1272.50517940509621440 2.529822128134725289783 382.39372096679500146
3.184857364427983839050 1357.54358913523515184 3.184857364427983839050 378.01066095259920985
4.009497869018204596614 1441.17493594535244483 4.009497869018204596614 375.42013617176479556
5.009497869018190385759 1521.01559108463902703 5.009497869018190385759 374.84688992463384238
6.009497869018190385759 1585.71300601491088855 6.009497869018190385759 375.78952327542185685
7.009497869018204596614 1640.12401978290154148 7.009497869018204596614 377.51066854909083759
8.009497869018190385759 1687.07077220494261383 8.009497869018190385759 379.57412092884794674
9.009497869018204596614 1728.33958722076977210 9.009497869018204596614 381.78999773677702478
10.009497869018190385759 1765.13482306315336245 10.009497869018190385759 384.02370028648499556
11.009497869018190385759 1798.30876223024324645 11.009497869018190385759 386.10508543509268975
12.009497869018204596614 1828.48735127979011850 12.009497869018204596614 388.10577221451859486
13.009497869018190385759 1856.14250546665903130 13.009497869018190385759 390.01198357325114330
14.009497869018204596614 1881.64551864318377739 14.009497869018204596614 391.81885728159141991
15.009497869018190385759 1905.28864631628016468 15.009497869018190385759 393.54027266908065030
16.009497869018190385759 1927.30861205346332099 16.009497869018190385759 395.16512940987161073
17.009497869018204596614 1947.89953588927505734 17.009497869018204596614 396.67122626890761694
18.009497869018190385759 1967.22082325546762149 18.009497869018190385759 398.07564262483617767
19.009497869018204596614 1985.40474070695404407 19.009497869018204596614 399.33653605973461254
20.009497869018190385759 2002.56472910098409557 20.009497869018190385759 400.52741647975972228
21.009497869018190385759 2018.79740145186542577 21.009497869018190385759 401.65533368702369899
22.009497869018204596614 2034.18545592258283250 22.009497869018204596614 402.74255136253077580
23.009497869018190385759 2048.80843591015900529 23.009497869018190385759 403.81210945523292821
24.009497869018204596614 2062.73312421947593975 24.009497869018204596614 404.82702201210014437
25.009497869018204596614 2076.01672186767882522 25.009497869018204596614 405.80631705246787533
26.009497869018190385759 2088.70938066297549085 26.009497869018190385759 406.71513263813028516
27.009497869018204596614 2100.85684226972671240 27.009497869018204596614 407.55057351691920076
28.009497869018190385759 2112.49555789220357838 28.009497869018190385759 408.32628225299356473
29.009497869018190385759 2123.65545995610000318 29.009497869018190385759 409.06287999006769951
30.009497869018190385759 2134.36857819769238631 30.009497869018190385759 409.75728657263778132
31.009497869018218807469 2144.66645873709740044 31.009497869018218807469 410.39555637495323026
32.009497869018190385759 2154.57641068933662609 32.009497869018190385759 410.99467897510754710
33.009497869018190385759 2164.12312447001158944 33.009497869018190385759 411.60687945440503199
34.009497869018218807469 2173.32985601921018315 34.009497869018218807469 412.18177689694550736
35.009497869018190385759 2182.21631405626885680 35.009497869018190385759 412.73788604215019404
36.009497869018190385759 2190.80080000539510365 36.009497869018190385759 413.28134020354502809
37.009497869018190385759 2199.10030779291446379 37.009497869018190385759 413.80541547541474756
38.009497869018218807469 2207.12985570744240249 38.009497869018218807469 414.31013678391002486
39.009497869018190385759 2214.90352925375464110 39.009497869018190385759 414.78700343486241309
40.009497869018190385759 2222.43440388907856686 40.009497869018190385759 415.23347270633161088
41.009497869018218807469 2229.73476899839442922 41.009497869018218807469 415.67747886915520894
42.009497869018190385759 2236.81589395135870291 42.009497869018190385759 416.09763340225941874
43.009497869018190385759 2243.68823779463264145 43.009497869018190385759 416.50113728727603757
44.009497869018218807469 2250.36203142717749870 44.009497869018218807469 416.88454542809978420
46.009497869018190385759 2263.15090198924190190 46.009497869018190385759 417.61110445281804004
48.009497869018218807469 2275.24976303566381830 48.009497869018218807469 418.29197792374270648
50.009497869018190385759 2286.71693022829913389 50.009497869018190385759 418.93000982702687907
52.009497869018190385759 2297.60436226972979057 52.009497869018190385759 419.53055445723225603
54.009497869018218807469 2307.95820634199935739 54.009497869018218807469 420.09762931098356376
56.009497869018190385759 2317.81979317876630375 56.009497869018190385759 420.62923151772270103
58.009497869018218807469 2327.22569440724328160 58.009497869018218807469 421.12038012713128410
60.009497869018190385759 2336.20885541769803240 60.009497869018190385759 421.59245963437564342
62.009497869018190385759 2344.79894831719275317 62.009497869018190385759 422.03916487469632557
64.009497869018218807469 2353.02277147714494276 64.009497869018218807469 422.46083715842189577
66.009497869018190385759 2360.90453997914755746 66.009497869018190385759 422.84829953098045507
68.009497869018190385759 2368.46616750213388514 68.009497869018190385759 423.21162877659412516
70.009497869018190385759 2375.72793468281815876 70.009497869018190385759 423.56339941966353990
72.009497869018190385759 2382.70834528219575077 72.009497869018190385759 423.89545076017407155
74.009497869018218807469 2389.42431799253427016 74.009497869018218807469 424.21289397211637606
76.009497869018190385759 2395.89105518551968999 76.009497869018190385759 424.51465305436829567
78.009497869018190385759 2402.12248937144067895 78.009497869018190385759 424.79555943242405647
80.009497869018218807469 2408.13173203640917563 80.009497869018218807469 425.07407997638040342
82.009497869018190385759 2413.93139001990994075 82.009497869018190385759 425.34850508108718259
84.009497869018218807469 2419.53293129915209647 84.009497869018218807469 425.60406742419706916
86.009497869018190385759 2424.94692790392582538 86.009497869018190385759 425.85064873681932340
88.009497869018190385759 2430.18288780271677751 88.009497869018190385759 426.08902095243183794
91.009497869018218807469 2437.72230307441168407 91.009497869018218807469 426.43741521545115347
94.009497869018218807469 2444.90886498613235744 94.009497869018218807469 426.78693234966283399
97.009497869018218807469 2451.76849430884567482 97.009497869018218807469 427.16612234741995735
99.504748934509137825444 2457.24244022080983996 99.504748934509137825444 427.30562606745581888
nan nan nan nan

