Time Pressure difference Time.1 Pressure.1 difference.1
(hr) (psi) (hr) (psi)
0.000200000000020850166 0.04817464451752512 0.000200000000020850166 0.03846008356875671
0.000399999999999067768 0.09621360965486001 0.000399999999999067768 0.10015146994589995
0.000600000000019917934 0.14413732449458555 0.000600000000019917934 0.14628884211781382
0.000799999999998135536 0.19195599381190870 0.000799999999998135536 0.19311558410996685
0.001007140329434719206 0.24137851221145903 0.001007140329434719206 0.24212319862645734
0.001267914553977789183 0.30345668498289413 0.001267914553977789183 0.30405024178841333
0.001596209851982166583 0.38139698550678658 0.001596209851982166583 0.38163086270961133
0.002009509145224797066 0.47920128864542921 0.002009509145224797066 0.47872991661115477
0.002529822128153114136 0.60185567453842437 0.002529822128153114136 0.60012052636324364
0.003184857364431081805 0.75555976924903168 0.003184857364431081805 0.75167454929335886
0.004009497869034817086 0.94800318960383034 0.004009497869034817086 0.94058195521632493
0.005047658755856332391 1.18869579914285906 0.005047658755856332391 1.17559692134160665
0.006354625877790454069 1.48935731097945845 0.006354625877790454069 1.46730579952549389
0.008000000000009777068 1.86437068152506846 0.008000000000009777068 1.82840508073652441
0.010071403294361402914 2.33129931474531382 0.010071403294361402914 2.27396411044841917
0.012679145539692626699 2.91146082544113449 0.012679145539692626699 2.82163598160462259
0.015962098519750611558 3.63054043854812436 0.015962098519750611558 3.49176769132689557
0.020095091452091651263 4.51921410617434915 0.020095091452091651263 4.30730696120735601
0.025298221281360611101 5.61371697980208051 0.025298221281360611101 5.29340930535178700
0.031848573644296607199 6.95628266494795078 0.031848573644296607199 6.47660197974259511
0.040094978690191851456 8.59532256142317586 0.040094978690191851456 7.88328980387886169
0.050476587558435426217 10.58517135299535106 0.050476587558435426217 9.53742932391426557
0.063546258777947173257 12.98518769924405269 0.063546258777947173257 11.45718131399805628
0.080000000000012505552 15.85794849721269806 0.080000000000012505552 13.65046259569317399
0.100714032943542974863 19.26628950574765398 0.100714032943542974863 16.10926007345829802
0.126791455396883634421 23.26886847218001719 0.126791455396883634421 18.80380944663719944
0.159620985197506115583 27.91451271812337609 0.159620985197506115583 21.67642762105939269
0.200950914520774404082 33.23493409250070130 0.200950914520774404082 24.63852980093421152
0.252982212813464002465 39.23770183242815079 0.252982212813464002465 27.57113990964730021
0.318485736442809752589 45.89920490753100069 0.318485736442809752589 30.33214502963216219
0.400949786901833249431 53.16099086728475243 0.400949786901833249431 32.77342312993846463
0.504765875584169521062 60.93064844039580663 0.504765875584169521062 34.76197022470639553
0.635462587779443310865 69.08790779906256319 0.635462587779443310865 36.20590748229981415
0.800000000000011368684 77.49749943781399963 0.800000000000011368684 37.07585278381925065
1.007140329435344483500 86.02504369347219892 1.007140329435344483500 37.41131325648611750
1.267914553968907398485 94.55273836128748144 1.267914553968907398485 37.31512089502167839
1.596209851975117999245 102.99248727634677891 1.596209851975117999245 36.92970597108945441
2.009509145207687197399 111.29044675362651162 2.009509145207687197399 36.40696711936439556
2.529822128134725289783 119.42605243607700061 2.529822128134725289783 35.88808384478011959
3.184857364427983839050 127.40700351107383881 3.184857364427983839050 35.47672869781676042
4.009497869018204596614 135.25590013726608163 4.009497869018204596614 35.23360501288406965
5.009497869018190385759 142.74903605648717075 5.009497869018190385759 35.17980520328278971
6.009497869018190385759 148.82096172955473889 6.009497869018190385759 35.26827241096192012
7.009497869018204596614 153.92749700227878407 7.009497869018204596614 35.42980384441305830
8.009497869018190385759 158.33350289302049418 8.009497869018190385759 35.62346118749705681
9.009497869018204596614 162.20662792686835019 9.009497869018204596614 35.83142373581402751
10.009497869018190385759 165.65990248812764207 10.009497869018190385759 36.04105925018790657
11.009497869018190385759 168.77331425461829895 11.009497869018190385759 36.23639960394073967
12.009497869018204596614 171.60560901978610104 12.009497869018204596614 36.42416632433993584
13.009497869018190385759 174.20107656483207847 13.009497869018190385759 36.60306641949605932
14.009497869018204596614 176.59456323835706826 14.009497869018204596614 36.77264356364450038
15.009497869018190385759 178.81349755071883578 15.009497869018190385759 36.93420034758361936
16.009497869018190385759 180.88009627686224690 16.009497869018190385759 37.08669499315946894
17.009497869018204596614 182.81257780190608742 17.009497869018204596614 37.22804388931495367
18.009497869018190385759 184.62590250617657262 18.009497869018190385759 37.35984995508172091
19.009497869018204596614 186.33248375566881805 19.009497869018204596614 37.47818623214337919
20.009497869018190385759 187.94296810332861014 20.009497869018190385759 37.58995170845641098
21.009497869018190385759 189.46642278998089637 21.009497869018190385759 37.69580801593426145
22.009497869018204596614 190.91060913189286907 22.009497869018204596614 37.79784462625693209
23.009497869018190385759 192.28299236697287711 23.009497869018190385759 37.89822386473060334
24.009497869018204596614 193.58984013710295358 24.009497869018204596614 37.99347455776991467
25.009497869018204596614 194.83652082253297522 25.009497869018204596614 38.08538250654229529
26.009497869018190385759 196.02774122726955852 26.009497869018190385759 38.17067587865947331
27.009497869018204596614 197.16779425832388029 27.009497869018204596614 38.24908295142607528
28.009497869018190385759 198.26010090250454709 28.009497869018190385759 38.32188409494114012
29.009497869018190385759 199.30747035186698213 29.009497869018190385759 38.39101462689955468
30.009497869018190385759 200.31290863344040076 30.009497869018190385759 38.45618547121843278
31.009497869018218807469 201.27937638632951689 31.009497869018218807469 38.51608781512505431
32.009497869018190385759 202.20943660191181834 32.009497869018190385759 38.57231614976737433
33.009497869018190385759 203.10540650365803117 33.009497869018190385759 38.62977185818041193
34.009497869018218807469 203.96946868788700158 34.009497869018218807469 38.68372663434116276
35.009497869018190385759 204.80347284023233101 35.009497869018190385759 38.73591810751571529
36.009497869018190385759 205.60913657008566702 36.009497869018190385759 38.78692189612558394
37.009497869018190385759 206.38805477668131516 37.009497869018190385759 38.83610695400332702
38.009497869018218807469 207.14163694341692690 38.009497869018218807469 38.88347562049640516
39.009497869018190385759 207.87120501087019875 39.009497869018190385759 38.92823009582851057
40.009497869018190385759 208.57798612551226825 40.009497869018190385759 38.97013174266541569
41.009497869018218807469 209.26313366004347927 41.009497869018218807469 39.01180222396602915
42.009497869018190385759 209.92770525757083533 42.009497869018190385759 39.05123420280104796
43.009497869018190385759 210.57268251147036153 43.009497869018190385759 39.08910349945308838
44.009497869018218807469 211.19902560319789586 44.009497869018218807469 39.12508678775046889
46.009497869018190385759 212.39927559122332923 46.009497869018190385759 39.19327517518357951
48.009497869018218807469 213.53476740464162731 48.009497869018218807469 39.25717592164575365
50.009497869018190385759 214.61097403437113940 50.009497869018190385759 39.31705593845883584
52.009497869018190385759 215.63277186350214265 52.009497869018190385759 39.37341773223214858
54.009497869018218807469 216.60449185733975241 54.009497869018218807469 39.42663834957451030
56.009497869018190385759 217.53001295205248766 56.009497869018190385759 39.47652981881540057
58.009497869018218807469 218.41276743627850010 58.009497869018218807469 39.52262467212558761
60.009497869018190385759 219.25584727221115600 60.009497869018190385759 39.56692986859836481
62.009497869018190385759 220.06203722070739559 62.009497869018190385759 39.60885366137927122
64.009497869018218807469 220.83385233927896252 64.009497869018218807469 39.64842808282924125
66.009497869018190385759 221.57356524076141113 66.009497869018190385759 39.68479186536709591
68.009497869018190385759 222.28323254874393911 68.009497869018190385759 39.71889072660592035
70.009497869018190385759 222.96475762395380116 70.009497869018190385759 39.75190479990369852
72.009497869018190385759 223.61987706531937192 72.009497869018190385759 39.78306819432054198
74.009497869018218807469 224.25017871127343483 74.009497869018218807469 39.81286059932483568
76.009497869018190385759 224.85708932161836060 76.009497869018190385759 39.84118103099249453
78.009497869018190385759 225.44191647822583491 78.009497869018190385759 39.86754441275176930
80.009497869018218807469 226.00589070891865617 80.009497869018218807469 39.89368388127842024
82.009497869018190385759 226.55019517986207234 82.009497869018190385759 39.91943898819264547
84.009497869018218807469 227.07590617370678387 84.009497869018218807469 39.94342380356541611
86.009497869018190385759 227.58401588742347599 86.009497869018190385759 39.96656573905423926
88.009497869018190385759 228.07541665462389346 88.009497869018190385759 39.98893724149036188
91.009497869018218807469 228.78299931766321151 91.009497869018218807469 40.02163443769605777
94.009497869018218807469 229.45746629319691579 94.009497869018218807469 40.05443701663502054
97.009497869018218807469 230.10125027494021310 97.009497869018218807469 40.09002442742776395
99.504748934509137825444 230.61498629904039603 99.504748934509137825444 40.10311700956705039
nan nan nan nan

