Time Pressure difference Time.1 Pressure.1 difference.1
(hr) (psi) (hr) (psi)
0.000200000000020850166 0.64039053315537686 0.000200000000020850166 0.51125386950881757
0.000399999999999067768 1.27897746627408737 0.000399999999999067768 1.33132385048773894
0.000600000000019917934 1.91603236526423193 0.000600000000019917934 1.94463271160059414
0.000799999999998135536 2.55169088325830362 0.000799999999998135536 2.56710543704800775
0.001007140329434719206 3.20866953301784363 0.001007140329434719206 3.21856872656894133
0.001267914553977789183 4.03388110554847135 0.001267914553977789183 4.04177131756666608
0.001596209851982166583 5.06994958320228317 0.001596209851982166583 5.07305853705362608
0.002009509145224797066 6.37007230251079193 0.002009509145224797066 6.36380630529655811
0.002529822128153114136 8.00052974257112481 0.002529822128153114136 7.97746423838035934
0.003184857364431081805 10.04373417398281809 0.003184857364431081805 9.99208754319275450
0.004009497869034817086 12.60190446869919256 0.004009497869034817086 12.50325323227218099
0.005047658755856332391 15.80145622653697046 0.005047658755856332391 15.62733148886859880
0.006354625877790454069 19.79818080629590682 0.006354625877790454069 19.50504778334751421
0.008000000000009777068 24.78327233544530728 0.008000000000009777068 24.30517788358379860
0.010071403294361402914 30.99020295980409045 0.010071403294361402914 30.22804015785743559
0.012679145539692626699 38.70234993819163094 0.012679145539692626699 37.50829899684764968
0.015962098519750611558 48.26114962276903242 0.015962098519750611558 46.41642913815580584
0.020095091452091651263 60.07438061828315767 0.020095091452091651263 57.25747701880813167
0.025298221281360611101 74.62372054185179593 0.025298221281360611101 70.36583749010736710
0.031848573644296607199 92.47058508060121085 0.031848573644296607199 86.09414011002657219
0.040094978690191851456 114.25851198029774025 0.040094978690191851456 104.79338687570002264
0.050476587558435426217 140.70977781309338184 0.050476587558435426217 126.78203463341205293
0.063546258777947173257 172.61344338133042697 0.063546258777947173257 152.30149643262933523
0.080000000000012505552 210.80134985087914856 0.080000000000012505552 181.45701140136961271
0.100714032943542974863 256.10877946433521402 0.100714032943542974863 214.14206063166116678
0.126791455396883634421 309.31547572501369814 0.126791455396883634421 249.96098419581517192
0.159620985197506115583 371.07050527022630604 0.159620985197506115583 288.14699475580670196
0.200950914520774404082 441.79541698824215246 0.200950914520774404082 327.52252545724616084
0.252982212813464002465 521.59082953107076719 0.252982212813464002465 366.50601500582877179
0.318485736442809752589 610.14287902942078290 0.318485736442809752589 403.20834168700679356
0.400949786901833249431 706.67455101166456188 0.400949786901833249431 435.66050402038894163
0.504765875584169521062 809.95741288870965491 0.504765875584169521062 462.09446626290736049
0.635462587779443310865 918.39270539788333281 0.635462587779443310865 481.28887360091647452
0.800000000000011368684 1030.18227700956208537 0.800000000000011368684 492.85314648835583284
1.007140329435344483500 1143.53980495977702958 1.007140329435344483500 497.31245725432410154
1.267914553968907398485 1256.89933235435591996 1.267914553968907398485 496.03376224244345849
1.596209851975117999245 1369.08978775971309005 1.596209851975117999245 490.91040178810288808
2.009509145207687197399 1479.39542150079387284 2.009509145207687197399 483.96158015568880728
2.529822128134725289783 1587.54286945198919057 2.529822128134725289783 477.06401110905983387
3.184857364427983839050 1693.63447770755078636 3.184857364427983839050 471.59582458649515502
4.009497869018204596614 1797.97067251434737045 4.009497869018204596614 468.36395629195897072
5.009497869018190385759 1897.57770344054483758 5.009497869018190385759 467.64878985743155226
6.009497869018190385759 1978.29243954287426277 6.009497869018190385759 468.82479360089035936
7.009497869018204596614 2046.17414118546457757 7.009497869018204596614 470.97204765590464604
8.009497869018190385759 2104.74363328480694690 8.009497869018190385759 473.54635475103845010
9.009497869018204596614 2156.22948502785357050 9.009497869018204596614 476.31082241918295495
10.009497869018190385759 2202.13422100597290409 10.009497869018190385759 479.09752899818755623
11.009497869018190385759 2243.52112569501241524 11.009497869018190385759 481.69420852824669055
12.009497869018204596614 2281.17111300439819388 12.009497869018204596614 484.19021096665676396
13.009497869018190385759 2315.67293157733683984 13.009497869018190385759 486.56834843847349248
14.009497869018204596614 2347.48979753057437847 14.009497869018204596614 488.82255495810187540
15.009497869018190385759 2376.98632088972817655 15.009497869018190385759 490.97014599977541138
16.009497869018190385759 2404.45783154242735691 16.009497869018190385759 492.99727309872332626
17.009497869018204596614 2430.14650836671717116 17.009497869018204596614 494.87623859761777112
18.009497869018190385759 2454.25122124589915984 18.009497869018190385759 496.62835026496560431
19.009497869018204596614 2476.93698233828718003 19.009497869018204596614 498.20140663763010025
20.009497869018190385759 2498.34531737355746372 20.009497869018190385759 499.68711667620510752
21.009497869018190385759 2518.59675812198702261 21.009497869018190385759 501.09427552216061486
22.009497869018204596614 2537.79447656361026020 22.009497869018204596614 502.45065873869140205
23.009497869018190385759 2556.03770887820792268 23.009497869018190385759 503.78501033978096757
24.009497869018204596614 2573.40977147769626754 24.009497869018204596614 505.05118765587241114
25.009497869018204596614 2589.98202679608493781 25.009497869018204596614 506.27292952662253356
26.009497869018190385759 2605.81704286594504083 26.009497869018190385759 507.40674314562852487
27.009497869018204596614 2620.97188574427082131 27.009497869018204596614 508.44901647499136743
28.009497869018190385759 2635.49203096260362145 28.009497869018190385759 509.41676960688999998
29.009497869018190385759 2649.41482140154175795 29.009497869018190385759 510.33572891964757900
30.009497869018190385759 2662.78021648935418852 30.009497869018190385759 511.20205169498984787
31.009497869018218807469 2675.62757230793249619 31.009497869018218807469 511.99833974933477521
32.009497869018190385759 2687.99095896679318685 32.009497869018190385759 512.74578881845934575
33.009497869018190385759 2699.90117955724690546 33.009497869018190385759 513.50955349408786788
34.009497869018218807469 2711.38724755794646626 34.009497869018218807469 514.22677991512125573
35.009497869018190385759 2722.47375103136437247 35.009497869018190385759 514.92056656714851215
36.009497869018190385759 2733.18352233682844599 36.009497869018190385759 515.59856520539358371
37.009497869018190385759 2743.53776263484996889 37.009497869018190385759 516.25238726787176802
38.009497869018218807469 2753.55520833404216319 38.009497869018218807469 516.88206385177124957
39.009497869018190385759 2763.25343212725738340 39.009497869018190385759 517.47698972213413526
40.009497869018190385759 2772.64874659948145563 40.009497869018190385759 518.03399264819029213
41.009497869018218807469 2781.75648365333654510 41.009497869018218807469 518.58792266685873074
42.009497869018190385759 2790.59070264805404804 42.009497869018190385759 519.11209604068289991
43.009497869018190385759 2799.16445200592488618 43.009497869018190385759 519.61549651859195365
44.009497869018218807469 2807.49049551837197214 44.009497869018218807469 520.09382609233796302
46.009497869018190385759 2823.44554277298630041 46.009497869018190385759 521.00026138045745938
48.009497869018218807469 2838.53975291342567289 48.009497869018218807469 521.84970061360127147
50.009497869018190385759 2852.84587897414030522 50.009497869018190385759 522.64569187158213026
52.009497869018190385759 2866.42874322000261600 52.009497869018190385759 523.39491502674115964
54.009497869018218807469 2879.34591762084392030 54.009497869018218807469 524.10238219865425435
56.009497869018190385759 2891.64896527642213186 56.009497869018190385759 524.76559466045989666
58.009497869018218807469 2903.38351195466748322 58.009497869018218807469 525.37833831394527806
60.009497869018190385759 2914.59065942887582423 60.009497869018190385759 525.96729187395408189
62.009497869018190385759 2925.30742581319645979 62.009497869018190385759 526.52458918833474399
64.009497869018218807469 2935.56724402731197188 64.009497869018218807469 527.05065606657490207
66.009497869018190385759 2945.40032414874212918 66.009497869018190385759 527.53404358962120568
68.009497869018190385759 2954.83400508761360470 68.009497869018190385759 527.98732327953723598
70.009497869018190385759 2963.89358841497232788 70.009497869018190385759 528.42618277113365366
72.009497869018190385759 2972.60215892002133842 72.009497869018190385759 528.84044099691618612
74.009497869018218807469 2980.98082390330728231 74.009497869018218807469 529.23647451861120317
76.009497869018190385759 2989.04854943047894267 76.009497869018190385759 529.61294094646916619
78.009497869018190385759 2996.82271732262279329 78.009497869018190385759 529.96339210744156389
80.009497869018218807469 3004.31968511338436656 80.009497869018218807469 530.31086676664938295
82.009497869018190385759 3011.55518075299414704 82.009497869018190385759 530.65323206718164784
84.009497869018218807469 3018.54351137806770566 84.009497869018218807469 530.97206469911964177
86.009497869018190385759 3025.29786636557719248 86.009497869018190385759 531.27969284156586127
88.009497869018190385759 3031.83010759853505078 88.009497869018190385759 531.57707953774263387
91.009497869018218807469 3041.23607713652290840 91.009497869018218807469 532.01172674937356533
94.009497869018218807469 3050.20183641473840908 94.009497869018218807469 532.44777482457925544
97.009497869018218807469 3058.75972348239474741 97.009497869018218807469 532.92084195770348742
99.504748934509137825444 3065.58886959586425291 99.504748934509137825444 533.09488300648615677
nan nan nan nan

