Time Pressure difference Time.1 Pressure.1 difference.1
(hr) (psi) (hr) (psi)
0.000200000000020850166 0.42028224354944321 0.000200000000020850166 0.33553107389294645
0.000399999999999067768 0.83938080147170968 0.000399999999999067768 0.87373523780388584
0.000600000000019917934 1.25747389990103930 0.000600000000019917934 1.27624403640713435
0.000799999999998135536 1.67465056670389312 0.000799999999998135536 1.68476699240764183
0.001007140329434719206 2.10581943412066019 0.001007140329434719206 2.11231618112047226
0.001267914553977789183 2.64739797588524883 0.001267914553977789183 2.65257624732650177
0.001596209851982166583 3.32735990804196602 0.001596209851982166583 3.32940028501833352
0.002009509145224797066 4.18061813887219280 0.002009509145224797066 4.17650582422835104
0.002529822128153114136 5.25067191924901255 0.002529822128153114136 5.23553424723795313
0.003184857364431081805 6.59160764206913807 0.003184857364431081805 6.55771244728344094
0.004009497869034817086 8.27051058516445003 0.004009497869034817086 8.20576671274931790
0.005047658755856332391 10.37034610976356319 0.005047658755856332391 10.25606969308367056
0.006354625877790454069 12.99335860957941513 0.006354625877790454069 12.80097818206724014
0.008000000000009777068 16.26502698020145843 0.008000000000009777068 15.95125811814967953
0.010071403294361402914 20.33857678036429206 0.010071403294361402914 19.83837654977414289
0.012679145539692626699 25.39998582195196519 0.012679145539692626699 24.61634149468860144
0.015962098519750611558 31.67333555009225776 0.015962098519750611558 30.46266296226567505
0.020095091452091651263 39.42624720214173806 0.020095091452091651263 37.57754004087797028
0.025298221281360611101 48.97484123758366792 0.025298221281360611101 46.18043290531041833
0.031848573644296607199 60.68756945627005450 0.031848573644296607199 56.50276899568540045
0.040094978690191851456 74.98677958758840134 0.040094978690191851456 68.77490759935696474
0.050476587558435426217 92.34649490716634546 0.050476587558435426217 83.20584892932100729
0.063546258777947173257 113.28456854857741121 0.063546258777947173257 99.95403008418993807
0.080000000000012505552 138.34692999292460058 0.080000000000012505552 119.08851850725423560
0.100714032943542974863 168.08176706738470330 0.100714032943542974863 140.53940684775685099
0.126791455396883634421 203.00081805039809524 0.126791455396883634421 164.04702724135208314
0.159620985197506115583 243.53005923052464254 0.159620985197506115583 189.10814441820781440
0.200950914520774404082 289.94614915181648485 0.200950914520774404082 214.94993240125364764
0.252982212813464002465 342.31512288290770130 0.252982212813464002465 240.53442748761267467
0.318485736442809752589 400.43099453811527155 0.318485736442809752589 264.62181698265294472
0.400949786901833249431 463.78381687665654454 0.400949786901833249431 285.91986385773901702
0.504765875584169521062 531.56738122138403924 0.504765875584169521062 303.26822299485235135
0.635462587779443310865 602.73243700561476999 0.635462587779443310865 315.86533079385696965
0.800000000000011368684 676.09887440575676010 0.800000000000011368684 323.45485359676791859
1.007140329435344483500 750.49434670511959666 1.007140329435344483500 326.38145703072370907
1.267914553968907398485 824.89113122088735963 1.267914553968907398485 325.54226160139609192
1.596209851975117999245 898.52066485916327565 1.596209851975117999245 322.17984864433208259
2.009509145207687197399 970.91320788508642181 2.009509145207687197399 317.61940279997213565
2.529822128134725289783 1041.88935401129242564 2.529822128134725289783 313.09259354239208051
3.184857364427983839050 1111.51627201040287218 3.184857364427983839050 309.50387450164271286
4.009497869018204596614 1179.99112878373512103 4.009497869018204596614 307.38282993998865322
5.009497869018190385759 1245.36228007900876946 5.009497869018190385759 306.91347298036362190
6.009497869018190385759 1298.33459715783965294 6.009497869018190385759 307.68527310252983398
7.009497869018204596614 1342.88471522677696157 7.009497869018204596614 309.09449560815528457
8.009497869018190385759 1381.32331834255819558 8.009497869018190385759 310.78398898057776023
9.009497869018204596614 1415.11299536198953319 9.009497869018204596614 312.59828293658438270
10.009497869018190385759 1445.23983894814796258 10.009497869018190385759 314.42717207922555644
11.009497869018190385759 1472.40167263511830242 11.009497869018190385759 316.13134826886226847
12.009497869018204596614 1497.11100282778920700 12.009497869018204596614 317.76945103648290569
13.009497869018190385759 1519.75421968629370895 13.009497869018190385759 319.33020014250007534
14.009497869018204596614 1540.63532756221843556 14.009497869018204596614 320.80961453800205163
15.009497869018190385759 1559.99361656316796143 15.009497869018190385759 322.21905820478121996
16.009497869018190385759 1578.02290889814321417 16.009497869018190385759 323.54944252652916248
17.009497869018204596614 1594.88214427180150778 17.009497869018204596614 324.78258979298908571
18.009497869018190385759 1610.70183910560967888 18.009497869018190385759 325.93248409088533890
19.009497869018204596614 1625.59028931669695339 19.009497869018204596614 326.96486609421640424
20.009497869018190385759 1639.64037690145278248 20.009497869018190385759 327.93992352549906855
21.009497869018190385759 1652.93120571948838915 21.009497869018190385759 328.86342855280577169
22.009497869018204596614 1665.53048656444480002 22.009497869018204596614 329.75361001527602411
23.009497869018190385759 1677.50334720152181944 23.009497869018190385759 330.62933233713249592
24.009497869018204596614 1688.90446740300149031 24.009497869018204596614 331.46031252123407285
25.009497869018204596614 1699.78068165864988259 25.009497869018204596614 332.26213014328271811
26.009497869018190385759 1710.17305277583409406 26.009497869018190385759 333.00624128623616116
27.009497869018204596614 1720.11903266744639041 27.009497869018204596614 333.69027540382057850
28.009497869018190385759 1729.64846649426385738 28.009497869018190385759 334.32540262138303433
29.009497869018190385759 1738.78586203525310339 29.009497869018190385759 334.92850691743404923
30.009497869018190385759 1747.55744428484217678 30.009497869018190385759 335.49706635235389740
31.009497869018218807469 1755.98904226694367026 31.009497869018218807469 336.01966266298762775
32.009497869018190385759 1764.10301587185131211 32.009497869018190385759 336.51020641003952960
33.009497869018190385759 1771.91958087674083799 33.009497869018190385759 337.01145793516013782
34.009497869018218807469 1779.45777855294522851 34.009497869018218807469 337.48216684442462565
35.009497869018190385759 1786.73374581306143227 35.009497869018190385759 337.93749245522332103
36.009497869018190385759 1793.76246731833339254 36.009497869018190385759 338.38245654206110657
37.009497869018190385759 1800.55785718966808417 37.009497869018190385759 338.81155377113242366
38.009497869018218807469 1807.13221195463734148 38.009497869018218807469 339.22480455122729381
39.009497869018190385759 1813.49706440517775263 39.009497869018190385759 339.61524876705567522
40.009497869018190385759 1819.66312033636540946 40.009497869018190385759 339.98080451359834342
41.009497869018218807469 1825.64044193072413691 41.009497869018218807469 340.34434354011739288
42.009497869018190385759 1831.43825621260066328 42.009497869018190385759 340.68835356236775169
43.009497869018190385759 1837.06512673800011726 43.009497869018190385759 341.01873052971137668
44.009497869018218807469 1842.52943026238153834 44.009497869018218807469 341.33265370002987993
46.009497869018190385759 1853.00057670963792589 46.009497869018190385759 341.92753859729117494
48.009497869018218807469 1862.90676390945964158 48.009497869018218807469 342.48501752332333581
50.009497869018190385759 1872.29573898951366573 50.009497869018190385759 343.00741904931328463
52.009497869018190385759 1881.21004418848428941 52.009497869018190385759 343.49912711223220185
54.009497869018218807469 1889.68746344506757850 54.009497869018218807469 343.96343111870169196
56.009497869018190385759 1897.76183713342356896 56.009497869018190385759 344.39869117794125941
58.009497869018218807469 1905.46310901305014340 58.009497869018218807469 344.80082903613009648
60.009497869018190385759 1912.81825378860071396 60.009497869018190385759 345.18735368122020191
62.009497869018190385759 1919.85156609789578397 62.009497869018190385759 345.55310263203290333
64.009497869018218807469 1926.58498764957153071 64.009497869018218807469 345.89835534330342171
66.009497869018190385759 1933.03834503147027135 66.009497869018190385759 346.21559799785774203
68.009497869018190385759 1939.22958051145587888 68.009497869018190385759 346.51308116659646430
70.009497869018190385759 1945.17529927104510534 70.009497869018190385759 346.80110049571158015
72.009497869018190385759 1950.89065163882105480 72.009497869018190385759 347.07297424700334432
74.009497869018218807469 1956.38949013628212015 74.009497869018218807469 347.33288729755804525
76.009497869018190385759 1961.68426201273950937 76.009497869018190385759 347.57995864969313971
78.009497869018190385759 1966.78637479279768741 78.009497869018190385759 347.80995642848955640
80.009497869018218807469 1971.70656377091108880 80.009497869018218807469 348.03800075736000963
82.009497869018190385759 1976.45515105190020222 82.009497869018190385759 348.26269186250829080
84.009497869018218807469 1981.04152627406278953 84.009497869018218807469 348.47193870007066607
86.009497869018190385759 1985.47434550062530434 86.009497869018190385759 348.67383213726628810
88.009497869018190385759 1989.76139357309807565 88.009497869018190385759 348.86900421024358820
91.009497869018218807469 1995.93444232306160302 91.009497869018218807469 349.15425905990008459
94.009497869018218807469 2001.81858524754557038 94.009497869018218807469 349.44043328305724572
97.009497869018218807469 2007.43504550206444037 97.009497869018218807469 349.75090276342149309
99.504748934509137825444 2011.91694943645575222 99.504748934509137825444 349.86512425587801545
nan nan nan nan

