Time Pressure difference Time.1 Pressure.1 difference.1
(hr) (psi) (hr) (psi)
0.000200000000020850166 0.53739646556618526 0.000200000000020850166 0.42902886325837231
0.000399999999999067768 1.07327940425335200 0.000399999999999067768 1.11720691474133216
0.000600000000019917934 1.60787670599994570 0.000600000000019917934 1.63187725603837119
0.000799999999998135536 2.14130220683284334 0.000799999999998135536 2.15423763653704414
0.001007140329434719206 2.69261892070368969 0.001007140329434719206 2.70092602605720478
0.001267914553977789183 3.38511164110228435 0.001267914553977789183 3.39173286960523113
0.001596209851982166583 4.25454913142915370 0.001596209851982166583 4.25715807195031903
0.002009509145224797066 5.34557299575159828 0.002009509145224797066 5.34031475943822720
0.002529822128153114136 6.71380381769587142 0.002529822128153114136 6.69444794063825199
0.003184857364431081805 8.42839949489868090 0.003184857364431081805 8.38505919642764042
0.004009497869034817086 10.57513902885652080 0.004009497869034817086 10.49235387974072609
0.005047658755856332391 13.26010658699016709 0.005047658755856332391 13.11398634668999108
0.006354625877790454069 16.61403758971913547 0.006354625877790454069 16.36804917746542287
0.008000000000009777068 20.79737639563309060 0.008000000000009777068 20.39617391787122713
0.010071403294361402914 26.00604580414169220 0.010071403294361402914 25.36646171482978218
0.012679145539692626699 32.47784748380023956 0.012679145539692626699 31.47583586376190468
0.015962098519750611558 40.49930454725235052 0.015962098519750611558 38.95127062566381682
0.020095091452091651263 50.41261252922075897 0.020095091452091651263 48.04875179139929742
0.025298221281360611101 62.62198079193010614 0.025298221281360611101 59.04889345797597144
0.031848573644296607199 77.59853248657455538 0.031848573644296607199 72.24761173954240689
0.040094978690191851456 95.88230512484129520 0.040094978690191851456 87.93945695016591912
0.050476587558435426217 118.07941147220675759 0.050476587558435426217 106.39166849262983305
0.063546258777947173257 144.85200761053280871 0.063546258777947173257 127.80683293373694198
0.080000000000012505552 176.89814961545891947 0.080000000000012505552 152.27326378299110843
0.100714032943542974863 214.91878121066781659 0.100714032943542974863 179.70157357806064624
0.126791455396883634421 259.56823968104259848 0.126791455396883634421 209.75973641334945796
0.159620985197506115583 311.39120221768666852 0.159620985197506115583 241.80428742802462239
0.200950914520774404082 370.74141996289574763 0.200950914520774404082 274.84704795180056180
0.252982212813464002465 437.70332906174161280 0.252982212813464002465 307.56081933692769326
0.318485736442809752589 512.01354439952683606 0.318485736442809752589 338.36030748572426319
0.400949786901833249431 593.02001881264197891 0.400949786901833249431 365.59318560465845849
0.504765875584169521062 679.69188863682904866 0.504765875584169521062 387.77577129974201853
0.635462587779443310865 770.68752320678413525 0.635462587779443310865 403.88314036289619935
0.800000000000011368684 864.49796786664944648 0.800000000000011368684 413.58753019191470912
1.007140329435344483500 959.62419430476745674 1.007140329435344483500 417.32964960252610354
1.267914553968907398485 1054.75209861643088516 1.267914553968907398485 416.25660722550048831
1.596209851975117999245 1148.89895289304081416 1.596209851975117999245 411.95723729818746506
2.009509145207687197399 1241.46412154476479373 2.009509145207687197399 406.12599527980626135
2.529822128134725289783 1332.21820562313496339 2.529822128134725289783 400.33776288918505770
3.184857364427983839050 1421.24709089077214230 3.184857364427983839050 395.74902530150757229
4.009497869018204596614 1508.80288601398547144 4.009497869018204596614 393.03693867820680907
5.009497869018190385759 1592.39010911288278294 5.009497869018190385759 392.43679252627521237
6.009497869018190385759 1660.12348687968824379 6.009497869018190385759 393.42365948090281336
7.009497869018204596614 1717.08776828404097614 7.009497869018204596614 395.22557047129743069
8.009497869018190385759 1766.23752365145287513 8.009497869018190385759 397.38585152259645383
9.009497869018204596614 1809.44290118420371982 9.009497869018204596614 399.70570960468404564
10.009497869018190385759 1847.96477430721711244 10.009497869018190385759 402.04422991157895240
11.009497869018190385759 1882.69541935755228224 11.009497869018190385759 404.22328523706300984
12.009497869018204596614 1914.29015578968324007 12.009497869018204596614 406.31785537668855568
13.009497869018190385759 1943.24304374907501369 13.009497869018190385759 408.31351678299915875
14.009497869018204596614 1969.94280026236265257 14.009497869018204596614 410.20517906341365233
15.009497869018190385759 1994.69539509163951152 15.009497869018190385759 412.00737284287242801
16.009497869018190385759 2017.74866019189448707 16.009497869018190385759 413.70847690645132388
17.009497869018204596614 2039.30582479022837106 17.009497869018204596614 415.28524821356506891
18.009497869018190385759 2059.53377450855623465 18.009497869018190385759 416.75556760237708431
19.009497869018204596614 2078.57098258478845310 19.009497869018204596614 418.07562917580634121
20.009497869018190385759 2096.53621315264808800 20.009497869018190385759 419.32239233398792067
21.009497869018190385759 2113.53061284685600185 21.009497869018190385759 420.50323769499078708
22.009497869018204596614 2129.64076048852939493 22.009497869018204596614 421.64147367565925606
23.009497869018190385759 2144.94993209364520226 23.009497869018190385759 422.76122138759825475
24.009497869018204596614 2159.52804428802755865 24.009497869018204596614 423.82375929098503775
25.009497869018204596614 2173.43498227894542651 25.009497869018204596614 424.84900830573900521
26.009497869018190385759 2186.72325127661042643 26.009497869018190385759 425.80047057746003247
27.009497869018204596614 2199.44073939888903624 27.009497869018204596614 426.67511499263224550
28.009497869018190385759 2211.62560834345595140 28.009497869018190385759 427.48722430046416321
29.009497869018190385759 2223.30919513203298266 29.009497869018190385759 428.25838730351750883
30.009497869018190385759 2234.52503251441248722 30.009497869018190385759 428.98537930824699060
31.009497869018218807469 2245.30614693026200257 31.009497869018218807469 429.65360028251575386
32.009497869018190385759 2255.68112899029210894 32.009497869018190385759 430.28083704999124848
33.009497869018190385759 2265.67582772184050555 33.009497869018190385759 430.92176538349525572
34.009497869018218807469 2275.31459036315345656 34.009497869018218807469 431.52364021411608519
35.009497869018190385759 2284.61805047638472388 35.009497869018190385759 432.10584509590802327
36.009497869018190385759 2293.60536829043849139 36.009497869018190385759 432.67480115160776677
37.009497869018190385759 2302.29433518125506453 37.009497869018190385759 433.22346895241639686
38.009497869018218807469 2310.70067417915061014 38.009497869018218807469 433.75187459415820967
39.009497869018190385759 2318.83913175918996785 39.009497869018190385759 434.25111848277668969
40.009497869018190385759 2326.72339695183518415 40.009497869018190385759 434.71853857766427609
41.009497869018218807469 2334.36633582841614043 41.009497869018218807469 435.18337998113827325
42.009497869018190385759 2341.77974658014363740 42.009497869018190385759 435.62325050365996049
43.009497869018190385759 2348.97457905036799275 43.009497869018190385759 436.04568903700260307
44.009497869018218807469 2355.96154422877634715 44.009497869018218807469 436.44708882197500088
46.009497869018190385759 2369.35053978485348125 46.009497869018190385759 437.20774204040986888
48.009497869018218807469 2382.01714673798460353 48.009497869018218807469 437.92056588456563304
50.009497869018190385759 2394.02241724548503043 50.009497869018190385759 438.58853779625633251
52.009497869018190385759 2405.42074820148081926 52.009497869018190385759 439.21726332334827703
54.009497869018218807469 2416.26045227066970256 54.009497869018218807469 439.81094848577077983
56.009497869018190385759 2426.58479965479273233 56.009497869018190385759 440.36749642713039066
58.009497869018218807469 2436.43207812538275903 58.009497869018218807469 440.88169246319404238
60.009497869018190385759 2445.83677905380363882 60.009497869018190385759 441.37592456867480450
62.009497869018190385759 2454.82996692754659307 62.009497869018190385759 441.84359170538596118
64.009497869018218807469 2463.43969764678422507 64.009497869018218807469 442.28505119983657323
66.009497869018190385759 2471.69132259952812092 66.009497869018190385759 442.69069546366398527
68.009497869018190385759 2479.60778377650558468 68.009497869018190385759 443.07107413989706401
70.009497869018190385759 2487.21031349479517303 70.009497869018190385759 443.43935181961535363
72.009497869018190385759 2494.51828381485574937 72.009497869018190385759 443.78698485733434609
74.009497869018218807469 2501.54940734817091652 74.009497869018218807469 444.11932427177873706
76.009497869018190385759 2508.31959984632931082 76.009497869018190385759 444.43524356986455359
78.009497869018190385759 2514.84344761055353956 78.009497869018190385759 444.72933163879991980
80.009497869018218807469 2521.13467739086854635 80.009497869018218807469 445.02092191701956381
82.009497869018190385759 2527.20648760984067849 82.009497869018190385759 445.30822457518348756
84.009497869018218807469 2533.07088438600521840 84.009497869018218807469 445.57577932597973813
86.009497869018190385759 2538.73893584763800391 86.009497869018190385759 445.83393160634642527
88.009497869018190385759 2544.22059613002829792 88.009497869018190385759 446.08348957317701888
91.009497869018218807469 2552.11380273324311929 91.009497869018218807469 446.44823243429914328
94.009497869018218807469 2559.63759813273100008 94.009497869018218807469 446.81415085798033715
97.009497869018218807469 2566.81911944631565348 97.009497869018218807469 447.21113456113380380
99.504748934509137825444 2572.54993337033010903 99.504748934509137825444 447.35718457223936184
nan nan nan nan

