Time Pressure difference Time.1 Pressure.1 difference.1
(hr) (psi) (hr) (psi)
0.000200000000020850166 0.24336501454542855 0.000200000000020850166 0.19428973251113305
0.000399999999999067768 0.48604461429093071 0.000399999999999067768 0.50593759817497730
0.000600000000019917934 0.72814200132609597 0.000600000000019917934 0.73901087483654215
0.000799999999998135536 0.96970872736015945 0.000799999999998135536 0.97556665765897055
0.001007140329434719206 1.21937765651650842 0.001007140329434719206 1.22313960685434453
0.001267914553977789183 1.53297946034462007 0.001267914553977789183 1.53597794558629475
0.001596209851982166583 1.92671235781876682 0.001596209851982166583 1.92789384092958849
0.002009509145224797066 2.42079271677777141 0.002009509145224797066 2.41841147529428202
0.002529822128153114136 3.04040883861652311 0.002529822128153114136 3.03164334869707552
0.003184857364431081805 3.81687952396493557 0.003184857364431081805 3.79725246453369225
0.004009497869034817086 4.78905059575728043 0.004009497869034817086 4.75156056686867512
0.005047658755856332391 6.00496326118720081 0.005047658755856332391 5.93879134401880560
0.006354625877790454069 7.52382227787898916 0.006354625877790454069 7.41242412518913252
0.008000000000009777068 9.41828637391112267 0.008000000000009777068 9.23659808027244189
0.010071403294361402914 11.77708102104098309 0.010071403294361402914 11.48743938554115296
0.012679145539692626699 14.70789692852159369 0.012679145539692626699 14.25412659672679894
0.015962098519750611558 18.34048876714828324 0.015962098519750611558 17.63944713032380207
0.020095091452091651263 22.82982298463938520 0.020095091452091651263 21.75932654540957500
0.025298221281360611101 28.35894957037947606 0.025298221281360611101 26.74084355979437078
0.031848573644296607199 35.14122104878878616 0.031848573644296607199 32.71800655283759340
0.040094978690191851456 43.42119845684467094 0.040094978690191851456 39.82420538856045056
0.050476587558435426217 53.47336562806272298 0.050476587558435426217 48.18046192942897221
0.063546258777947173257 65.59758613583633746 0.063546258777947173257 57.87851939657639377
0.080000000000012505552 80.10998120143656820 0.080000000000012505552 68.95837138858793480
0.100714032943542974863 97.32797974455280610 0.100714032943542974863 81.37953795729795559
0.126791455396883634421 117.54790452325421768 0.126791455396883634421 94.99165806663273770
0.159620985197506115583 141.01641769672670534 0.159620985197506115583 109.50333263742072631
0.200950914520774404082 167.89371877763286989 0.200950914520774404082 124.46705571851246930
0.252982212813464002465 198.21804546381807199 0.252982212813464002465 139.28179299183895523
0.318485736442809752589 231.87012134321696522 0.318485736442809752589 153.22962920141765153
0.400949786901833249431 268.55466076059360603 0.400949786901833249431 165.56229270813742005
0.504765875584169521062 307.80482746613739664 0.504765875584169521062 175.60788406618917179
0.635462587779443310865 349.01305146767811038 0.635462587779443310865 182.90225676403181865
0.800000000000011368684 391.49598853930183395 0.800000000000011368684 187.29698044239722776
1.007140329435344483500 434.57478969288541748 1.007140329435344483500 188.99163420949020065
1.267914553968907398485 477.65435068719364153 1.267914553968907398485 188.50569693519574344
1.596209851975117999245 520.28963399947588186 1.596209851975117999245 186.55868706084842756
2.009509145207687197399 562.20863618642351867 2.009509145207687197399 183.91795458575461453
2.529822128134725289783 603.30747178914759843 2.529822128134725289783 181.29669942276851202
3.184857364427983839050 643.62503497835587041 3.184857364427983839050 179.21864669759153799
4.009497869018204596614 683.27549552101652353 4.009497869018204596614 177.99045290991438151
5.009497869018190385759 721.12875111294374619 5.009497869018190385759 177.71867111313545706
6.009497869018190385759 751.80244459930236189 6.009497869018190385759 178.16558304158351689
7.009497869018204596614 777.59925209771881782 7.009497869018204596614 178.98159528298319287
8.009497869018190385759 799.85717840784491273 8.009497869018190385759 179.95989875752820808
9.009497869018204596614 819.42313763055915388 9.009497869018204596614 181.01046818264669014
10.009497869018190385759 836.86812808657589358 10.009497869018190385759 182.06948897077685956
11.009497869018190385759 852.59622545867523513 11.009497869018190385759 183.05629455094199898
12.009497869018204596614 866.90419728960921475 12.009497869018204596614 184.00484022468276635
13.009497869018190385759 880.01578333613451832 13.009497869018190385759 184.90859415366114149
14.009497869018204596614 892.10701773859682362 14.009497869018204596614 185.76525110599720847
15.009497869018190385759 903.31646176483832278 15.009497869018190385759 186.58139141106897796
16.009497869018190385759 913.75634843311445366 16.009497869018190385759 187.35175229302973321
17.009497869018204596614 923.51871199928427814 17.009497869018204596614 188.06580792360830401
18.009497869018190385759 932.67912817775402345 18.009497869018190385759 188.73165580756798931
19.009497869018204596614 941.30030586915449931 19.009497869018204596614 189.32945803479327651
20.009497869018190385759 949.43602852198750952 20.009497869018190385759 189.89406638927118820
21.009497869018190385759 957.13210133559300630 21.009497869018190385759 190.42882325290929657
22.009497869018204596614 964.42773233870013883 22.009497869018204596614 190.94428406022902323
23.009497869018190385759 971.36063385384557023 23.009497869018190385759 191.45137228217353709
24.009497869018204596614 977.96246827881316221 24.009497869018204596614 191.93255250735489881
25.009497869018204596614 984.26035518969251825 25.009497869018204596614 192.39684611063606212
26.009497869018190385759 990.27807206189606859 26.009497869018190385759 192.82772469736596577
27.009497869018204596614 996.03730547739473877 27.009497869018204596614 193.22381559944548712
28.009497869018190385759 1001.55533731782475115 28.009497869018190385759 193.59158689340958404
29.009497869018190385759 1006.84635884650049320 29.009497869018190385759 193.94081527037192814
30.009497869018190385759 1011.92555568272473465 30.009497869018190385759 194.27004039770690724
31.009497869018218807469 1016.80788415852669004 31.009497869018218807469 194.57265051433864755
32.009497869018190385759 1021.50629179931320323 32.009497869018190385759 194.85670054968690579
33.009497869018190385759 1026.03248457882409639 33.009497869018190385759 195.14695093873896781
34.009497869018218807469 1030.39748837156707850 34.009497869018218807469 195.41951558382692156
35.009497869018190385759 1034.61064727910479633 35.009497869018190385759 195.68317250865695200
36.009497869018190385759 1038.68063819026042438 36.009497869018190385759 195.94082957870338646
37.009497869018190385759 1042.61551809599336593 37.009497869018190385759 196.18929892280991112
38.009497869018218807469 1046.42240731760603012 38.009497869018218807469 196.42859235871461010
39.009497869018190385759 1050.10798393422351182 39.009497869018190385759 196.65467962203024399
40.009497869018190385759 1053.67844715129467659 40.009497869018190385759 196.86635518277529400
41.009497869018218807469 1057.13962348952986758 41.009497869018218807469 197.07686295900077766
42.009497869018190385759 1060.49685587014232624 42.009497869018190385759 197.27606243828805077
43.009497869018190385759 1063.75510303208307050 43.009497869018190385759 197.46736767827164272
44.009497869018218807469 1066.91921554718919651 44.009497869018218807469 197.64914532432561600
46.009497869018190385759 1072.98254738324885693 46.009497869018190385759 197.99361424704804335
48.009497869018218807469 1078.71873878551718917 48.009497869018218807469 198.31642319038289202
50.009497869018190385759 1084.15543779432300653 50.009497869018190385759 198.61892051669721582
52.009497869018190385759 1089.31727855182975873 52.009497869018190385759 198.90364475075895712
54.009497869018218807469 1094.22613990000968442 54.009497869018218807469 199.17250062802293087
56.009497869018190385759 1098.90161715433418976 56.009497869018190385759 199.42453856746399765
58.009497869018218807469 1103.36104929016551068 58.009497869018218807469 199.65739705056546427
60.009497869018190385759 1107.62005604754949672 60.009497869018190385759 199.88121468102275458
62.009497869018190385759 1111.69270527012531602 62.009497869018190385759 200.09300211696768201
64.009497869018218807469 1115.59170233463350996 64.009497869018218807469 200.29292117705116993
66.009497869018190385759 1119.32852785419140673 66.009497869018190385759 200.47662097504414191
68.009497869018190385759 1122.91357132382722739 68.009497869018190385759 200.64887901544025794
70.009497869018190385759 1126.35644799687020168 70.009497869018190385759 200.81565700641007766
72.009497869018190385759 1129.66593069204441235 72.009497869018190385759 200.97308587820552361
74.009497869018218807469 1132.85004073108825651 74.009497869018218807469 201.12358888969268378
76.009497869018190385759 1135.91598571093413739 76.009497869018190385759 201.26665589794487232
78.009497869018190385759 1138.87037117448539902 78.009497869018190385759 201.39983642993564672
80.009497869018218807469 1141.71941340884768579 80.009497869018218807469 201.53188581404444335
82.009497869018190385759 1144.46908944309620892 82.009497869018190385759 201.66199350931802314
84.009497869018218807469 1147.12483636027741341 84.009497869018218807469 201.78315818008047700
86.009497869018190385759 1149.69166646577718893 86.009497869018190385759 201.90006485418780358
88.009497869018190385759 1152.17408758284136638 88.009497869018190385759 202.01307951304616495
91.009497869018218807469 1155.74860000129865512 91.009497869018218807469 202.17825672836113426
94.009497869018218807469 1159.15582110183959230 94.009497869018218807469 202.34396630817346363
97.009497869018218807469 1162.40804018202538828 97.009497869018218807469 202.52374409028163882
99.504748934509137825444 1165.00329285549696579 99.504748934509137825444 202.58988420350249271
nan nan nan nan

