Time Pressure difference Time.1 Pressure.1 difference.1
(hr) (psi) (hr) (psi)
0.000200000000020850166 0.05980300698727255 0.000200000000020850166 0.04774355201638764
0.000399999999999067768 0.11943758439913654 0.000399999999999067768 0.12432596269146201
0.000600000000019917934 0.17892909247603722 0.000600000000019917934 0.18159994193935508
0.000799999999998135536 0.23829019921478320 0.000799999999998135536 0.23972969061926921
0.001007140329434719206 0.29964229102112161 0.001007140329434719206 0.30056672932939527
0.001267914553977789183 0.37670485032359269 0.001267914553977789183 0.37744167946147855
0.001596209851982166583 0.47345832683601091 0.001596209851982166583 0.47374865715675890
0.002009509145224797066 0.59487056521501547 0.002009509145224797066 0.59428541372419219
0.002529822128153114136 0.74713118218563024 0.002529822128153114136 0.74497720514057830
0.003184857364431081805 0.93793626527466001 0.003184857364431081805 0.93311323360554899
0.004009497869034817086 1.17683154571509974 0.004009497869034817086 1.16761897888923105
0.005047658755856332391 1.47562237134975605 0.005047658755856332391 1.45936169545854599
0.006354625877790454069 1.84885735156070719 0.006354625877790454069 1.82148306147992356
0.008000000000009777068 2.31439119085870582 0.008000000000009777068 2.26974423815568516
0.010071403294361402914 2.89402673554590706 0.010071403294361402914 2.82285199917734797
0.012679145539692626699 3.61422723158209802 0.012679145539692626699 3.50272052888849661
0.015962098519750611558 4.50687778578387821 0.015962098519750611558 4.33460816854373299
0.020095091452091651263 5.61005889042333017 0.020095091452091651263 5.34700174494706282
0.025298221281360611101 6.96875211285775542 0.025298221281360611101 6.57112879285049445
0.031848573644296607199 8.63538537717676746 0.031848573644296607199 8.03991969899080772
0.040094978690191851456 10.67005559349084010 0.040094978690191851456 9.78615285998755091
0.050476587558435426217 13.14021271406319613 0.050476587558435426217 11.83956743658322708
0.063546258777947173257 16.11954335078571887 0.063546258777947173257 14.22270783806655281
0.080000000000012505552 19.68572916895369573 0.080000000000012505552 16.94540184292945639
0.100714032943542974863 23.91677317954881588 0.100714032943542974863 19.99770216015512858
0.126791455396883634421 28.88549189649933169 0.126791455396883634421 23.34266000272203812
0.159620985197506115583 34.65249854663591833 0.159620985197506115583 26.90866877097028009
0.200950914520774404082 41.25715956310432375 0.200950914520774404082 30.58576113219419312
0.252982212813464002465 48.70887124025563963 0.252982212813464002465 34.22624264645872216
0.318485736442809752589 56.97832333348675604 0.318485736442809752589 37.65369727816406709
0.400949786901833249431 65.99295418007761782 0.400949786901833249431 40.68424940268223367
0.504765875584169521062 75.63804633980167580 0.504765875584169521062 43.15279062377345554
0.635462587779443310865 85.76429933676732276 0.635462587779443310865 44.94526446078597814
0.800000000000011368684 96.20379240556222555 0.800000000000011368684 46.02519655922389319
1.007140329435344483500 106.78970941258619121 1.007140329435344483500 46.44163024943104290
1.267914553968907398485 117.37581313814997941 1.267914553968907398485 46.32221904209588104
1.596209851975117999245 127.85274282580979843 1.596209851975117999245 45.84377292962828676
2.009509145207687197399 138.15365803898461650 2.009509145207687197399 45.19485573438338122
2.529822128134725289783 148.25303061030248841 2.529822128134725289783 44.55072477283048471
3.184857364427983839050 158.16041815167790219 3.184857364427983839050 44.04007700418631543
4.009497869018204596614 167.90387603246824710 4.009497869018204596614 43.73826829185609455
5.009497869018190385759 177.20569993219098137 5.009497869018190385759 43.67148232131656727
6.009497869018190385759 184.74326283668864335 6.009497869018190385759 43.78130368257341587
7.009497869018204596614 191.08241007179435655 7.009497869018204596614 43.98182546203000243
8.009497869018190385759 196.55193462581857489 8.009497869018190385759 44.22222768103082302
9.009497869018204596614 201.35995190921588005 9.009497869018204596614 44.48038808583810066
10.009497869018190385759 205.64677550250328864 10.009497869018190385759 44.74062527609533646
11.009497869018190385759 209.51170045400891695 11.009497869018190385759 44.98311674971953522
12.009497869018204596614 213.02765257628624340 12.009497869018204596614 45.21620647159440409
13.009497869018190385759 216.24961228737774377 13.009497869018190385759 45.43828934833993571
14.009497869018204596614 219.22083712347770756 14.009497869018204596614 45.64879890659317141
15.009497869018190385759 221.97537626985788961 15.009497869018190385759 45.84935215562104105
16.009497869018190385759 224.54080917127726025 16.009497869018190385759 46.03865585357726786
17.009497869018204596614 226.93975175409033795 17.009497869018204596614 46.21412344880477008
18.009497869018190385759 229.19077552490884386 18.009497869018190385759 46.37774477182557575
19.009497869018204596614 231.30929017945092596 19.009497869018204596614 46.52464497783316233
20.009497869018190385759 233.30851212826996743 20.009497869018190385759 46.66338832773899270
21.009497869018190385759 235.19969725652799752 21.009497869018190385759 46.79479615771149525
22.009497869018204596614 236.99248030166012313 22.009497869018204596614 46.92146229466378315
23.009497869018190385759 238.69612845555249692 23.009497869018190385759 47.04607100449315737
24.009497869018204596614 240.31842223916228818 24.009497869018204596614 47.16431324412816650
25.009497869018204596614 241.86602584866162147 25.009497869018204596614 47.27840587019043284
26.009497869018190385759 243.34478221316217628 26.009497869018190385759 47.38428729764624592
27.009497869018204596614 244.76002045860897738 27.009497869018204596614 47.48162021556339596
28.009497869018190385759 246.11598732724701222 28.009497869018190385759 47.57199404889245642
29.009497869018190385759 247.41617009197281618 29.009497869018190385759 47.65781126097876097
30.009497869018190385759 248.66430037254673380 30.009497869018190385759 47.73871299875391827
31.009497869018218807469 249.86405344509873316 31.009497869018218807469 47.81307452912076883
32.009497869018190385759 251.01861095409742575 32.009497869018190385759 47.88287522040088362
33.009497869018190385759 252.13084945281687510 33.009497869018190385759 47.95419954808603080
34.009497869018218807469 253.20347837117012091 34.009497869018218807469 48.02117789090626587
35.009497869018190385759 254.23879387063325908 35.009497869018190385759 48.08596730588156731
36.009497869018190385759 255.23892815596838091 36.009497869018190385759 48.14928235381107413
37.009497869018190385759 256.20586110208716946 37.009497869018190385759 48.21033966703861040
38.009497869018218807469 257.14134241251758795 38.009497869018218807469 48.26914214958174654
39.009497869018190385759 258.04701311694230981 39.009497869018190385759 48.32469942930435991
40.009497869018190385759 258.92439656960141292 40.009497869018190385759 48.37671526675707412
41.009497869018218807469 259.77492454350226581 41.009497869018218807469 48.42844414009576326
42.009497869018190385759 260.59990997491553344 42.009497869018190385759 48.47739418278750634
43.009497869018190385759 261.40057139354939864 43.009497869018190385759 48.52440434414866388
44.009497869018218807469 262.17810074879736248 44.009497869018218807469 48.56907325375919271
46.009497869018190385759 263.66806625117379781 46.009497869018190385759 48.65372090712443764
48.009497869018218807469 265.07764229541720624 48.009497869018218807469 48.73304597169818209
50.009497869018190385759 266.41362293921935134 50.009497869018190385759 48.80737978567303514
52.009497869018190385759 267.68206162365783030 52.009497869018190385759 48.87734615035715535
54.009497869018218807469 268.88833471945628162 54.009497869018218807469 48.94341312360973006
56.009497869018190385759 270.03725745772032951 56.009497869018190385759 49.00534736128808078
58.009497869018218807469 271.13309061055264237 58.009497869018218807469 49.06256855850072895
60.009497869018190385759 272.17967247584834922 60.009497869018190385759 49.11756811274279499
62.009497869018190385759 273.18045999811954516 62.009497869018190385759 49.16961144171219189
64.009497869018218807469 274.13857531772561060 64.009497869018218807469 49.21873830971906472
66.009497869018190385759 275.05683960922101505 66.009497869018190385759 49.26387955700743504
68.009497869018190385759 275.93780592257871831 68.009497869018190385759 49.30620917785562796
70.009497869018190385759 276.78383705042546126 70.009497869018190385759 49.34719216539769349
72.009497869018190385759 277.59708877074126576 72.009497869018190385759 49.38587775846688288
74.009497869018218807469 278.37953219330501042 74.009497869018218807469 49.42286143364461992
76.009497869018190385759 279.13293846821591160 76.009497869018190385759 49.45801783157688902
78.009497869018190385759 279.85893080055620885 78.009497869018190385759 49.49074478824357470
80.009497869018218807469 280.55903674210594545 80.009497869018218807469 49.52319378365596947
82.009497869018190385759 281.23472505086328965 82.009497869018190385759 49.55516564051501405
84.009497869018218807469 281.88733180184294724 84.009497869018218807469 49.58493989408120939
86.009497869018190385759 282.51808868783604112 86.009497869018190385759 49.61366781399836157
88.009497869018190385759 283.12810343332620278 88.009497869018190385759 49.64143933426390731
91.009497869018218807469 284.00648191158194322 91.009497869018218807469 49.68202895713994138
94.009497869018218807469 284.84375126052032101 94.009497869018218807469 49.72274939996071197
97.009497869018218807469 285.64293137578783899 97.009497869018218807469 49.76692687542756488
99.504748934509137825444 286.28067264708460016 99.504748934509137825444 49.78317973601426161
nan nan nan nan

