Time Pressure difference Time.1 Pressure.1 difference.1
(hr) (psi) (hr) (psi)
0.000200000000020850166 0.65534128490219512 0.000200000000020850166 0.52318975751291463
0.000399999999999067768 1.30883686237387131 0.000399999999999067768 1.36240534116060430
0.000600000000019917934 1.96076463838324133 0.000600000000019917934 1.99003269708543273
0.000799999999998135536 2.61126343306199926 0.000799999999998135536 2.62703785970282500
0.001007140329434719206 3.28358010577312376 0.001007140329434719206 3.29371040890129008
0.001267914553977789183 4.12805731812936916 0.001267914553977789183 4.13613173743203610
0.001596209851982166583 5.18831416491128650 0.001596209851982166583 5.19149570134281557
0.002009509145224797066 6.51878994381454469 0.002009509145224797066 6.51237765872760654
0.002529822128153114136 8.18731253811753135 0.002529822128153114136 8.16370853966550314
0.003184857364431081805 10.27821824030148257 0.003184857364431081805 10.22536585159414102
0.004009497869034817086 12.89611235512796839 0.004009497869034817086 12.79515797699448854
0.005047658755856332391 16.17036181937440986 0.005047658755856332391 15.99217191273323557
0.006354625877790454069 20.26039514418608434 0.006354625877790454069 19.96041854871749521
0.008000000000009777068 25.36187013315998229 0.008000000000009777068 24.87261394312271889
0.010071403294361402914 31.71370964369056722 0.010071403294361402914 30.93375315765177191
0.012679145539692626699 39.60590674608715744 0.012679145539692626699 38.38397912906977183
0.015962098519750611558 49.38786906921500020 0.015962098519750611558 47.50008118029173687
0.020095091452091651263 61.47689534088898711 0.020095091452091651263 58.59422745504489427
0.025298221281360611101 76.36590857006623878 0.025298221281360611101 72.00861968831999604
0.031848573644296607199 94.62943142489540094 0.031848573644296607199 88.10412003477426879
0.040094978690191851456 116.92602587867044406 0.040094978690191851456 107.23992509069691437
0.050476587558435426217 143.99483099160917732 0.050476587558435426217 129.74192649255786591
0.063546258777947173257 176.64332921902683893 0.063546258777947173257 155.85717339214596677
0.080000000000012505552 215.72278214311756983 0.080000000000012505552 185.69336186210196615
0.100714032943542974863 262.08797275922239578 0.100714032943542974863 219.14148617169993827
0.126791455396883634421 316.53684869913848843 0.126791455396883634421 255.79664919649567878
0.159620985197506115583 379.73362990688525542 0.159620985197506115583 294.87416194854927198
0.200950914520774404082 452.10970687901817655 0.200950914520774404082 335.16896574029470912
0.252982212813464002465 533.76804734113466111 0.252982212813464002465 375.06257566744341148
0.318485736442809752589 624.38745986279241151 0.318485736442809752589 412.62176600654782987
0.400949786901833249431 723.17278955668393792 0.400949786901833249431 445.83156637105952314
0.504765875584169521062 828.86692447366010583 0.504765875584169521062 472.88266391885076700
0.635462587779443310865 939.83378023207524166 0.635462587779443310865 492.52518971611300458
0.800000000000011368684 1054.23322511095261689 0.800000000000011368684 504.35944562816183634
1.007140329435344483500 1170.23723231292365199 1.007140329435344483500 508.92286481668179476
1.267914553968907398485 1286.24328563889343968 1.267914553968907398485 507.61431700296742520
1.596209851975117999245 1401.05297346616566756 1.596209851975117999245 502.37134502050997753
2.009509145207687197399 1513.93383601054006249 2.009509145207687197399 495.26029408928457087
2.529822128134725289783 1624.60612710456462082 2.529822128134725289783 488.20169230226741774
3.184857364427983839050 1733.17458224547021928 3.184857364427983839050 482.60584383754172677
4.009497869018204596614 1839.94664152246446065 4.009497869018204596614 479.29852336492302811
5.009497869018190385759 1941.87912842359264687 5.009497869018190385759 478.56666043776067454
6.009497869018190385759 2024.47825525204643782 6.009497869018190385759 479.77011952153367247
7.009497869018204596614 2093.94474370341367830 7.009497869018204596614 481.96750402141213954
8.009497869018190385759 2153.88161694126165457 8.009497869018190385759 484.60191167129613632
9.009497869018204596614 2206.56947300515730603 9.009497869018204596614 487.43091944064246945
10.009497869018190385759 2253.54591488159849177 10.009497869018190385759 490.28268531721141699
11.009497869018190385759 2295.89905080851440289 11.009497869018190385759 492.93998771567657968
12.009497869018204596614 2334.42802614847005316 12.009497869018204596614 495.49426258455525840
13.009497869018190385759 2369.73533464918091340 13.009497869018190385759 497.92792077555850483
14.009497869018204596614 2402.29500681144327245 14.009497869018204596614 500.23475468475015759
15.009497869018190385759 2432.48016495719275554 15.009497869018190385759 502.43248403868068408
16.009497869018190385759 2460.59303383524684250 16.009497869018190385759 504.50693706211762901
17.009497869018204596614 2486.88144630523993328 17.009497869018204596614 506.42976945981888548
18.009497869018190385759 2511.54891512712629265 18.009497869018190385759 508.22278645792198404
19.009497869018204596614 2534.76430488315008915 19.009497869018204596614 509.83256788208836952
20.009497869018190385759 2556.67244540562523980 20.009497869018190385759 511.35296375813982195
21.009497869018190385759 2577.39668243611913567 21.009497869018190385759 512.79297456158849400
22.009497869018204596614 2597.04259663902530519 22.009497869018204596614 514.18102431235729455
23.009497869018190385759 2615.71174099209611086 23.009497869018190385759 515.54652809090418941
24.009497869018204596614 2633.48937703748651984 24.009497869018204596614 516.84226596690439237
25.009497869018204596614 2650.44853325825033608 25.009497869018204596614 518.09253099417014710
26.009497869018190385759 2666.65323841923554937 26.009497869018190385759 519.25281497004016273
27.009497869018204596614 2682.16189085892301591 27.009497869018204596614 520.31942152888223063
28.009497869018190385759 2697.02102779441520397 28.009497869018190385759 521.30976811911307323
29.009497869018190385759 2711.26886392453525332 29.009497869018190385759 522.25018173489229412
30.009497869018190385759 2724.94629158249108514 30.009497869018190385759 523.13672994467833632
31.009497869018218807469 2738.09358566920718658 31.009497869018218807469 523.95160838161507399
32.009497869018190385759 2750.74561170531751486 32.009497869018190385759 524.71650762355955067
33.009497869018190385759 2762.93389192045151503 33.009497869018190385759 525.49810338110933117
34.009497869018218807469 2774.68811715073888990 34.009497869018218807469 526.23207438784788792
35.009497869018190385759 2786.03344949902293592 35.009497869018190385759 526.94205839361893595
36.009497869018190385759 2796.99325437582047016 36.009497869018190385759 527.63588579384622790
37.009497869018190385759 2807.58922791037184652 37.009497869018190385759 528.30497218463142417
38.009497869018218807469 2817.84054393717178755 38.009497869018218807469 528.94934938916662759
39.009497869018190385759 2827.76518540649294664 39.009497869018190385759 529.55816457946025366
40.009497869018190385759 2837.37984574188249098 40.009497869018190385759 530.12817146487964237
41.009497869018218807469 2846.70021478921216840 41.009497869018218807469 530.69503370188260760
42.009497869018190385759 2855.74068014178283192 42.009497869018190385759 531.23144458637966636
43.009497869018190385759 2864.51459485431269059 43.009497869018190385759 531.74659760462907343
44.009497869018218807469 2873.03502070557124171 44.009497869018218807469 532.23609440577786245
46.009497869018190385759 2889.36255933577922406 46.009497869018190385759 533.16369160723854748
48.009497869018218807469 2904.80916348727942022 48.009497869018218807469 534.03296210652592890
50.009497869018190385759 2919.44928470894546990 50.009497869018190385759 534.84753681800043523
52.009497869018190385759 2933.34925862591717305 52.009497869018190385759 535.61425156433051598
54.009497869018218807469 2946.56800130070814703 54.009497869018218807469 536.33823547955660160
56.009497869018190385759 2959.15827964085247004 56.009497869018190385759 537.01693150078187955
58.009497869018218807469 2971.16678460730554434 58.009497869018218807469 537.64398045357052069
60.009497869018190385759 2982.63557754783778364 60.009497869018190385759 538.24668390213980729
62.009497869018190385759 2993.60254081272660187 62.009497869018190385759 538.81699204876281328
64.009497869018218807469 3004.10188785674336032 64.009497869018218807469 539.35534064400474108
66.009497869018190385759 3014.16453405104766716 66.009497869018190385759 539.85001347887305201
68.009497869018190385759 3023.81845656825817059 68.009497869018190385759 540.31387557400125843
70.009497869018190385759 3033.08954767757859372 70.009497869018190385759 540.76298081248307881
72.009497869018190385759 3042.00143111270654117 72.009497869018190385759 541.18691043653291217
74.009497869018218807469 3050.57570695163349228 74.009497869018218807469 541.59218987702240611
76.009497869018190385759 3058.83178404753243740 76.009497869018190385759 541.97744540436349325
78.009497869018190385759 3066.78745002276127707 78.009497869018190385759 542.33607830450250731
80.009497869018218807469 3074.45944429891096661 80.009497869018218807469 542.69166521256329361
82.009497869018190385759 3081.86386201571031052 82.009497869018190385759 543.04202347731029477
84.009497869018218807469 3089.01534432852895407 84.009497869018218807469 543.36829967263986418
86.009497869018190385759 3095.92738853753689909 86.009497869018190385759 543.68310979506543390
88.009497869018190385759 3102.61213345686655884 88.009497869018190385759 543.98743937130859649
91.009497869018218807469 3112.23769761441872106 91.009497869018218807469 544.43223398865848139
94.009497869018218807469 3121.41277422986831880 94.009497869018218807469 544.87846217456956310
97.009497869018218807469 3130.17045632634153662 97.009497869018218807469 545.36257367656048700
99.504748934509137825444 3137.15903775763581507 99.504748934509137825444 545.54067794048967244
nan nan nan nan

