Time Pressure difference Time.1 Pressure.1 difference.1
(hr) (psi) (hr) (psi)
0.000200000000020850166 0.58640170740297803 0.000200000000020850166 0.46815205171624547
0.000399999999999067768 1.17115186924708903 0.000399999999999067768 1.21908513416905784
0.000600000000019917934 1.75449915677892054 0.000600000000019917934 1.78068831957200935
0.000799999999998135536 2.33656778674495769 0.000799999999998135536 2.35068279968338967
0.001007140329434719206 2.93815913140155294 0.001007140329434719206 2.94722376259101493
0.001267914553977789183 3.69380033789522777 0.001267914553977789183 3.70102535694172063
0.001596209851982166583 4.64252192703088529 0.001596209851982166583 4.64536877712044127
0.002009509145224797066 5.83303637558056831 0.002009509145224797066 5.82729864012888488
0.002529822128153114136 7.32603631420909718 0.002529822128153114136 7.30491537262844837
0.003184857364431081805 9.19698615672097297 0.003184857364431081805 9.14969365174330029
0.004009497869034817086 11.53948710103972708 0.004009497869034817086 11.44915276521940406
0.005047658755856332391 14.46929714129066369 0.005047658755856332391 14.30985218046852125
0.006354625877790454069 18.12907347502582311 0.006354625877790454069 17.86065335284480327
0.008000000000009777068 22.69389139925342036 0.008000000000009777068 22.25610322413769637
0.010071403294361402914 28.37753993465847913 0.010071403294361402914 27.67963210304455046
0.012679145539692626699 35.43950590968001535 0.012679145539692626699 34.34612074160109074
0.015962098519750611558 44.19244051060303491 0.015962098519750611558 42.50324120822049423
0.020095091452091651263 55.00974411998432601 0.020095091452091651263 52.43032266573091960
0.025298221281360611101 68.33248599552187841 0.025298221281360611101 64.43356844100622993
0.031848573644296607199 84.67475105953884906 0.031848573644296607199 78.83587927065987344
0.040094978690191851456 104.62582290284072428 0.040094978690191851456 95.95866554376682700
0.050476587558435426217 128.84708577956411091 0.050476587558435426217 116.09353625316330749
0.063546258777947173257 158.06107785631553497 0.063546258777947173257 139.46155185659702624
0.080000000000012505552 193.02951101779595433 0.080000000000012505552 166.15907918205829219
0.100714032943542974863 234.51724812168700396 0.100714032943542974863 196.08857951485444460
0.126791455396883634421 283.23829554067401659 0.126791455396883634421 228.88774947113554958
0.159620985197506115583 339.78699963784669080 0.159620985197506115583 263.85444655979188155
0.200950914520774404082 404.54937016043959375 0.200950914520774404082 299.91037999068197450
0.252982212813464002465 477.61754299472886487 0.252982212813464002465 335.60732372777573573
0.318485736442809752589 558.70411490891183348 0.318485736442809752589 369.21542053310872689
0.400949786901833249431 647.09757848798335544 0.400949786901833249431 398.93166775407860314
0.504765875584169521062 741.67306549861098119 0.504765875584169521062 423.13708583866747404
0.635462587779443310865 840.96660182996845379 0.635462587779443310865 440.71328762937361034
0.800000000000011368684 943.33163108787391593 0.800000000000011368684 451.30262181683428935
1.007140329435344483500 1047.13242840674797662 1.007140329435344483500 455.38598550136549648
1.267914553968907398485 1150.93505660463733875 1.267914553968907398485 454.21509227388463614
1.596209851975117999245 1253.66717270863478007 1.596209851975117999245 449.52366233774398552
2.009509145207687197399 1354.67336910448830167 2.009509145207687197399 443.16066872881486916
2.529822128134725289783 1453.70332792879935369 2.529822128134725289783 436.84460680025449619
3.184857364427983839050 1550.85076687617470270 3.184857364427983839050 431.83742173549359222
4.009497869018204596614 1646.39078442948016345 4.009497869018204596614 428.87801963958889928
5.009497869018190385759 1737.60033544620569046 5.009497869018190385759 428.22314609513188088
6.009497869018190385759 1811.51032725975255744 6.009497869018190385759 429.30000555412266294
7.009497869018204596614 1873.66918764842807832 7.009497869018204596614 431.26623300268312278
8.009497869018190385759 1927.30091452538749763 8.009497869018190385759 433.62351031677451374
9.009497869018204596614 1974.44619510981124222 9.009497869018204596614 436.15491650835684823
10.009497869018190385759 2016.48088201065729663 10.009497869018190385759 438.70668673504593471
11.009497869018190385759 2054.37861834069872202 11.009497869018190385759 441.08445035141653534
12.009497869018204596614 2088.85448220636226324 12.009497869018204596614 443.37002456868958689
13.009497869018190385759 2120.44758715123180082 13.009497869018190385759 445.54767055455545233
14.009497869018204596614 2149.58209734965657844 14.009497869018204596614 447.61183372298307859
15.009497869018190385759 2176.59188397943989912 15.009497869018190385759 449.57836974817303144
16.009497869018190385759 2201.74737881835790176 16.009497869018190385759 451.43459767535489391
17.009497869018204596614 2225.27034358871924269 17.009497869018204596614 453.15515492855786306
18.009497869018190385759 2247.34288223035628107 18.009497869018190385759 454.75955290151193822
19.009497869018204596614 2268.11609537072718012 19.009497869018204596614 456.19999103264177620
20.009497869018190385759 2287.71957725775837389 20.009497869018190385759 457.56044665810736660
21.009497869018190385759 2306.26369809873312988 21.009497869018190385759 458.84897343533771163
22.009497869018204596614 2323.84293184683428990 22.009497869018204596614 460.09100527823102311
23.009497869018190385759 2340.54814846694534936 23.009497869018190385759 461.31286290516902682
24.009497869018204596614 2356.45564028956323455 24.009497869018204596614 462.47229375492344161
25.009497869018204596614 2371.63075346048754000 25.009497869018204596614 463.59103533825617660
26.009497869018190385759 2386.13078114572908817 26.009497869018190385759 464.62926155747572921
27.009497869018204596614 2400.00797838580456300 27.009497869018204596614 465.58366489149665313
28.009497869018190385759 2413.30398684772808338 28.009497869018190385759 466.46983053497325500
29.009497869018190385759 2426.05300117962178774 29.009497869018190385759 467.31131597570845315
30.009497869018190385759 2438.29161198636074914 30.009497869018190385759 468.10460246000366169
31.009497869018218807469 2450.05585739221805852 31.009497869018218807469 468.83375857721193825
32.009497869018190385759 2461.37693518878859322 32.009497869018190385759 469.51819313337529138
33.009497869018190385759 2472.28305157900967970 33.009497869018190385759 470.21756779095466072
34.009497869018218807469 2482.80077402841789080 34.009497869018218807469 470.87432765249764088
35.009497869018190385759 2492.95261767593183322 35.009497869018190385759 471.50962386044989216
36.009497869018190385759 2502.75948997380146466 36.009497869018190385759 472.13046308042515875
37.009497869018190385759 2512.24080469546561289 37.009497869018190385759 472.72916395735080641
38.009497869018218807469 2521.41371865607516156 38.009497869018218807469 473.30575496673213820
39.009497869018190385759 2530.29432306335138492 39.009497869018190385759 473.85052495956773555
40.009497869018190385759 2538.89755525192504138 40.009497869018190385759 474.36056914347909697
41.009497869018218807469 2547.23745455156358730 41.009497869018218807469 474.86779948482785585
42.009497869018190385759 2555.32689503181063628 42.009497869018190385759 475.34778184788859789
43.009497869018190385759 2563.17782505341529031 43.009497869018190385759 475.80874259679103488
44.009497869018218807469 2570.80193234237412980 44.009497869018218807469 476.24674607158323170
46.009497869018190385759 2585.41187185178750951 46.009497869018190385759 477.07676333930351120
48.009497869018218807469 2599.23354806339648349 48.009497869018218807469 477.85458966692942795
50.009497869018190385759 2612.33358048734544354 50.009497869018190385759 478.58347400951618056
52.009497869018190385759 2624.77132647642247321 52.009497869018190385759 479.26953308544653964
54.009497869018218807469 2636.59950433244603119 54.009497869018218807469 479.91735646206205956
56.009497869018190385759 2647.86533007153548169 56.009497869018190385759 480.52465607040818441
58.009497869018218807469 2658.61058293125188356 58.009497869018218807469 481.08574169863214820
60.009497869018190385759 2668.87289955484629900 60.009497869018190385759 481.62504288328352686
62.009497869018190385759 2678.68617720378324520 62.009497869018190385759 482.13535663678902665
64.009497869018218807469 2688.08103019880945794 64.009497869018218807469 482.61707287030077396
66.009497869018190385759 2697.08512172375094451 66.009497869018190385759 483.05970787843398284
68.009497869018190385759 2705.72348585195231863 68.009497869018190385759 483.47477332730659327
70.009497869018190385759 2714.01929107778278194 70.009497869018190385759 483.87663428848293279
72.009497869018190385759 2721.99367600199138906 72.009497869018190385759 484.25596802052251633
74.009497869018218807469 2729.66596845101821600 74.009497869018218807469 484.61861350212643629
76.009497869018190385759 2737.05353553556142288 76.009497869018190385759 484.96334151518448152
78.009497869018190385759 2744.17229368323160088 78.009497869018190385759 485.28424750694392742
80.009497869018218807469 2751.03722138787225049 80.009497869018218807469 485.60242793418217389
82.009497869018190385759 2757.66272063763153710 82.009497869018190385759 485.91592975282776479
84.009497869018218807469 2764.06189239029299642 84.009497869018218807469 486.20788285029630060
86.009497869018190385759 2770.24681407794787447 86.009497869018190385759 486.48957606503950046
88.009497869018190385759 2776.22834755455960476 88.009497869018190385759 486.76189124986552770
91.009497869018218807469 2784.84133652190030261 91.009497869018218807469 487.15989505195551601
94.009497869018218807469 2793.05122763787949225 94.009497869018218807469 487.55918161628142116
97.009497869018218807469 2800.88763265703028082 97.009497869018218807469 487.99236630627581235
99.504748934509137825444 2807.14104012280176903 99.504748934509137825444 488.15173463369546880
nan nan nan nan

