Time Pressure difference Time.1 Pressure.1 difference.1
(hr) (psi) (hr) (psi)
0.000200000000020850166 0.46347330415136229 0.000200000000020850166 0.37001252812700419
0.000399999999999067768 0.92564127909330829 0.000399999999999067768 0.96352621085883061
0.000600000000019917934 1.38670046668928859 0.000600000000019917934 1.40739955003000183
0.000799999999998135536 1.84674904391456995 0.000799999999998135536 1.85790510229933648
0.001007140329434719206 2.32222775541369186 0.001007140329434719206 2.32939215230281338
0.001267914553977789183 2.91946259000784325 0.001267914553977789183 2.92517301582645928
0.001596209851982166583 3.66930203297908486 0.001596209851982166583 3.67155209296488172
0.002009509145224797066 4.61024688041637098 0.002009509145224797066 4.60571195636248998
0.002529822128153114136 5.79026666193863448 0.002529822128153114136 5.77357333983948173
0.003184857364431081805 7.26900605587861559 0.003184857364431081805 7.23162756044300448
0.004009497869034817086 9.12044447929202384 0.004009497869034817086 9.04904708639153910
0.005047658755856332391 11.43607337796060897 0.005047658755856332391 11.31005313980373117
0.006354625877790454069 14.32864447459547996 0.006354625877790454069 14.11649372646940748
0.008000000000009777068 17.93653172915496796 0.008000000000009777068 17.59051784570656451
0.010071403294361402914 22.42870720048077970 0.010071403294361402914 21.87710299362444744
0.012679145539692626699 28.01026104476125766 0.012679145539692626699 27.14608409888585072
0.015962098519750611558 34.92830283982505790 0.015962098519750611558 33.59321330621392576
0.020095091452091651263 43.47795640078081192 0.020095091452091651263 41.43926352333973995
0.025298221281360611101 54.00782887464760762 0.025298221281360611101 50.92624814459132665
0.031848573644296607199 66.92423667311993540 0.031848573644296607199 62.30937766717875803
0.040094978690191851456 82.69293084955400275 0.040094978690191851456 75.84268466490352978
0.050476587558435426217 101.83664853398975936 0.050476587558435426217 91.75664763352000364
0.063546258777947173257 124.92646096858933902 0.063546258777947173257 110.22598574501577673
0.080000000000012505552 152.56440105939114460 0.080000000000012505552 131.32686428270329770
0.100714032943542974863 185.35499214150331682 0.100714032943542974863 154.98219174120225716
0.126791455396883634421 223.86256219786983479 0.126791455396883634421 180.90561502109579806
0.159620985197506115583 268.55686373642834042 0.159620985197506115583 208.54218297501967072
0.200950914520774404082 319.74298661405850908 0.200950914520774404082 237.03964877450499671
0.252982212813464002465 377.49375211198116631 0.252982212813464002465 265.25338051005508078
0.318485736442809752589 441.58200583452241972 0.318485736442809752589 291.81615390577150038
0.400949786901833249431 511.44539489560150969 0.400949786901833249431 315.30293287078734465
0.504765875584169521062 586.19485913346295547 0.504765875584169521062 334.43412733424423777
0.635462587779443310865 664.67331985994678689 0.635462587779443310865 348.32579957109129509
0.800000000000011368684 745.57939114310715922 0.800000000000011368684 356.69527333398519886
1.007140329435344483500 827.62024794754290724 1.007140329435344483500 359.92263443309059312
1.267914553968907398485 909.66255182066231555 1.267914553968907398485 358.99719757624308158
1.596209851975117999245 990.85875690002592364 1.596209851975117999245 355.28924020461920463
2.009509145207687197399 1070.69084980213074232 2.009509145207687197399 350.26013194147128615
2.529822128134725289783 1148.96098722984424967 2.529822128134725289783 345.26811698943629381
3.184857364427983839050 1225.74324067550355721 3.184857364427983839050 341.31059678244395172
4.009497869018204596614 1301.25503925162888663 4.009497869018204596614 338.97157926188469901
5.009497869018190385759 1373.34417447447981431 5.009497869018190385759 338.45398799020335900
6.009497869018190385759 1431.76028698433697173 6.009497869018190385759 339.30510353994395700
7.009497869018204596614 1480.88867805640620645 7.009497869018204596614 340.85914733073252592
8.009497869018190385759 1523.27749335009366405 8.009497869018190385759 342.72226452798895480
9.009497869018204596614 1560.53962729642307750 9.009497869018204596614 344.72300766524523397
10.009497869018190385759 1593.76251014440049403 10.009497869018190385759 346.73984588973883092
11.009497869018190385759 1623.71567851856912057 11.009497869018190385759 348.61915481032639264
12.009497869018204596614 1650.96430746621831531 12.009497869018204596614 350.42560015485662461
13.009497869018190385759 1675.93449522717742184 13.009497869018190385759 352.14674244963447336
14.009497869018204596614 1698.96148770695231178 14.009497869018204596614 353.77819152609708908
15.009497869018190385759 1720.30916609139876527 15.009497869018190385759 355.33247920606305570
16.009497869018190385759 1740.19127107739882376 16.009497869018190385759 356.79958286522384014
17.009497869018204596614 1758.78307609419994151 17.009497869018204596614 358.15945672823693258
18.009497869018190385759 1776.22851031804361810 18.009497869018190385759 359.42752198164822630
19.009497869018204596614 1792.64699889074472594 19.009497869018204596614 360.56599857820697252
20.009497869018190385759 1808.14096899409241814 20.009497869018190385759 361.64125953997717033
21.009497869018190385759 1822.79765373809186713 21.009497869018190385759 362.65967022226408289
22.009497869018204596614 1836.69172233786594006 22.009497869018204596614 363.64133278364431590
23.009497869018190385759 1849.89499553053201453 23.009497869018190385759 364.60705028482198031
24.009497869018204596614 1862.46777235350782576 24.009497869018204596614 365.52342764199329395
25.009497869018204596614 1874.46170032712757347 25.009497869018204596614 366.40764549397584915
26.009497869018190385759 1885.92206215200690167 26.009497869018190385759 367.22822655675838632
27.009497869018204596614 1896.89015855421939705 27.009497869018204596614 367.98255667061636132
28.009497869018190385759 1907.39890178616451522 28.009497869018190385759 368.68295387891652126
29.009497869018190385759 1917.47531821278926145 29.009497869018190385759 369.34803727258537265
30.009497869018190385759 1927.14832788723697377 30.009497869018190385759 369.97502574034285772
31.009497869018218807469 1936.44641419951517491 31.009497869018218807469 370.55132760068590869
32.009497869018190385759 1945.39423489425530533 32.009497869018190385759 371.09228295810680720
33.009497869018190385759 1954.01408325933061860 33.009497869018190385759 371.64504649766666944
34.009497869018218807469 1962.32695737656808888 34.009497869018218807469 372.16412865452360847
35.009497869018190385759 1970.35065249740796389 35.009497869018190385759 372.66624662058217154
36.009497869018190385759 1978.10169320875502308 36.009497869018190385759 373.15693824203577833
37.009497869018190385759 1985.59542354117525065 37.009497869018190385759 373.63013241954922705
38.009497869018218807469 1992.84540369701107920 38.009497869018218807469 374.08585165925853744
39.009497869018190385759 1999.86435165630291522 39.009497869018190385759 374.51642057710876088
40.009497869018190385759 2006.66407341441117751 40.009497869018190385759 374.91954331736735639
41.009497869018218807469 2013.25566521214227578 41.009497869018218807469 375.32044208574217237
42.009497869018190385759 2019.64930230559548363 42.009497869018190385759 375.69980491660317057
43.009497869018190385759 2025.85442830000806680 43.009497869018190385759 376.06413366715213442
44.009497869018218807469 2031.88028080317985768 44.009497869018218807469 376.41031771663375594
46.009497869018190385759 2043.42751344659677670 46.009497869018190385759 377.06633703021435622
48.009497869018218807469 2054.35172778948299310 48.009497869018218807469 377.68110628066091294
50.009497869018190385759 2064.70557777895010076 50.009497869018190385759 378.25719333896603302
52.009497869018190385759 2074.53597758334854007 52.009497869018190385759 378.79943266526794332
54.009497869018218807469 2083.88459407578602622 54.009497869018218807469 379.31145170797543642
56.009497869018190385759 2092.78874529733275267 56.009497869018190385759 379.79144204998266332
58.009497869018218807469 2101.28145223178262313 58.009497869018218807469 380.23490632838064585
60.009497869018190385759 2109.39246168782437962 60.009497869018190385759 380.66115287375663456
62.009497869018190385759 2117.14856498542621921 62.009497869018190385759 381.06448867326946583
64.009497869018218807469 2124.57395871237349638 64.009497869018218807469 381.44522190032273556
66.009497869018190385759 2131.69050697146303719 66.009497869018190385759 381.79506656680757715
68.009497869018190385759 2138.51799589998472584 68.009497869018190385759 382.12312112838111489
70.009497869018190385759 2145.07473714079696947 70.009497869018190385759 382.44073928183212274
72.009497869018190385759 2151.37743797324492334 72.009497869018190385759 382.74055262811833700
74.009497869018218807469 2157.44137449811341867 74.009497869018218807469 383.02717611074587012
76.009497869018190385759 2163.28027312867334331 76.009497869018190385759 383.29963819472089881
78.009497869018190385759 2168.90671370431027754 78.009497869018190385759 383.55327210888776790
80.009497869018218807469 2174.33253475132096355 80.009497869018218807469 383.80475182333373141
82.009497869018190385759 2179.56911914419015375 82.009497869018190385759 384.05253371399135176
84.009497869018218807469 2184.62682146428278429 84.009497869018218807469 384.28328417912933901
86.009497869018190385759 2189.51518733072953182 86.009497869018190385759 384.50592555848731990
88.009497869018190385759 2194.24280160827811414 88.009497869018190385759 384.72115484054523904
91.009497869018218807469 2201.05023481476018787 91.009497869018218807469 385.03572441783450131
94.009497869018218807469 2207.53907226903220362 94.009497869018218807469 385.35130784969550177
97.009497869018218807469 2213.73271816235546794 97.009497869018218807469 385.69368328456363315
99.504748934509137825444 2218.67521301490569385 99.504748934509137825444 385.81964295411052035
nan nan nan nan

