Time Pressure difference Time.1 Pressure.1 difference.1
(hr) (psi) (hr) (psi)
0.000200000000020850166 0.06977017481848465 0.000200000000020850166 0.05570081068578558
0.000399999999999067768 0.13934384846565931 0.000399999999999067768 0.14504695647337235
0.000600000000019917934 0.20875060788871008 0.000600000000019917934 0.21186659892924758
0.000799999999998135536 0.27800523241724706 0.000799999999998135536 0.27968463905581409
0.001007140329434719206 0.34958267285797517 0.001007140329434719206 0.35066118421762787
0.001267914553977789183 0.43948899204419145 0.001267914553977789183 0.44034862603839164
0.001596209851982166583 0.55236804797534611 0.001596209851982166583 0.55270676668288543
0.002009509145224797066 0.69401565941751808 0.002009509145224797066 0.69333298267822419
0.002529822128153114136 0.87165304588323533 0.002529822128153114136 0.86914007266400806
0.003184857364431081805 1.09425897615376999 0.003184857364431081805 1.08863210587314052
0.004009497869034817086 1.37297013666761636 0.004009497869034817086 1.36222214203743608
0.005047658755856332391 1.72155943324138194 0.005047658755856332391 1.70258864470163718
0.006354625877790454069 2.15700024348749153 0.006354625877790454069 2.12506357172657756
0.008000000000009777068 2.70012305600182323 0.008000000000009777068 2.64803494451496624
0.010071403294361402914 3.37636452480355809 0.010071403294361402914 3.29332733237357278
0.012679145539692626699 4.21659843684578117 0.012679145539692626699 4.08650728370324590
0.015962098519750611558 5.25802408341452487 0.015962098519750611558 5.05704286330102182
0.020095091452091651263 6.54506870549388520 0.020095091452091651263 6.23816870243823995
0.025298221281360611101 8.13021079833404769 0.025298221281360611101 7.66631692499224293
0.031848573644296607199 10.07461627337289300 0.031848573644296607199 9.37990631548927567
0.040094978690191851456 12.44839819240598011 0.040094978690191851456 11.41717833665214421
0.050476587558435426217 15.33024816640706156 0.050476587558435426217 13.81282867601376552
0.063546258777947173257 18.80613390925000417 0.063546258777947173257 16.59315914441097917
0.080000000000012505552 22.96668403044597895 0.080000000000012505552 19.76963548341769794
0.100714032943542974863 27.90290204280695008 0.100714032943542974863 23.33065252018098334
0.126791455396883634421 33.69974054591588697 0.126791455396883634421 27.23310333650904624
0.159620985197506115583 40.42791497107523213 0.159620985197506115583 31.39344689946532441
0.200950914520774404082 48.13335282362170631 0.200950914520774404082 35.68338798755988961
0.252982212813464002465 56.82701644696491172 0.252982212813464002465 39.93061642086851037
0.318485736442809752589 66.47471055573454635 0.318485736442809752589 43.92931349119140805
0.400949786901833249431 76.99177987675722079 0.400949786901833249431 47.46495763646260713
0.504765875584169521062 88.24438739643530027 0.504765875584169521062 50.34492239440236006
0.635462587779443310865 100.05834922622854322 0.635462587779443310865 52.43614187091697687
0.800000000000011368684 112.23775780648925604 0.800000000000011368684 53.69606265242787657
1.007140329435344483500 124.58799431468386842 1.007140329435344483500 54.18190195766954531
1.267914553968907398485 136.93844866117498782 1.267914553968907398485 54.04258888244519454
1.596209851975117999245 149.16153329677808870 1.596209851975117999245 53.48440175123299412
2.009509145207687197399 161.17926771214874293 2.009509145207687197399 52.72733169011394949
2.529822128134725289783 172.96186904535289841 2.529822128134725289783 51.97584556830223335
3.184857364427983839050 184.52048784362418132 3.184857364427983839050 51.38008983821737274
4.009497869018204596614 195.88785537121293601 4.009497869018204596614 51.02797967383211386
5.009497869018190385759 206.73998325422277844 5.009497869018190385759 50.95006270820265826
6.009497869018190385759 215.53380664280342671 6.009497869018190385759 51.07818762966898873
7.009497869018204596614 222.92947841709343493 7.009497869018204596614 51.31212970570167187
8.009497869018190385759 229.31059039678831368 8.009497869018190385759 51.59259896120263278
9.009497869018204596614 234.91994389408520760 9.009497869018204596614 51.89378610014444604
10.009497869018190385759 239.92123808625382253 10.009497869018190385759 52.19739615544455802
11.009497869018190385759 244.43031719634373644 11.009497869018190385759 52.48030287467278754
12.009497869018204596614 248.53226133900056993 12.009497869018204596614 52.75224088352680241
13.009497869018190385759 252.29121433527404861 13.009497869018190385759 53.01133757306325833
14.009497869018204596614 255.75764331072400637 14.009497869018204596614 53.25693205769203331
15.009497869018190385759 258.97127231483420928 15.009497869018190385759 53.49091084822455144
16.009497869018190385759 261.96427736649013696 16.009497869018190385759 53.71176516250681487
17.009497869018204596614 264.76304371310538954 17.009497869018204596614 53.91647735693889842
18.009497869018190385759 267.38923811239362749 18.009497869018190385759 54.10736890046317882
19.009497869018204596614 269.86083854269276117 19.009497869018204596614 54.27875247413868465
20.009497869018190385759 272.19326414964831429 20.009497869018190385759 54.44061971569549030
21.009497869018190385759 274.39964679928266378 21.009497869018190385759 54.59392885066340995
22.009497869018204596614 276.49122701860346751 22.009497869018204596614 54.74170601044107798
23.009497869018190385759 278.47881653147794623 23.009497869018190385759 54.88708283857535264
24.009497869018204596614 280.37149261235600761 24.009497869018204596614 55.02503211814952522
25.009497869018204596614 282.17703015677187750 25.009497869018204596614 55.15814018188883239
26.009497869018190385759 283.90224591535587706 26.009497869018190385759 55.28166851392062142
27.009497869018204596614 285.55335720171046887 27.009497869018204596614 55.39522358482396669
28.009497869018190385759 287.13531854845484759 28.009497869018190385759 55.50065972370786227
29.009497869018190385759 288.65219844063489063 29.009497869018190385759 55.60077980447522350
30.009497869018190385759 290.10835043463782768 30.009497869018190385759 55.69516516521289873
31.009497869018218807469 291.50806235261518395 31.009497869018218807469 55.78192028397422320
32.009497869018190385759 292.85504611311364442 32.009497869018190385759 55.86335442380102734
33.009497869018190385759 294.15265769495300674 33.009497869018190385759 55.94656613943369905
34.009497869018218807469 295.40405809969843176 34.009497869018218807469 56.02470753939065418
35.009497869018190385759 296.61192618240551155 35.009497869018190385759 56.10029519019516897
36.009497869018190385759 297.77874951529645386 36.009497869018190385759 56.17416274611291271
37.009497869018190385759 298.90683795243501208 37.009497869018190385759 56.24539627821171450
38.009497869018218807469 299.99823281460379576 38.009497869018218807469 56.31399917451204118
39.009497869018190385759 301.05484863643266635 39.009497869018190385759 56.37881600085508893
40.009497869018190385759 302.07846266453498174 40.009497869018190385759 56.43950114454992217
41.009497869018218807469 303.07074530075260554 41.009497869018218807469 56.49985149677838336
42.009497869018190385759 304.03322830406813182 42.009497869018190385759 56.55695987991875739
43.009497869018190385759 304.96733329247433630 43.009497869018190385759 56.61180506817343883
44.009497869018218807469 305.87445087359691342 44.009497869018218807469 56.66391879605239268
46.009497869018190385759 307.61274395970275464 46.009497869018190385759 56.76267439164517725
48.009497869018218807469 309.25724934465335991 48.009497869018218807469 56.85522030031454932
50.009497869018190385759 310.81589342908921481 50.009497869018190385759 56.94194308328521004
52.009497869018190385759 312.29573856093412587 52.009497869018190385759 57.02357050875000510
54.009497869018218807469 313.70305717269900470 54.009497869018218807469 57.10064864421135411
56.009497869018190385759 315.04346703400710794 56.009497869018190385759 57.17290525483609542
58.009497869018218807469 316.32193904564473996 58.009497869018218807469 57.23966331825085518
60.009497869018190385759 317.54295122182304567 60.009497869018190385759 57.30382946486659534
62.009497869018190385759 318.71053666447284058 62.009497869018190385759 57.36454668199755957
64.009497869018218807469 319.82833787067988851 64.009497869018218807469 57.42186136133890528
66.009497869018190385759 320.89964621075790774 66.009497869018190385759 57.47452614984200636
68.009497869018190385759 321.92744024300850469 68.009497869018190385759 57.52391070749823143
70.009497869018190385759 322.91447655882961953 70.009497869018190385759 57.57172419296397692
72.009497869018190385759 323.86327023253147672 72.009497869018190385759 57.61685738487803121
74.009497869018218807469 324.77612089218911251 74.009497869018218807469 57.66000500591872679
76.009497869018190385759 325.65509487958524915 76.009497869018190385759 57.70102080350637408
78.009497869018190385759 326.50208593398218682 78.009497869018190385759 57.73920225295083952
80.009497869018218807469 327.31887619912356513 80.009497869018218807469 57.77705941426529535
82.009497869018190385759 328.10717922600713337 82.009497869018190385759 57.81435991393418306
84.009497869018218807469 328.86855376881675284 84.009497869018218807469 57.84909654309473837
86.009497869018190385759 329.60443680247539078 86.009497869018190385759 57.88261244966476227
88.009497869018190385759 330.31612067221391271 88.009497869018190385759 57.91501255664122283
91.009497869018218807469 331.34089556351221972 91.009497869018218807469 57.96236711666325903
94.009497869018218807469 332.31770980394037451 94.009497869018218807469 58.00987429995416989
97.009497869018218807469 333.25008660508581215 97.009497869018218807469 58.06141468799882688
99.504748934509137825444 333.99411808826539527 99.504748934509137825444 58.08037635868330995
nan nan nan nan

