Time Pressure difference Time.1 Pressure.1 difference.1
(hr) (psi) (hr) (psi)
0.000200000000020850166 0.42609642478431692 0.000200000000020850166 0.34017280811676193
0.000399999999999067768 0.85099278884384788 0.000399999999999067768 0.88582248417666676
0.000600000000019917934 1.27486978389176531 0.000600000000019917934 1.29389958631790480
0.000799999999998135536 1.69781766940533041 0.000799999999998135536 1.70807404566229315
0.001007140329434719206 2.13495132352549133 0.001007140329434719206 2.14153794647194129
0.001267914553977789183 2.68402205855559783 0.001267914553977789183 2.68927196616303466
0.001596209851982166583 3.37339057870657788 0.001596209851982166583 3.37545918224190755
0.002009509145224797066 4.23845277715698554 0.002009509145224797066 4.23428357278486889
0.002529822128153114136 5.32330967307261549 0.002529822128153114136 5.30796258662662002
0.003184857364431081805 6.68279589008195263 0.003184857364431081805 6.64843178943953550
0.004009497869034817086 8.38492476322008606 0.004009497869034817086 8.31928522458576936
0.005047658755856332391 10.51380939586701047 0.005047658755856332391 10.39795208014214190
0.006354625877790454069 13.17310862987003972 0.006354625877790454069 12.97806681304445675
0.008000000000009777068 16.49003723486827866 0.008000000000009777068 16.17192769685926024
0.010071403294361402914 20.61994049076458779 0.010071403294361402914 20.11282049413860307
0.012679145539692626699 25.75136902502244496 0.012679145539692626699 24.95688376833053823
0.015962098519750611558 32.11150422371013491 0.015962098519750611558 30.88408320087409109
0.020095091452091651263 39.97166959426622412 0.020095091452091651263 38.09738743274782280
0.025298221281360611101 49.65235880411150049 0.025298221281360611101 46.81929264905976851
0.031848573644296607199 61.52712081238445307 0.031848573644296607199 57.28442785530950943
0.040094978690191851456 76.02414610362224323 0.040094978690191851456 69.72633912741130757
0.050476587558435426217 93.62401558770025645 0.050476587558435426217 84.35691798565549959
0.063546258777947173257 114.85174637434825229 0.063546258777947173257 101.33679334622418367
0.080000000000012505552 140.26082032879509143 0.080000000000012505552 120.73598813087237147
0.100714032943542974863 170.40700890428527714 0.100714032943542974863 142.48362789110530002
0.126791455396883634421 205.80912976255774538 0.126791455396883634421 166.31645251939454511
0.159620985197506115583 246.89905214478091011 0.159620985197506115583 191.72426499316324566
0.200950914520774404082 293.95726188711830673 0.200950914520774404082 217.92354806688362601
0.252982212813464002465 347.05070758682137466 0.252982212813464002465 243.86197885601836788
0.318485736442809752589 405.97055375109312081 0.318485736442809752589 268.28259310691896644
0.400949786901833249431 470.19979853305306960 0.400949786901833249431 289.87527699411094773
0.504765875584169521062 538.92108017108694185 0.504765875584169521062 307.46363319438586359
0.635462587779443310865 611.07063277446707161 0.635462587779443310865 320.23500928310011204
0.800000000000011368684 685.45202088963083042 0.800000000000011368684 327.92952548447021854
1.007140329435344483500 760.87667956467657859 1.007140329435344483500 330.89661552719616111
1.267914553968907398485 836.30266860931862993 1.267914553968907398485 330.04581067493313640
1.596209851975117999245 910.95079263389482094 1.596209851975117999245 326.63688212360148100
2.009509145207687197399 984.34481352776549556 2.009509145207687197399 322.01334710748164980
2.529822128134725289783 1056.30284309840521928 2.529822128134725289783 317.42391400641719201
3.184857364427983839050 1126.89297933070497493 3.184857364427983839050 313.78554865482749392
4.009497869018204596614 1196.31511673133604745 4.009497869018204596614 311.63516157947469765
5.009497869018190385759 1262.59061201686063214 5.009497869018190385759 311.15931153938055331
6.009497869018190385759 1316.29574771140664780 6.009497869018190385759 311.94178873833561738
7.009497869018204596614 1361.46217176153481887 7.009497869018204596614 313.37050641696379216
8.009497869018190385759 1400.43253420895712225 8.009497869018190385759 315.08337222734468241
9.009497869018204596614 1434.68965735316305654 9.009497869018204596614 316.92276511159644770
10.009497869018190385759 1465.23327545533607008 10.009497869018190385759 318.77695509217926428
11.009497869018190385759 1492.77086573481369669 11.009497869018190385759 320.50470684175166980
12.009497869018204596614 1517.82202460603934924 12.009497869018204596614 322.16547111011010429
13.009497869018190385759 1540.77848754756655580 13.009497869018190385759 323.74781160692202775
14.009497869018204596614 1561.94846450477871258 14.009497869018204596614 325.24769220947638360
15.009497869018190385759 1581.57455592273754519 15.009497869018190385759 326.67663410879998764
16.009497869018190385759 1599.85326534535056453 16.009497869018190385759 328.02542295673805484
17.009497869018204596614 1616.94573124789371832 17.009497869018204596614 329.27562957273397615
18.009497869018190385759 1632.98427561497555871 18.009497869018190385759 330.44143149925730540
19.009497869018204596614 1648.07869252858790787 19.009497869018204596614 331.48809546706127094
20.009497869018190385759 1662.32314891392366007 20.009497869018190385759 332.47664183514029901
21.009497869018190385759 1675.79784295276181183 21.009497869018190385759 333.41292262369438504
22.009497869018204596614 1688.57142214932832758 22.009497869018204596614 334.31541884947944254
23.009497869018190385759 1700.70991524581154408 23.009497869018190385759 335.20325590701378360
24.009497869018204596614 1712.26875845403128551 24.009497869018204596614 336.04573186441319876
25.009497869018204596614 1723.29543417171407782 25.009497869018204596614 336.85864182510681530
26.009497869018190385759 1733.83157326878063031 26.009497869018190385759 337.61304699572951904
27.009497869018204596614 1743.91514576758868316 27.009497869018204596614 338.30654403588920331
28.009497869018190385759 1753.57640970663510416 28.009497869018190385759 338.95045759835869603
29.009497869018190385759 1762.84021190530620515 29.009497869018190385759 339.56190523447367013
30.009497869018190385759 1771.73314015439518698 30.009497869018190385759 340.13833011612166501
31.009497869018218807469 1780.28138079632844892 31.009497869018218807469 340.66815601998541752
32.009497869018190385759 1788.50760304794425792 32.009497869018190385759 341.16548594535623806
33.009497869018190385759 1796.43230235132000416 33.009497869018190385759 341.67367178011295437
34.009497869018218807469 1804.07478339458680239 34.009497869018218807469 342.15089247270714168
35.009497869018190385759 1811.45140632826200999 35.009497869018190385759 342.61251705440622572
36.009497869018190385759 1818.57736311127496265 36.009497869018190385759 343.06363677090382680
37.009497869018190385759 1825.46676035237101132 37.009497869018190385759 343.49867012765008667
38.009497869018218807469 1832.13206468918770042 38.009497869018218807469 343.91763781576997872
39.009497869018190385759 1838.58496845821400711 39.009497869018190385759 344.31348343379357857
40.009497869018190385759 1844.83632555841018075 40.009497869018190385759 344.68409627564420816
41.009497869018218807469 1850.89633737245344491 41.009497869018218807469 345.05266449818225283
42.009497869018190385759 1856.77435857127306917 42.009497869018190385759 345.40143355236097022
43.009497869018190385759 1862.47907117903969265 43.009497869018190385759 345.73638095205922127
44.009497869018218807469 1868.01896783518122902 44.009497869018218807469 346.05464693303423473
46.009497869018190385759 1878.63497203961310333 46.009497869018190385759 346.65776146326163598
48.009497869018218807469 1888.67820135484726052 48.009497869018218807469 347.22295254834949674
50.009497869018190385759 1898.19706344193764380 50.009497869018190385759 347.75258097292038428
52.009497869018190385759 1907.23468906856214744 52.009497869018190385759 348.25109132129466616
54.009497869018218807469 1915.82938487612591416 54.009497869018218807469 348.72181850571934092
56.009497869018190385759 1924.01545938625758936 56.009497869018190385759 349.16309994917759241
58.009497869018218807469 1931.82327060018724296 58.009497869018218807469 349.57080097931765295
60.009497869018190385759 1939.28016639041925373 60.009497869018190385759 349.96267280329243476
62.009497869018190385759 1946.41077748660154612 62.009497869018190385759 350.33348152219940630
64.009497869018218807469 1953.23734913879479791 64.009497869018218807469 350.68351045674830857
66.009497869018190385759 1959.77998221569987436 66.009497869018190385759 351.00514184367796133
68.009497869018190385759 1966.05686719837308374 68.009497869018190385759 351.30674039222134297
70.009497869018190385759 1972.08483898428107750 70.009497869018190385759 351.59874417845855987
72.009497869018190385759 1977.87925749153191646 72.009497869018190385759 351.87437902907652187
74.009497869018218807469 1983.45416687729766636 74.009497869018218807469 352.13788771471797645
76.009497869018190385759 1988.82218658603824224 76.009497869018190385759 352.38837704998530853
78.009497869018190385759 1993.99488195396270385 78.009497869018190385759 352.62155661623546621
80.009497869018218807469 1998.98313678750491817 80.009497869018218807469 352.85275570854872740
82.009497869018190385759 2003.79741598740088193 82.009497869018190385759 353.08055518866945022
84.009497869018218807469 2008.44723908813080016 84.009497869018218807469 353.29269674532861245
86.009497869018190385759 2012.94138190083162954 86.009497869018190385759 353.49738317473838833
88.009497869018190385759 2017.28773696244934399 88.009497869018190385759 353.69525525663033250
91.009497869018218807469 2023.54618362002111098 91.009497869018218807469 353.98445631962204061
94.009497869018218807469 2029.51172773120720194 94.009497869018218807469 354.27458947472007367
97.009497869018218807469 2035.20588605248804015 97.009497869018218807469 354.58935398742141842
99.504748934509137825444 2039.74979261047792534 99.504748934509137825444 354.70515561910161750
nan nan nan nan

