Time Pressure difference Time.1 Pressure.1 difference.1
(hr) (psi) (hr) (psi)
0.000200000000020850166 0.64288232511318000 0.000200000000020850166 0.51324318417616710
0.000399999999999067768 1.28395403229071792 0.000399999999999067768 1.33650409893321642
0.000600000000019917934 1.92348774411740009 0.000600000000019917934 1.95219937584806713
0.000799999999998135536 2.56161964155891964 0.000799999999998135536 2.57709417415714359
0.001007140329434719206 3.22115462847705647 0.001007140329434719206 3.23109234029099923
0.001267914553977789183 4.04957714097862098 0.001267914553977789183 4.05749805421089427
0.001596209851982166583 5.08967701348711810 0.001596209851982166583 5.09279806443515781
0.002009509145224797066 6.39485857606141650 0.002009509145224797066 6.38856819753506588
0.002529822128153114136 8.03166020849552531 0.002529822128153114136 8.00850495526121620
0.003184857364431081805 10.08281485170259550 0.003184857364431081805 10.03096726125965077
0.004009497869034817086 12.65093911643732127 0.004009497869034817086 12.55190402305923314
0.005047658755856332391 15.86294049200987466 0.005047658755856332391 15.68813822617937248
0.006354625877790454069 19.87521652927760130 0.006354625877790454069 19.58094291090917949
0.008000000000009777068 24.87970530173108941 0.008000000000009777068 24.39975056017361865
0.010071403294361402914 31.11078740711850443 0.010071403294361402914 30.34565899115649046
0.012679145539692626699 38.85294273950755439 0.012679145539692626699 37.65424568555133789
0.015962098519750611558 48.44893619717669964 0.015962098519750611558 46.59703781184511939
0.020095091452091651263 60.30813307205080065 0.020095091452091651263 57.48026875818092662
0.025298221281360611101 74.91408521322085790 0.025298221281360611101 70.63963452314280289
0.031848573644296607199 92.83039280465023069 0.031848573644296607199 86.42913676415119539
0.040094978690191851456 114.70309763002651948 0.040094978690191851456 105.20114324486618784
0.050476587558435426217 141.25728667617934775 0.050476587558435426217 127.27534994326970264
0.063546258777947173257 173.28509102094648142 0.063546258777947173257 152.89410925921544049
0.080000000000012505552 211.62158856625222825 0.080000000000012505552 182.16306981149168109
0.100714032943542974863 257.10531168014978221 0.100714032943542974863 214.97529822166762870
0.126791455396883634421 310.51903788736780143 0.126791455396883634421 250.93359502926193727
0.159620985197506115583 372.51435937633613094 0.159620985197506115583 289.26818928793051100
0.200950914520774404082 443.51446530337148033 0.200950914520774404082 328.79693217108757608
0.252982212813464002465 523.62036583274812074 0.252982212813464002465 367.93210844943121174
0.318485736442809752589 612.51697583498264521 0.318485736442809752589 404.77724574026365190
0.400949786901833249431 709.42425743583441999 0.400949786901833249431 437.35568107883403854
0.504765875584169521062 813.10899815286813919 0.504765875584169521062 463.89249920556460438
0.635462587779443310865 921.96621787024866990 0.635462587779443310865 483.16159295344920110
0.800000000000011368684 1034.19076835979376483 0.800000000000011368684 494.77086301165678606
1.007140329435344483500 1147.98937618530158034 1.007140329435344483500 499.24752518138365076
1.267914553968907398485 1261.78999123511221114 1.267914553968907398485 497.96385470253073890
1.596209851975117999245 1374.41698537745514841 1.596209851975117999245 492.82055899350399386
2.009509145207687197399 1485.15182391908501813 2.009509145207687197399 485.84469914462147244
2.529822128134725289783 1593.72007906075168648 2.529822128134725289783 478.92029130792769820
3.184857364427983839050 1700.22449513053720693 3.184857364427983839050 473.43082779500292645
4.009497869018204596614 1804.96666734903351426 4.009497869018204596614 470.18638413745298976
5.009497869018190385759 1904.96127427105284369 5.009497869018190385759 469.46843495415305370
6.009497869018190385759 1985.99007549440284492 6.009497869018190385759 470.64901458766428277
7.009497869018204596614 2054.13590827178950349 7.009497869018204596614 472.80462371682256162
8.009497869018190385759 2112.93329722754924660 8.009497869018190385759 475.38894757108141675
9.009497869018204596614 2164.61948302407063238 9.009497869018204596614 478.16417192275952175
10.009497869018190385759 2210.70283665191027467 10.009497869018190385759 480.96172171802487583
11.009497869018190385759 2252.25077988059592826 11.009497869018190385759 483.56850505948500540
12.009497869018204596614 2290.04726519507676130 12.009497869018204596614 486.07421956963986531
13.009497869018190385759 2324.68333208931107947 13.009497869018190385759 488.46161049465428050
14.009497869018204596614 2356.62399907738563343 14.009497869018204596614 490.72458824587658910
15.009497869018190385759 2386.23529490097234884 15.009497869018190385759 492.88053567292627122
16.009497869018190385759 2413.81369859123060451 16.009497869018190385759 494.91555042595570058
17.009497869018204596614 2439.60233135647104064 17.009497869018204596614 496.80182707465127123
18.009497869018190385759 2463.80083689276989389 18.009497869018190385759 498.56075629712495356
19.009497869018204596614 2486.57486942909781646 19.009497869018204596614 500.13993351170643109
20.009497869018190385759 2508.06650537890254782 20.009497869018190385759 501.63142452319419817
21.009497869018190385759 2528.39674550767585970 21.009497869018190385759 503.04405869539857576
22.009497869018204596614 2547.66916324284602524 22.009497869018204596614 504.40571966763570799
23.009497869018190385759 2565.98338089718981792 23.009497869018190385759 505.74526329830143823
24.009497869018204596614 2583.42303907099449134 24.009497869018204596614 507.01636737437780766
25.009497869018204596614 2600.05977787311257998 25.009497869018204596614 508.24286310454721161
26.009497869018190385759 2615.95640879149368629 26.009497869018190385759 509.38108844969718803
27.009497869018204596614 2631.17021993004618707 27.009497869018204596614 510.42741731730649235
28.009497869018190385759 2645.74686376790577924 28.009497869018190385759 511.39893602559385499
29.009497869018190385759 2659.72382848870756789 29.009497869018190385759 512.32147105552166977
30.009497869018190385759 2673.14122900487745937 30.009497869018190385759 513.19116473660460542
31.009497869018218807469 2686.03857453481168704 31.009497869018218807469 513.99055118804824360
32.009497869018190385759 2698.45006775654746889 32.009497869018190385759 514.74090861930949359
33.009497869018190385759 2710.40663161778138601 33.009497869018190385759 515.50764514192474053
34.009497869018218807469 2721.93739249007876424 34.009497869018218807469 516.22766232724245583
35.009497869018190385759 2733.06703410930776954 35.009497869018190385759 516.92414853822697296
36.009497869018190385759 2743.81847767666067739 36.009497869018190385759 517.60478530346904336
37.009497869018190385759 2754.21300684743664533 37.009497869018190385759 518.26115142066498720
38.009497869018218807469 2764.26943093456384304 38.009497869018218807469 518.89327810800375573
39.009497869018190385759 2774.00539100712967411 39.009497869018190385759 519.49051886502184061
40.009497869018190385759 2783.43726312321496152 40.009497869018190385759 520.04968911763853612
41.009497869018218807469 2792.58043884264907319 41.009497869018218807469 520.60577450602943372
42.009497869018190385759 2801.44903223034179973 42.009497869018190385759 521.13198746496573222
43.009497869018190385759 2810.05614248065649008 43.009497869018190385759 521.63734669959808343
44.009497869018218807469 2818.41458304957177461 44.009497869018218807469 522.11753747791135538
46.009497869018190385759 2834.43171220011845435 46.009497869018190385759 523.02749975158769757
48.009497869018218807469 2849.58465467573432761 48.009497869018218807469 523.88024419575538104
50.009497869018190385759 2863.94644659660752950 50.009497869018190385759 524.67933269598518109
52.009497869018190385759 2877.58216245432140568 52.009497869018190385759 525.43147111633936674
54.009497869018218807469 2890.54959823415492792 54.009497869018218807469 526.14169107880468346
56.009497869018190385759 2902.90051767049362752 56.009497869018190385759 526.80748413384685591
58.009497869018218807469 2914.68072406344072078 58.009497869018218807469 527.42261200388281850
60.009497869018190385759 2925.93147911536925676 60.009497869018190385759 528.01385721198505507
62.009497869018190385759 2936.68994497978519576 62.009497869018190385759 528.57332299840606993
64.009497869018218807469 2946.98968466555015766 64.009497869018218807469 529.10143682947989419
66.009497869018190385759 2956.86102579912630972 66.009497869018190385759 529.58670523782984674
68.009497869018190385759 2966.33141366772088077 68.009497869018190385759 530.04174866194807691
70.009497869018190385759 2975.42624829207352377 70.009497869018190385759 530.48231577802516767
72.009497869018190385759 2984.16870428546872063 72.009497869018190385759 530.89818590351899275
74.009497869018218807469 2992.57997107802839309 74.009497869018218807469 531.29576041167968015
76.009497869018190385759 3000.67908853332119179 76.009497869018190385759 531.67369168945151614
78.009497869018190385759 3008.48350610597890409 78.009497869018190385759 532.02550647361840674
80.009497869018218807469 3016.00964497763834515 80.009497869018218807469 532.37433317430156876
82.009497869018190385759 3023.27329429678002271 82.009497869018190385759 532.71803063553636548
84.009497869018218807469 3030.28881686981185339 84.009497869018218807469 533.03810386137297428
86.009497869018190385759 3037.06945339423737096 86.009497869018190385759 533.34692900048241881
88.009497869018190385759 3043.62711190825666563 88.009497869018190385759 533.64547284333696098
91.009497869018218807469 3053.06968054950584701 91.009497869018218807469 534.08181128925423309
94.009497869018218807469 3062.07032605059339403 94.009497869018218807469 534.51955604957765900
97.009497869018218807469 3070.66151228971921228 97.009497869018218807469 534.99446391084643437
99.504748934509137825444 3077.51723095615943748 99.504748934509137825444 535.16918216215333359
nan nan nan nan

