Time Pressure difference Time.1 Pressure.1 difference.1
(hr) (psi) (hr) (psi)
0.000200000000020850166 0.03322389277070698 0.000200000000020850166 0.02652419556465980
0.000399999999999067768 0.06635421355507587 0.000399999999999067768 0.06906997927303445
0.000600000000019917934 0.09940505137557624 0.000600000000019917934 0.10088885663297505
0.000799999999998135536 0.13238344400821289 0.000799999999998135536 0.13318316145514958
0.001007140329434719206 0.16646793945617866 0.001007140329434719206 0.16698151629410848
0.001267914553977789183 0.20928047240199593 0.001267914553977789183 0.20968982192304364
0.001596209851982166583 0.26303240379778381 0.001596209851982166583 0.26319369842042156
0.002009509145224797066 0.33048364734167529 0.002009509145224797066 0.33015856318010678
0.002529822128153114136 0.41507287899201684 0.002529822128153114136 0.41387622507809901
0.003184857364431081805 0.52107570293036665 0.003184857364431081805 0.51839624089197167
0.004009497869034817086 0.65379530317505541 0.004009497869034817086 0.64867721049401716
0.005047658755856332391 0.81979020630541999 0.005047658755856332391 0.81075649747696998
0.006354625877790454069 1.02714297308928182 0.006354625877790454069 1.01193503415551311
0.008000000000009777068 1.28577288381039212 0.008000000000009777068 1.26096902119760301
0.010071403294361402914 1.60779263085883728 0.010071403294361402914 1.56825111065408218
0.012679145539692626699 2.00790401754560976 0.012679145539692626699 1.94595584938249799
0.015962098519750611558 2.50382099210215481 0.015962098519750611558 2.40811564919096277
0.020095091452091651263 3.11669938356851661 0.020095091452091651263 2.97055652497059031
0.025298221281360611101 3.87152895158764210 0.025298221281360611101 3.65062710713916339
0.031848573644296607199 4.79743632065375891 0.031848573644296607199 4.46662205499489318
0.040094978690191851456 5.92780866305046672 0.040094978690191851456 5.43675158888197263
0.050476587558435426217 7.30011817447955291 0.050476587558435426217 6.57753746476845969
0.063546258777947173257 8.95530186154762120 0.063546258777947173257 7.90150435448141852
0.080000000000012505552 10.93651620497427679 0.080000000000012505552 9.41411213496080812
0.100714032943542974863 13.28709621086045267 0.100714032943542974863 11.10983453341951588
0.126791455396883634421 16.04749549805518427 0.126791455396883634421 12.96814444595668725
0.159620985197506115583 19.25138808146439828 0.159620985197506115583 14.94926042831682267
0.200950914520774404082 22.92064420172462391 0.200950914520774404082 16.99208951788565969
0.252982212813464002465 27.06048402236424266 0.252982212813464002465 19.01457924803262145
0.318485736442809752589 31.65462407415930812 0.318485736442809752589 20.91872071009114364
0.400949786901833249431 36.66275232226534087 0.400949786901833249431 22.60236077926790799
0.504765875584169521062 42.02113685544537702 0.504765875584169521062 23.97377256876302809
0.635462587779443310865 47.64683296487073250 0.635462587779443310865 24.96959136710331961
0.800000000000011368684 53.44655133642345390 0.800000000000011368684 25.56955364401327202
1.007140329435344483500 59.32761634032566178 1.007140329435344483500 25.80090569412835322
1.267914553968907398485 65.20878507674999014 1.267914553968907398485 25.73456613449771169
1.596209851975117999245 71.02930156989432930 1.596209851975117999245 25.46876273868237917
2.009509145207687197399 76.75203224388035039 2.009509145207687197399 25.10825318576855025
2.529822128134725289783 82.36279478350137140 2.529822128134725289783 24.75040265157248953
3.184857364427983839050 87.86689897315437747 3.184857364427983839050 24.46670944677017445
4.009497869018204596614 93.27993112914903406 4.009497869018204596614 24.29903793992005134
5.009497869018190385759 98.44761107343941831 5.009497869018190385759 24.26193462295364967
6.009497869018190385759 102.63514602038257806 6.009497869018190385759 24.32294649031856437
7.009497869018204596614 106.15689448433020914 7.009497869018204596614 24.43434747890555769
8.009497869018190385759 109.19551923656587178 8.009497869018190385759 24.56790426723934928
9.009497869018204596614 111.86663994956438728 9.009497869018204596614 24.71132671435449524
10.009497869018190385759 114.24820861250182702 10.009497869018190385759 24.85590293116407778
11.009497869018190385759 116.39538914111606971 11.009497869018190385759 24.99062041651085053
12.009497869018204596614 118.34869587571456861 12.009497869018204596614 25.12011470644133482
13.009497869018190385759 120.13867349298763543 13.009497869018190385759 25.24349408241107540
14.009497869018204596614 121.78935395748763426 14.009497869018204596614 25.36044383699620752
15.009497869018190385759 123.31965348325438470 15.009497869018190385759 25.47186230867835732
16.009497869018190385759 124.74489398404291762 16.009497869018190385759 25.57703102976514842
17.009497869018204596614 126.07763986338352424 17.009497869018204596614 25.67451302711375760
18.009497869018190385759 127.32820862494936875 18.009497869018190385759 25.76541376212531986
19.009497869018204596614 128.50516121080607945 19.009497869018204596614 25.84702498768508860
20.009497869018190385759 129.61584007126111828 20.009497869018190385759 25.92410462652166458
21.009497869018190385759 130.66649847584889699 21.009497869018190385759 25.99710897650638586
22.009497869018204596614 131.66248905647782408 22.009497869018204596614 26.06747905259099340
23.009497869018190385759 132.60896025308471735 23.009497869018190385759 26.13670611360731044
24.009497869018204596614 133.51023457731236022 24.009497869018204596614 26.20239624673787304
25.009497869018204596614 134.37001436036757696 25.009497869018204596614 26.26578103899468175
26.009497869018190385759 135.19154567397899314 26.009497869018190385759 26.32460405424791716
27.009497869018204596614 135.97778914367165726 27.009497869018204596614 26.37867789753522274
28.009497869018190385759 136.73110407069279404 28.009497869018190385759 26.42888558271803134
29.009497869018190385759 137.45342782887377098 29.009497869018190385759 26.47656181165486800
30.009497869018190385759 138.14683354030373152 30.009497869018190385759 26.52150722152995144
31.009497869018218807469 138.81336302505485492 31.009497869018218807469 26.56281918284486920
32.009497869018190385759 139.45478386338746191 32.009497869018190385759 26.60159734466715520
33.009497869018190385759 140.07269414045381950 33.009497869018190385759 26.64122197115890600
34.009497869018218807469 140.66859909509449267 34.009497869018218807469 26.67843216161459452
35.009497869018190385759 141.24377437257402335 35.009497869018190385759 26.71442628104531991
36.009497869018190385759 141.79940453109355758 36.009497869018190385759 26.74960130767281541
37.009497869018190385759 142.33658950115955122 37.009497869018190385759 26.78352203724367087
38.009497869018218807469 142.85630134028752991 38.009497869018218807469 26.81619008310097030
39.009497869018190385759 143.35945173163460709 39.009497869018190385759 26.84705523850242059
40.009497869018190385759 143.84688698311191501 40.009497869018190385759 26.87595292597615071
41.009497869018218807469 144.31940252416794124 41.009497869018218807469 26.90469118894208833
42.009497869018190385759 144.77772776384196618 42.009497869018190385759 26.93188565710416782
43.009497869018190385759 145.22253966308301187 43.009497869018190385759 26.95800241341592240
44.009497869018218807469 145.65450041599854103 44.009497869018218807469 26.98281847431066538
46.009497869018190385759 146.48225902842986557 46.009497869018190385759 27.02984494840246654
48.009497869018218807469 147.26535683078731154 48.009497869018218807469 27.07391442872121345
50.009497869018190385759 148.00756829956631577 50.009497869018190385759 27.11521099204057705
52.009497869018190385759 148.71225645758769929 52.009497869018190385759 27.15408119464286330
54.009497869018218807469 149.38240817747569622 54.009497869018218807469 27.19078506867207068
56.009497869018190385759 150.02069858762243371 56.009497869018190385759 27.22519297849337860
58.009497869018218807469 150.62949478364032529 58.009497869018218807469 27.25698253250040537
60.009497869018190385759 151.21092915324908290 60.009497869018190385759 27.28753784041266428
62.009497869018190385759 151.76692222117750930 62.009497869018190385759 27.31645080095121969
64.009497869018218807469 152.29920850984757408 64.009497869018218807469 27.34374350539947685
66.009497869018190385759 152.80935533845615737 66.009497869018190385759 27.36882197611524248
68.009497869018190385759 153.29878106809928795 68.009497869018190385759 27.39233843214201514
70.009497869018190385759 153.76879836134747848 70.009497869018190385759 27.41510675855427337
72.009497869018190385759 154.22060487263405548 72.009497869018190385759 27.43659875470382303
74.009497869018218807469 154.65529566294719643 74.009497869018218807469 27.45714524091367892
76.009497869018190385759 155.07385470456441112 76.009497869018190385759 27.47667657309827050
78.009497869018190385759 155.47718377808675427 78.009497869018190385759 27.49485821569087562
80.009497869018218807469 155.86613152339216981 80.009497869018218807469 27.51288543536442788
82.009497869018190385759 156.24151391714624992 82.009497869018190385759 27.53064757806389551
84.009497869018218807469 156.60407322324607549 84.009497869018218807469 27.54718883004511554
86.009497869018190385759 156.95449371546445150 86.009497869018190385759 27.56314878555464531
88.009497869018190385759 157.29339079629235698 88.009497869018190385759 27.57857740792439216
91.009497869018218807469 157.78137883976773992 91.009497869018218807469 27.60112719841107776
94.009497869018218807469 158.24652847806683553 94.009497869018218807469 27.62374966664484077
97.009497869018218807469 158.69051743099325336 97.009497869018218807469 27.64829270857087096
99.504748934509137825444 159.04481813726923178 99.504748934509137825444 27.65732207556348143
nan nan nan nan

