Time Pressure difference Time.1 Pressure.1 difference.1
(hr) (psi) (hr) (psi)
0.000200000000020850166 0.44104717653113507 0.000200000000020850166 0.35210869612085882
0.000399999999999067768 0.88085218494363204 0.000399999999999067768 0.91690397484953223
0.000600000000019917934 1.31960205701077471 0.000600000000019917934 1.33929957180274362
0.000799999999998135536 1.75739021920902627 0.000799999999998135536 1.76800646831711039
0.001007140329434719206 2.20986189628077145 0.001007140329434719206 2.21667962880429004
0.001267914553977789183 2.77819827113649565 0.001267914553977789183 2.78363238602840468
0.001596209851982166583 3.49175516041558032 0.001596209851982166583 3.49389634653109704
0.002009509145224797066 4.38717041846073919 0.002009509145224797066 4.38285492621591732
0.002529822128153114136 5.51009246861902291 0.002529822128153114136 5.49420688791176470
0.003184857364431081805 6.91727995640061799 0.003184857364431081805 6.88171009784092380
0.004009497869034817086 8.67913264964886011 0.004009497869034817086 8.61118996930807867
0.005047658755856332391 10.88271498870444987 0.005047658755856332391 10.76279250400677867
0.006354625877790454069 13.63532296776021724 0.006354625877790454069 13.43343757841443598
0.008000000000009777068 17.06863503258295722 0.008000000000009777068 16.73936375639818053
0.010071403294361402914 21.34344717465106456 0.010071403294361402914 20.81853349393294295
0.012679145539692626699 26.65492583291797146 0.012679145539692626699 25.83256390055266039
0.015962098519750611558 33.23822367015610268 0.015962098519750611558 31.96773524301002567
0.020095091452091651263 41.37418431687206066 0.020095091452091651263 39.43413786898458540
0.025298221281360611101 51.39454683232594334 0.025298221281360611101 48.46207484727239034
0.031848573644296607199 63.68596715667865737 0.031848573644296607199 59.29440778005721313
0.040094978690191851456 78.69166000199493283 0.040094978690191851456 72.17287734240819930
0.050476587558435426217 96.90906876621606614 0.050476587558435426217 87.31680984480131258
0.063546258777947173257 118.88163221204467845 0.063546258777947173257 104.89247030574082942
0.080000000000012505552 145.18225262103351270 0.080000000000012505552 124.97233859160475333
0.100714032943542974863 176.38620219917251575 0.100714032943542974863 147.48305343114407151
0.126791455396883634421 213.03050273668256409 0.126791455396883634421 172.15211752007505197
0.159620985197506115583 255.56217678143988792 0.159620985197506115583 198.45143218590581569
0.200950914520774404082 304.27155177789438767 0.200950914520774404082 225.56998834993217429
0.252982212813464002465 359.22792539688532543 0.252982212813464002465 252.41853951763306441
0.318485736442809752589 420.21513458446486311 0.318485736442809752589 277.69601742645994591
0.400949786901833249431 486.69803707807244564 0.400949786901833249431 300.04633934478152923
0.504765875584169521062 557.83059175603739277 0.504765875584169521062 318.25183085032921326
0.635462587779443310865 632.51170760865898046 0.635462587779443310865 331.47132539829652842
0.800000000000011368684 709.50296899102136194 0.800000000000011368684 339.43582462427622204
1.007140329435344483500 787.57410691782320100 1.007140329435344483500 342.50702308955391118
1.267914553968907398485 865.64662189385603597 1.267914553968907398485 341.62636543545710310
1.596209851975117999245 942.91397834034717107 1.596209851975117999245 338.09782535600857045
2.009509145207687197399 1018.88322803751168522 2.009509145207687197399 333.31206104107747024
2.529822128134725289783 1093.36610075098087691 2.529822128134725289783 328.56159519962488957
3.184857364427983839050 1166.43308386862440784 3.184857364427983839050 324.79556790587406567
4.009497869018204596614 1238.29108573945313765 4.009497869018204596614 322.56972865243869819
5.009497869018190385759 1306.89203699990844143 5.009497869018190385759 322.07718211970961875
6.009497869018190385759 1362.48156342057859547 6.009497869018190385759 322.88711465897898734
7.009497869018204596614 1409.23277427948346485 7.009497869018204596614 324.36596278247128566
8.009497869018190385759 1449.57051786541182992 8.009497869018190385759 326.13892914760231179
9.009497869018204596614 1485.02964533046701945 9.009497869018204596614 328.04286213305596220
10.009497869018190385759 1516.64496933096165776 10.009497869018190385759 329.96211141120306820
11.009497869018190385759 1545.14879084831568434 11.009497869018190385759 331.75048602918155893
12.009497869018204596614 1571.07893775011098114 12.009497869018204596614 333.46952272800871242
13.009497869018190385759 1594.84089061941108412 13.009497869018190385759 335.10738394400704010
14.009497869018204596614 1616.75367378564828869 14.009497869018204596614 336.65989193612466579
15.009497869018190385759 1637.06839999020189680 15.009497869018190385759 338.13897214770520350
16.009497869018190385759 1655.98846763817005012 16.009497869018190385759 339.53508692013235759
17.009497869018204596614 1673.68066918641602570 17.009497869018204596614 340.82916043493514735
18.009497869018190385759 1690.28196949620291889 18.009497869018190385759 342.03586769221362829
19.009497869018204596614 1705.90601507345058963 19.009497869018204596614 343.11925671151959705
20.009497869018190385759 1720.65027694599120878 20.009497869018190385759 344.14248891707507028
21.009497869018190385759 1734.59776726689392490 21.009497869018190385759 345.11162166312226418
22.009497869018204596614 1747.81954222474337257 22.009497869018204596614 346.04578442314539188
23.009497869018190385759 1760.38394735969973226 23.009497869018190385759 346.96477365813706228
24.009497869018204596614 1772.34836401382199256 24.009497869018204596614 347.83681017544523684
25.009497869018204596614 1783.76194063387947608 25.009497869018204596614 348.67824329265442884
26.009497869018190385759 1794.66776882207113886 26.009497869018190385759 349.45911882014110006
27.009497869018204596614 1805.10515088224110514 27.009497869018204596614 350.17694908978006652
28.009497869018190385759 1815.10540653844691406 28.009497869018190385759 350.84345611058182612
29.009497869018190385759 1824.69425442829947315 29.009497869018190385759 351.47635804971838525
30.009497869018190385759 1833.89921524753185622 30.009497869018190385759 352.07300836581009662
31.009497869018218807469 1842.74739415760313932 31.009497869018218807469 352.62142465226560262
32.009497869018190385759 1851.26225578646858594 32.009497869018190385759 353.13620475045644298
33.009497869018190385759 1859.46501471452438636 33.009497869018190385759 353.66222166713447450
34.009497869018218807469 1867.37565298737922603 34.009497869018218807469 354.15618694543371703
35.009497869018190385759 1875.01110479592034608 35.009497869018190385759 354.63400888087664953
36.009497869018190385759 1882.38709515026698682 36.009497869018190385759 355.10095735935664152
37.009497869018190385759 1889.51822562789266158 37.009497869018190385759 355.55125504440974282
38.009497869018218807469 1896.41740029231709741 38.009497869018218807469 355.98492335316541357
39.009497869018190385759 1903.09672173744957036 39.009497869018190385759 356.39465829111964013
40.009497869018190385759 1909.56742470081030660 40.009497869018190385759 356.77827509233344472
41.009497869018218807469 1915.84006850832906821 41.009497869018218807469 357.15977553320618654
42.009497869018190385759 1921.92433606500208043 42.009497869018190385759 357.52078209805785036
43.009497869018190385759 1927.82921402742704231 43.009497869018190385759 357.86748203809639790
44.009497869018218807469 1933.56349302238072596 44.009497869018218807469 358.19691524647402048
46.009497869018190385759 1944.55198860240670911 46.009497869018190385759 358.82119169004266723
48.009497869018218807469 1954.94761192870146260 48.009497869018218807469 359.40621404127409733
50.009497869018190385759 1964.80046917674235374 50.009497869018190385759 359.95442591933868925
52.009497869018190385759 1974.15520447447670449 52.009497869018190385759 360.47042785888396565
54.009497869018218807469 1983.05146855599014089 54.009497869018218807469 360.95767178662174501
56.009497869018190385759 1991.52477375068747278 56.009497869018190385759 361.41443678949963214
58.009497869018218807469 1999.60654325282530408 58.009497869018218807469 361.83644311894283874
60.009497869018190385759 2007.32508450938144051 60.009497869018190385759 362.24206483147810332
62.009497869018190385759 2014.70589248613168820 62.009497869018190385759 362.62588438262747559
64.009497869018218807469 2021.77199296822641372 64.009497869018218807469 362.98819503417803389
66.009497869018190385759 2028.54419211800541234 66.009497869018190385759 363.32111173292980766
68.009497869018190385759 2035.04131867901810438 68.009497869018190385759 363.63329268668525174
70.009497869018190385759 2041.28079824688734334 70.009497869018190385759 363.93554221980798502
72.009497869018190385759 2047.27852968421711921 72.009497869018190385759 364.22084846869324792
74.009497869018218807469 2053.04904992562387633 74.009497869018218807469 364.49360307312906571
76.009497869018190385759 2058.60542120309264646 76.009497869018190385759 364.75288150787957875
78.009497869018190385759 2063.95961465410164237 78.009497869018190385759 364.99424281329635278
80.009497869018218807469 2069.12289597303151822 80.009497869018218807469 365.23355415446275174
82.009497869018190385759 2074.10609725011681803 82.009497869018190385759 365.46934659879821083
84.009497869018218807469 2078.91907203859136644 84.009497869018218807469 365.68893171884889171
86.009497869018190385759 2083.57090407279065403 86.009497869018190385759 365.90080012823796096
88.009497869018190385759 2088.06976282078085205 88.009497869018190385759 366.10561509019629511
91.009497869018218807469 2094.54780409791646889 91.009497869018218807469 366.40496355890707036
94.009497869018218807469 2100.72266554633733904 94.009497869018218807469 366.70527682471026765
97.009497869018218807469 2106.61661889643528411 97.009497869018218807469 367.03108570627830431
99.504748934509137825444 2111.31996077224903274 99.504748934509137825444 367.15095055310519001
nan nan nan nan

