Time Pressure difference Time.1 Pressure.1 difference.1
(hr) (psi) (hr) (psi)
0.000200000000020850166 0.28157249123174161 0.000200000000020850166 0.22479255741049181
0.000399999999999067768 0.56235195987926789 0.000399999999999067768 0.58536807433896698
0.000600000000019917934 0.84245781040800860 0.000600000000019917934 0.85503305996446344
0.000799999999998135536 1.12194968796960426 0.000799999999998135536 1.12872729333239241
0.001007140329434719206 1.41081578689111398 0.001007140329434719206 1.41516835059256962
0.001267914553977789183 1.77365200360691544 0.001267914553977789183 1.77712124079779499
0.001596209851982166583 2.22919962218621803 0.001596209851982166583 2.23056659411307301
0.002009509145224797066 2.80084891122069779 0.002009509145224797066 2.79809382295140496
0.002529822128153114136 3.51774264945734272 0.002529822128153114136 3.50760100753688908
0.003184857364431081805 4.41611658233485738 0.003184857364431081805 4.39340814155945925
0.004009497869034817086 5.54091519440859503 0.004009497869034817086 5.49753935893679557
0.005047658755856332391 6.94772199843843463 0.005047658755856332391 6.87116131611732150
0.006354625877790454069 8.70503669693166415 0.006354625877790454069 8.57614941446797374
0.008000000000009777068 10.89692519029307327 0.008000000000009777068 10.68671245464968500
0.010071403294361402914 13.62604254652864455 0.010071403294361402914 13.29092816279334777
0.012679145539692626699 17.01698654869904459 0.012679145539692626699 16.49197582351667180
0.015962098519750611558 21.21988290806576316 0.015962098519750611558 20.40878012689340792
0.020095091452091651263 26.41402727574317666 0.020095091452091651263 25.17546654912575477
0.025298221281360611101 32.81120786470526696 0.025298221281360611101 30.93906473300440751
0.031848573644296607199 40.65827281754060607 0.031848573644296607199 37.85462191608172589
0.040094978690191851456 50.23817841935270678 0.040094978690191851456 46.07646971577472783
0.050476587558435426217 61.86850152871420505 0.050476587558435426217 55.74463001391269756
0.063546258777947173257 75.89618327661609953 0.063546258777947173257 66.96524940423000771
0.080000000000012505552 92.68697483715698127 0.080000000000012505552 79.78460034379286014
0.100714032943542974863 112.60814038704234008 0.100714032943542974863 94.15584767073038108
0.126791455396883634421 136.00252434601767959 0.126791455396883634421 109.90502417948292191
0.159620985197506115583 163.15551399041078184 0.159620985197506115583 126.69498212998506403
0.200950914520774404082 194.25245960961620995 0.200950914520774404082 144.00795866408097368
0.252982212813464002465 229.33760208953694359 0.252982212813464002465 161.14855912707648145
0.318485736442809752589 268.27293902850016138 0.318485736442809752589 177.28615801802246210
0.400949786901833249431 310.71682593119879812 0.400949786901833249431 191.55500760429552543
0.504765875584169521062 356.12913484989957169 0.504765875584169521062 203.17772252026665569
0.635462587779443310865 403.80690937727945311 0.635462587779443310865 211.61728683620066249
0.800000000000011368684 452.95952257618876047 0.800000000000011368684 216.70196713301248792
1.007140329435344483500 502.80154848426002445 1.007140329435344483500 218.66267575773781573
1.267914553968907398485 552.64445352545612877 1.267914553968907398485 218.10044798986811543
1.596209851975117999245 601.97333080485452683 1.596209851975117999245 215.84776421033316751
2.009509145207687197399 650.47347326688600333 2.009509145207687197399 212.79244574938846313
2.529822128134725289783 698.02468579017420325 2.529822128134725289783 209.75966247207688298
3.184857364427983839050 744.67196879748337324 3.184857364427983839050 207.35536256137726241
4.009497869018204596614 790.54741631953788783 4.009497869018204596614 205.93434654082244606
5.009497869018190385759 834.34350384739911988 5.009497869018190385759 205.61989592953216288
6.009497869018190385759 869.83286252274240269 6.009497869018190385759 206.13697150544984993
7.009497869018204596614 899.67968075469843825 7.009497869018204596614 207.08109488372460305
8.009497869018190385759 925.43202552989578180 8.009497869018190385759 208.21298866485349777
9.009497869018204596614 948.06977357255811967 9.009497869018204596614 209.42849390415435096
10.009497869018190385759 968.25356799095300175 10.009497869018190385759 210.65377734161555168
11.009497869018190385759 986.45092297095857248 11.009497869018190385759 211.79550802992946501
12.009497869018204596614 1003.00519754668084715 12.009497869018204596614 212.89297213709031098
13.009497869018190385759 1018.17525785307020669 13.009497869018190385759 213.93861234843387820
14.009497869018204596614 1032.16477478970773518 14.009497869018204596614 214.92976151854284694
15.009497869018190385759 1045.13406327058100942 15.009497869018190385759 215.87403306604909403
16.009497869018190385759 1057.21297651476379542 16.009497869018190385759 216.76533797725966224
17.009497869018204596614 1068.50799784217520028 17.009497869018204596614 217.59149790478912223
18.009497869018190385759 1079.10656809644592613 18.009497869018190385759 218.36188163401209295
19.009497869018204596614 1089.08124126158168110 19.009497869018204596614 219.05353677063115470
20.009497869018190385759 1098.49424460393765912 20.009497869018190385759 219.70678670977110869
21.009497869018190385759 1107.39857458281926483 21.009497869018190385759 220.32549857589162912
22.009497869018204596614 1115.83959475364963509 22.009497869018204596614 220.92188497070861786
23.009497869018190385759 1123.86093814489299803 23.009497869018190385759 221.50858431282196648
24.009497869018204596614 1131.49923804272248162 24.009497869018204596614 222.06530819110344055
25.009497869018204596614 1138.78587170411515217 25.009497869018204596614 222.60249430547995075
26.009497869018190385759 1145.74834958697192633 26.009497869018190385759 223.10101935975109200
27.009497869018204596614 1152.41176299261701388 27.009497869018204596614 223.55929518161099168
28.009497869018190385759 1158.79610699912154814 28.009497869018190385759 223.98480531353530409
29.009497869018190385759 1164.91780084970514508 29.009497869018190385759 224.38886135377498476
30.009497869018190385759 1170.79441425407389943 30.009497869018190385759 224.76977370246635246
31.009497869018218807469 1176.44325163733992667 31.009497869018218807469 225.11989257461024749
32.009497869018190385759 1181.87929324220885974 32.009497869018190385759 225.44853749605414350
33.009497869018190385759 1187.11608284034605276 33.009497869018190385759 225.78435620557169727
34.009497869018218807469 1192.16637733092579765 34.009497869018218807469 226.09971256968367470
35.009497869018190385759 1197.04098780756498854 35.009497869018190385759 226.40476273185907985
36.009497869018190385759 1201.74995340101781949 36.009497869018190385759 226.70287108252711050
37.009497869018190385759 1206.30259602232717953 37.009497869018190385759 226.99034926564010561
38.009497869018218807469 1210.70715385893686289 38.009497869018218807469 227.26721095428072772
39.009497869018190385759 1214.97135342560341087 39.009497869018190385759 227.52879314630803265
40.009497869018190385759 1219.10236718187343286 40.009497869018190385759 227.77370104764790426
41.009497869018218807469 1223.10693639232295027 41.009497869018218807469 228.01725782628417960
42.009497869018190385759 1226.99124279856050634 42.009497869018190385759 228.24773094395783346
43.009497869018190385759 1230.76102364462849437 43.009497869018190385759 228.46907045369994194
44.009497869018218807469 1234.42189102558768354 44.009497869018218807469 228.67938656978290624
46.009497869018190385759 1241.43714526594339986 46.009497869018190385759 229.07793593771089036
48.009497869018218807469 1248.07389914092254912 48.009497869018218807469 229.45142478341227843
50.009497869018190385759 1254.36414133882431088 50.009497869018190385759 229.80141315754389097
52.009497869018190385759 1260.33637347805574791 52.009497869018190385759 230.13083812459825594
54.009497869018218807469 1266.01590930410657165 54.009497869018218807469 230.44190345699581712
56.009497869018190385759 1271.42542053010015479 56.009497869018190385759 230.73351049273139779
58.009497869018218807469 1276.58496829135197004 58.009497869018218807469 231.00292696294093275
60.009497869018190385759 1281.51262457378584259 60.009497869018190385759 231.26188319749732614
62.009497869018190385759 1286.22466582447964356 62.009497869018190385759 231.50692053806159265
64.009497869018218807469 1290.73579212095819457 64.009497869018218807469 231.73822620826058483
66.009497869018190385759 1295.05928649341581149 66.009497869018190385759 231.95076624757666650
68.009497869018190385759 1299.20716955214129484 68.009497869018190385759 232.15006821240359614
70.009497869018190385759 1303.19056611241967403 70.009497869018190385759 232.34302977874747853
72.009497869018190385759 1307.01962629557374385 72.009497869018190385759 232.52517444611490305
74.009497869018218807469 1310.70363074347756083 74.009497869018218807469 232.69930591674344100
76.009497869018190385759 1314.25091862118324570 76.009497869018190385759 232.86483395700787469
78.009497869018190385759 1317.66913251928531281 78.009497869018190385759 233.01892337798017252
80.009497869018218807469 1320.96546466074869386 80.009497869018218807469 233.17170406471350930
82.009497869018190385759 1324.14683044781440913 82.009497869018190385759 233.32223822409153513
84.009497869018218807469 1327.21952056701047695 84.009497869018218807469 233.46242533463237123
86.009497869018190385759 1330.18933423856128684 86.009497869018190385759 233.59768595757563503
88.009497869018190385759 1333.06148699857772044 88.009497869018190385759 233.72844353215921842
91.009497869018218807469 1337.19718566703159013 91.009497869018218807469 233.91955300653387440
94.009497869018218807469 1341.13932885161625563 94.009497869018218807469 234.11127842481505468
97.009497869018218807469 1344.90213522766748611 97.009497869018218807469 234.31928070513811235
99.504748934509137825444 1347.90483371335676566 99.504748934509137825444 234.39580459040050187
nan nan nan nan

