Time Pressure difference Time.1 Pressure.1 difference.1
(hr) (psi) (hr) (psi)
0.000200000000020850166 0.54570243875886204 0.000200000000020850166 0.43565991214953720
0.000399999999999067768 1.08986795764212108 0.000399999999999067768 1.13447440955959089
0.000600000000019917934 1.63272796884383964 0.000600000000019917934 1.65709947019661485
0.000799999999998135536 2.17439806783489686 0.000799999999998135536 2.18753342690083175
0.001007140329434719206 2.73423590556773410 0.001007140329434719206 2.74267140513073171
0.001267914553977789183 3.43743175920278299 0.001267914553977789183 3.44415532508599176
0.001596209851982166583 4.32030723237859959 0.001596209851982166583 4.32295649655542569
0.002009509145224797066 5.42819390758701648 0.002009509145224797066 5.42285440023325371
0.002529822128153114136 6.81757203744387663 0.002529822128153114136 6.79791699690777662
0.003184857364431081805 8.55866842063127287 0.003184857364431081805 8.51465825665063392
0.004009497869034817086 10.73858785465028554 0.004009497869034817086 10.65452318236423146
0.005047658755856332391 13.46505413856652211 0.005047658755856332391 13.31667547105923433
0.006354625877790454069 16.87082333299145276 0.006354625877790454069 16.62103293600430476
0.008000000000009777068 21.11881961658568940 0.008000000000009777068 20.71141617317062966
0.010071403294361402914 26.40799396185640191 0.010071403294361402914 25.75852449249330078
0.012679145539692626699 32.97982348818663922 0.012679145539692626699 31.96232482610753323
0.015962098519750611558 41.12525979527789133 0.015962098519750611558 39.55329953796155706
0.020095091452091651263 51.19178737511288801 0.020095091452091651263 48.79139092264195199
0.025298221281360611101 63.58986302982701488 0.025298221281360611101 59.96155023476075741
0.031848573644296607199 78.79789156673798800 0.031848573644296607199 73.36426725329111775
0.040094978690191851456 97.36425729060391632 0.040094978690191851456 89.29864484738639874
0.050476587558435426217 119.90444101582666292 0.050476587558435426217 108.03605285882194664
0.063546258777947173257 147.09083307591967582 0.063546258777947173257 129.78220902235730705
0.080000000000012505552 179.63227866670246158 0.080000000000012505552 154.62679181673129847
0.100714032943542974863 218.24055526338293021 0.100714032943542974863 182.47903221141552876
0.126791455396883634421 263.58011355555640876 0.126791455396883634421 213.00177252483860002
0.159620985197506115583 316.20404923805278941 0.159620985197506115583 245.54160253510383427
0.200950914520774404082 376.47158101332695423 0.200950914520774404082 279.09507033127198383
0.252982212813464002465 444.46845006733263972 0.252982212813464002465 312.31446414893582642
0.318485736442809752589 519.92720041806660447 0.318485736442809752589 343.58998766324708640
0.400949786901833249431 602.18570689320824840 0.400949786901833249431 371.24377579947537242
0.504765875584169521062 690.19717285069032187 0.504765875584169521062 393.76921444193277466
0.635462587779443310865 782.59923144800177397 0.635462587779443310865 410.12553820467206833
0.800000000000011368684 877.85960570075530995 0.800000000000011368684 419.97991860291801913
1.007140329435344483500 974.45609838984887574 1.007140329435344483500 423.77987602605821849
1.267914553968907398485 1071.05429488561844664 1.267914553968907398485 422.69024875912492689
1.596209851975117999245 1166.65627828551441780 1.596209851975117999245 418.32442798285808294
2.009509145207687197399 1260.65212960573467171 2.009509145207687197399 412.40305857624844066
2.529822128134725289783 1352.80890431901002557 2.529822128134725289783 406.52536355207820407
3.184857364427983839050 1443.21381563406066562 3.184857364427983839050 401.86570266320012479
4.009497869018204596614 1532.12286879627254166 4.009497869018204596614 399.11169816318687253
5.009497869018190385759 1617.00201188124242435 5.009497869018190385759 398.50227618201364521
6.009497869018190385759 1685.78227338478382080 6.009497869018190385759 399.50439610348246333
7.009497869018204596614 1743.62699190512375935 7.009497869018204596614 401.33415734102379702
8.009497869018190385759 1793.53640346059432886 8.009497869018190385759 403.52782758940628582
9.009497869018204596614 1837.40956117159498717 9.009497869018204596614 405.88354128327262060
10.009497869018190385759 1876.52682646034259051 10.009497869018190385759 408.25820564436997984
11.009497869018190385759 1911.79426664283141690 11.009497869018190385759 410.47094034119072603
12.009497869018204596614 1943.87732975861172235 12.009497869018204596614 412.59788405329891248
13.009497869018190385759 1973.27771212232210019 13.009497869018190385759 414.62439030360189918
14.009497869018204596614 2000.39013875173441193 14.009497869018204596614 416.54529002266275484
15.009497869018190385759 2025.52530846245304019 15.009497869018190385759 418.37533842004205553
16.009497869018190385759 2048.93488368790531240 16.009497869018190385759 420.10273466389259056
17.009497869018204596614 2070.82523475607422370 17.009497869018204596614 421.70387647034351630
18.009497869018190385759 2091.36582666479353065 18.009497869018190385759 423.19692104290840007
19.009497869018204596614 2110.69727288748981664 19.009497869018204596614 424.53738542272759560
20.009497869018190385759 2128.94017317046382232 20.009497869018190385759 425.80341849061835546
21.009497869018190385759 2146.19723746581757950 21.009497869018190385759 427.00251493911741818
22.009497869018204596614 2162.55638275264846015 22.009497869018204596614 428.15834343880698043
23.009497869018190385759 2178.10217215691636738 23.009497869018190385759 429.29539791600006993
24.009497869018204596614 2192.90560293235557765 24.009497869018204596614 430.37435835266950335
25.009497869018204596614 2207.02748586903726391 25.009497869018204596614 431.41545356548766676
26.009497869018190385759 2220.52113769510515340 26.009497869018190385759 432.38162159102199666
27.009497869018204596614 2233.43518668480692213 27.009497869018204596614 433.26978446701599523
28.009497869018190385759 2245.80838436112935597 28.009497869018190385759 434.09444569614362308
29.009497869018190385759 2257.67255208925189436 29.009497869018190385759 434.87752775643116365
30.009497869018190385759 2269.06174089948854089 30.009497869018190385759 435.61575611362945892
31.009497869018218807469 2280.00948768652597209 31.009497869018218807469 436.29430507822695517
32.009497869018190385759 2290.54482495613865467 32.009497869018190385759 436.93123638615804794
33.009497869018190385759 2300.69400125695392489 33.009497869018190385759 437.58207087628500176
34.009497869018218807469 2310.48174013692687367 34.009497869018218807469 438.19324825451974448
35.009497869018190385759 2319.92899406952847130 35.009497869018190385759 438.78445166616933193
36.009497869018190385759 2329.05521942321183815 36.009497869018190385759 439.36220147852600348
37.009497869018190385759 2337.87848255654535023 37.009497869018190385759 439.91934946172733589
38.009497869018218807469 2346.41474951422287631 38.009497869018218807469 440.45592211493345758
39.009497869018190385759 2354.67899469209851304 39.009497869018190385759 440.96288229240229839
40.009497869018190385759 2362.68511869761277921 40.009497869018190385759 441.43752680915827113
41.009497869018218807469 2370.44618645945820390 41.009497869018218807469 441.90955277837377935
42.009497869018190385759 2377.97417852110402237 42.009497869018190385759 442.35622191793601132
43.009497869018190385759 2385.28021396613848992 43.009497869018190385759 442.78518964035652061
44.009497869018218807469 2392.37516933277584030 44.009497869018218807469 443.19279344055263437
46.009497869018190385759 2405.97110454196081264 46.009497869018190385759 443.96520327751051127
48.009497869018218807469 2418.83348594568133194 48.009497869018218807469 444.68904449174596039
50.009497869018190385759 2431.02430932037623279 50.009497869018190385759 445.36734054426648299
52.009497869018190385759 2442.59881231587769435 52.009497869018190385759 446.00578362200906213
54.009497869018218807469 2453.60605431503881846 54.009497869018218807469 446.60864475293880105
56.009497869018190385759 2464.08997430169802101 56.009497869018190385759 447.17379467175373975
58.009497869018218807469 2474.08945182129218665 58.009497869018218807469 447.69593809631913928
60.009497869018190385759 2483.63951134211583849 60.009497869018190385759 448.19780902877801054
62.009497869018190385759 2492.77169748284086381 62.009497869018190385759 448.67270440562373324
64.009497869018218807469 2501.51449977424636018 64.009497869018218807469 449.12098707618639537
66.009497869018190385759 2509.89366143414235921 66.009497869018190385759 449.53290095769278878
68.009497869018190385759 2517.93247904353029298 68.009497869018190385759 449.91915874793261310
70.009497869018190385759 2525.65251308513188633 70.009497869018190385759 450.29312850925390421
72.009497869018190385759 2533.07343503301444798 72.009497869018190385759 450.64613454601033027
74.009497869018218807469 2540.21323126390780089 74.009497869018218807469 450.98361058200720208
76.009497869018190385759 2547.08806352247029281 76.009497869018190385759 451.30441271313912921
78.009497869018190385759 2553.71274355507512155 78.009497869018190385759 451.60304619272261561
80.009497869018218807469 2560.10121027171635433 80.009497869018218807469 451.89914327586069476
82.009497869018190385759 2566.26686608912723386 82.009497869018190385759 452.19088646969947831
84.009497869018218807469 2572.22190269181692202 84.009497869018218807469 452.46257653349101702
86.009497869018190385759 2577.97755927650359808 86.009497869018190385759 452.72471880273508305
88.009497869018190385759 2583.54394382910186323 88.009497869018190385759 452.97813392515814712
91.009497869018218807469 2591.55914744318533849 91.009497869018218807469 453.34851423390193759
94.009497869018218807469 2599.19923025224761659 94.009497869018218807469 453.72008827464156866
97.009497869018218807469 2606.49174880406417287 97.009497869018218807469 454.12320773827650555
99.504748934509137825444 2612.31113790464723934 99.504748934509137825444 454.27151509113019756
nan nan nan nan

