Time Pressure difference Time.1 Pressure.1 difference.1
(hr) (psi) (hr) (psi)
0.000200000000020850166 0.24585680650323161 0.000200000000020850166 0.19627904717848252
0.000399999999999067768 0.49102118030756137 0.000399999999999067768 0.51111784662045490
0.000600000000019917934 0.73559738017926424 0.000600000000019917934 0.74657753908401525
0.000799999999998135536 0.97963748566077546 0.000799999999998135536 0.98555539476810672
0.001007140329434719206 1.23186275197572193 0.001007140329434719206 1.23566322057640265
0.001267914553977789183 1.54867549577476993 0.001267914553977789183 1.55170468223052294
0.001596209851982166583 1.94643978810360063 0.001596209851982166583 1.94763336831112022
0.002009509145224797066 2.44557899032839732 0.002009509145224797066 2.44317336753279024
0.002529822128153114136 3.07153930454092405 0.002529822128153114136 3.06268406557793282
0.003184857364431081805 3.85596020168471343 0.003184857364431081805 3.83613218260058986
0.004009497869034817086 4.83808524349541003 0.004009497869034817086 4.80021135765572726
0.005047658755856332391 6.06644752666010767 0.005047658755856332391 5.99959808132957928
0.006354625877790454069 7.60085800086068453 0.006354625877790454069 7.48831925275079691
0.008000000000009777068 9.51471934019690124 0.008000000000009777068 9.33117075686226194
0.010071403294361402914 11.89766546835539529 0.010071403294361402914 11.60505821884020961
0.012679145539692626699 14.85848972983751537 0.012679145539692626699 14.40007328543048715
0.015962098519750611558 18.52827534155594691 0.015962098519750611558 17.82005580401312272
0.020095091452091651263 23.06357543840702107 0.020095091452091651263 21.98211828478236995
0.025298221281360611101 28.64931424174854868 0.025298221281360611101 27.01464059282980656
0.031848573644296607199 35.50102877283781311 0.031848573644296607199 33.05300320696220950
0.040094978690191851456 43.86578410657345728 0.040094978690191851456 40.23196175772660155
0.050476587558435426217 54.02087449114869599 0.050476587558435426217 48.67377723928660060
0.063546258777947173257 66.26923377545240612 0.063546258777947173257 58.47113222316249193
0.080000000000012505552 80.93021991680963367 0.080000000000012505552 69.66442979870998897
0.100714032943542974863 98.32451196036734586 0.100714032943542974863 82.21277554730440329
0.126791455396883634421 118.75146668560836360 0.126791455396883634421 95.96426890007948884
0.159620985197506115583 142.46027180283655866 0.159620985197506115583 110.62452716954447851
0.200950914520774404082 169.61276709276222618 0.200950914520774404082 125.74146243235391296
0.252982212813464002465 200.24758176549539712 0.252982212813464002465 140.70788643544139518
0.318485736442809752589 234.24421814877888437 0.318485736442809752589 154.79853325467448144
0.400949786901833249431 271.30436718476352098 0.400949786901833249431 167.25746976658251697
0.504765875584169521062 310.95641273029582408 0.504765875584169521062 177.40591700884641568
0.635462587779443310865 352.58656394004339063 0.635462587779443310865 184.77497611656457366
0.800000000000011368684 395.50447988953357026 0.800000000000011368684 189.21469696569823782
1.007140329435344483500 439.02436091840985455 1.007140329435344483500 190.92670213654983513
1.267914553968907398485 482.54500956794987587 1.267914553968907398485 190.43578939528305227
1.596209851975117999245 525.61683161721805391 1.596209851975117999245 188.46884426624959019
2.009509145207687197399 567.96503860471466396 2.009509145207687197399 185.80107357468727969
2.529822128134725289783 609.48468139791020803 2.529822128134725289783 183.15297962163643319
3.184857364427983839050 650.21505240134240466 3.184857364427983839050 181.05364990609930942
4.009497869018204596614 690.27149035570278102 4.009497869018204596614 179.81288075540837212
5.009497869018190385759 728.51232194345175230 5.009497869018190385759 179.53831620985698692
6.009497869018190385759 759.50008055083105774 6.009497869018190385759 179.98980402835741188
7.009497869018204596614 785.56101918404351636 7.009497869018204596614 180.81417134390113688
8.009497869018190385759 808.04684235058743980 8.009497869018190385759 181.80249157757117473
9.009497869018204596614 827.81313562677644313 9.009497869018204596614 182.86381768622328536
10.009497869018190385759 845.43674373251360521 10.009497869018190385759 183.93368169061415074
11.009497869018190385759 861.32587964425886184 11.009497869018190385759 184.93059108218031383
12.009497869018204596614 875.78034948028778217 12.009497869018204596614 185.88884882766586770
13.009497869018190385759 889.02618384810853058 13.009497869018190385759 186.80185620984195793
14.009497869018204596614 901.24121928540841964 14.009497869018204596614 187.66728439377195059
15.009497869018190385759 912.56543577608249507 15.009497869018190385759 188.49178108421986622
16.009497869018190385759 923.11221548191770125 16.009497869018190385759 189.27002962026210753
17.009497869018204596614 932.97453498903803393 17.009497869018204596614 189.99139640064180412
18.009497869018190385759 942.22874382462532594 18.009497869018190385759 190.66406183972736699
19.009497869018204596614 950.93819295996502206 19.009497869018204596614 191.26798490886966420
20.009497869018190385759 959.15721652733213887 20.009497869018190385759 191.83837423626030727
21.009497869018190385759 966.93208872128172970 21.009497869018190385759 192.37860642614725748
22.009497869018204596614 974.30241901793613124 22.009497869018204596614 192.89934498917332917
23.009497869018190385759 981.30630587282701072 23.009497869018190385759 193.41162524069412143
24.009497869018204596614 987.97573587211172708 24.009497869018204596614 193.89773222586023849
25.009497869018204596614 994.33810626672004673 25.009497869018204596614 194.36677968856065490
26.009497869018190385759 1000.41743798744460037 26.009497869018190385759 194.80207000143457208
27.009497869018204596614 1006.23563966317021823 27.009497869018204596614 195.20221644176064046
28.009497869018190385759 1011.81017012312656789 28.009497869018190385759 195.57375331211343905
29.009497869018190385759 1017.15536593366584839 29.009497869018190385759 195.92655740624601890
30.009497869018190385759 1022.28656819824766444 30.009497869018190385759 196.25915343932163637
31.009497869018218807469 1027.21888638540599459 31.009497869018218807469 196.56486195305203069
32.009497869018190385759 1031.96540058906725790 32.009497869018190385759 196.85182035053696836
33.009497869018190385759 1036.53793663935834957 33.009497869018190385759 197.14504258657589730
34.009497869018218807469 1040.94763330369937648 34.009497869018218807469 197.42039799594800797
35.009497869018190385759 1045.20393035704796603 35.009497869018190385759 197.68675447973535597
36.009497869018190385759 1049.31559353009242841 36.009497869018190385759 197.94704967677884611
37.009497869018190385759 1053.29076230858049712 37.009497869018190385759 198.19806307560315872
38.009497869018218807469 1057.13662991812770997 38.009497869018218807469 198.43980661494717310
39.009497869018190385759 1060.85994281409625728 39.009497869018190385759 198.66820876491792092
40.009497869018190385759 1064.46696367502818248 40.009497869018190385759 198.88205165222353799
41.009497869018218807469 1067.96357867884262305 41.009497869018218807469 199.09471479817145223
42.009497869018190385759 1071.35518545243053268 42.009497869018190385759 199.29595386257085465
43.009497869018190385759 1074.64679350681421965 43.009497869018190385759 199.48921785927782935
44.009497869018218807469 1077.84330307838922636 44.009497869018218807469 199.67285670989889468
46.009497869018190385759 1083.96871681038101087 46.009497869018190385759 200.02085261817822470
48.009497869018218807469 1089.76364054782607127 48.009497869018218807469 200.34696677253697317
50.009497869018190385759 1095.25600541679045818 50.009497869018190385759 200.65256134110026665
52.009497869018190385759 1100.47069778614900315 52.009497869018190385759 200.94020084035716422
54.009497869018218807469 1105.42982051332023730 54.009497869018218807469 201.21180950817333155
56.009497869018190385759 1110.15316954840591279 56.009497869018190385759 201.46642804085101375
58.009497869018218807469 1114.65826139893852087 58.009497869018218807469 201.70167074050300471
60.009497869018190385759 1118.96087573404315663 60.009497869018190385759 201.92778001905369933
62.009497869018190385759 1123.07522443671359724 62.009497869018190385759 202.14173592703900795
64.009497869018218807469 1127.01414297287215049 64.009497869018218807469 202.34370193995613363
66.009497869018190385759 1130.78922950457535990 66.009497869018190385759 202.52928262325275455
68.009497869018190385759 1134.41097990393450345 68.009497869018190385759 202.70330439785092835
70.009497869018190385759 1137.88910787397117019 70.009497869018190385759 202.87179001330162009
72.009497869018190385759 1141.23247605749202194 72.009497869018190385759 203.03083078480827339
74.009497869018218807469 1144.44918790580913992 74.009497869018218807469 203.18287478276121760
76.009497869018190385759 1147.54652481377661388 76.009497869018190385759 203.32740664092722227
78.009497869018190385759 1150.53115995784219194 78.009497869018190385759 203.46195079611246115
80.009497869018218807469 1153.40937327310211913 80.009497869018218807469 203.59535222169677127
82.009497869018190385759 1156.18720298688231196 82.009497869018190385759 203.72679207767282605
84.009497869018218807469 1158.87014185202110639 84.009497869018218807469 203.84919734233386635
86.009497869018190385759 1161.46325349443714003 86.009497869018190385759 203.96730101310438954
88.009497869018190385759 1163.97109189256343598 88.009497869018190385759 204.08147281864049205
91.009497869018218807469 1167.58220341428113898 91.009497869018218807469 204.24834126824197256
94.009497869018218807469 1171.02431073769457726 94.009497869018218807469 204.41574753317183877
97.009497869018218807469 1174.30982898935008052 97.009497869018218807469 204.59736604342444366
99.504748934509137825444 1176.93165421579237773 99.504748934509137825444 204.66418335916978322
nan nan nan nan

