Time Pressure difference Time.1 Pressure.1 difference.1
(hr) (psi) (hr) (psi)
0.000200000000020850166 0.23173665207568114 0.000200000000020850166 0.18500626406350210
0.000399999999999067768 0.46282063954665414 0.000399999999999067768 0.48176310542941531
0.000600000000019917934 0.69335023334464430 0.000600000000019917934 0.70369977501500092
0.000799999999998135536 0.92337452195728498 0.000799999999998135536 0.92895255114966824
0.001007140329434719206 1.16111387770684593 0.001007140329434719206 1.16469607615140669
0.001267914553977789183 1.45973129500392163 0.001267914553977789183 1.46258650791322964
0.001596209851982166583 1.83465101648954243 0.001596209851982166583 1.83577604648244086
0.002009509145224797066 2.30512344020818549 0.002009509145224797066 2.30285597818124499
0.002529822128153114136 2.89513333096931724 0.002529822128153114136 2.88678666991974087
0.003184857364431081805 3.63450302793930780 0.003184857364431081805 3.61581378022150224
0.004009497869034817086 4.56022223964601192 0.004009497869034817086 4.52452354319576955
0.005047658755856332391 5.71803668898030448 0.005047658755856332391 5.65502656990186559
0.006354625877790454069 7.16432223729773998 0.006354625877790454069 7.05824686323470374
0.008000000000009777068 8.96826586457748398 0.008000000000009777068 8.79525892285328226
0.010071403294361402914 11.21435360024038985 0.010071403294361402914 10.93855149681222372
0.012679145539692626699 14.00513052238062883 0.012679145539692626699 13.57304204944292536
0.015962098519750611558 17.46415141991252895 0.015962098519750611558 16.79660665310696288
0.020095091452091651263 21.73897820039040596 0.020095091452091651263 20.71963176166986997
0.025298221281360611101 27.00391443732380381 0.025298221281360611101 25.46312407229566332
0.031848573644296607199 33.46211833655996770 0.031848573644296607199 31.15468883358937902
0.040094978690191851456 41.34646542477700137 0.040094978690191851456 37.92134233245176489
0.050476587558435426217 50.91832426699487968 0.050476587558435426217 45.87832381676000182
0.063546258777947173257 62.46323048429466951 0.063546258777947173257 55.11299287250788836
0.080000000000012505552 76.28220052969557230 0.080000000000012505552 65.66343214135164885
0.100714032943542974863 92.67749607075165841 0.100714032943542974863 77.49109587060112858
0.126791455396883634421 111.93128109893491740 0.126791455396883634421 90.45280751054789903
0.159620985197506115583 134.27843186821417021 0.159620985197506115583 104.27109148750983536
0.200950914520774404082 159.87149330702925454 0.200950914520774404082 118.51982438725249835
0.252982212813464002465 188.74687605599058315 0.252982212813464002465 132.62669025502754039
0.318485736442809752589 220.79100291726120986 0.318485736442809752589 145.90807695288575019
0.400949786901833249431 255.72269744780075484 0.400949786901833249431 157.65146643539367233
0.504765875584169521062 293.09742956673147773 0.504765875584169521062 167.21706366712211889
0.635462587779443310865 332.33665992997339345 0.635462587779443310865 174.16289978554564755
0.800000000000011368684 372.78969557155357961 0.800000000000011368684 178.34763666699259943
1.007140329435344483500 413.81012397377145362 1.007140329435344483500 179.96131721654529656
1.267914553968907398485 454.83127591033115777 1.267914553968907398485 179.49859878812154079
1.596209851975117999245 495.42937845001296182 1.596209851975117999245 177.64462010230960232
2.009509145207687197399 535.34542490106537116 2.009509145207687197399 175.13006597073564308
2.529822128134725289783 574.48049361492212483 2.529822128134725289783 172.63405849471814690
3.184857364427983839050 612.87162033775177861 3.184857364427983839050 170.65529839122197586
4.009497869018204596614 650.62751962581444332 4.009497869018204596614 169.48578963094234950
5.009497869018190385759 686.67208723723990715 5.009497869018190385759 169.22699399510167950
6.009497869018190385759 715.88014349216848586 6.009497869018190385759 169.65255176997197850
7.009497869018204596614 740.44433902820310323 7.009497869018204596614 170.42957366536626296
8.009497869018190385759 761.63874667504683202 8.009497869018190385759 171.36113226399447740
9.009497869018204596614 780.26981364821153875 9.009497869018204596614 172.36150383262261698
10.009497869018190385759 796.88125507220024701 10.009497869018190385759 173.36992294486941546
11.009497869018190385759 811.85783925928456028 11.009497869018190385759 174.30957740516319632
12.009497869018204596614 825.48215373310915766 12.009497869018204596614 175.21280007742831231
13.009497869018190385759 837.96724761358871092 13.009497869018190385759 176.07337122481723668
14.009497869018204596614 849.48074385347615589 14.009497869018204596614 176.88909576304854454
15.009497869018190385759 860.15458304569938264 15.009497869018190385759 177.66623960303152785
16.009497869018190385759 870.09563553869941188 16.009497869018190385759 178.39979143261192007
17.009497869018204596614 879.39153804709997075 17.009497869018204596614 179.07972836411846629
18.009497869018190385759 888.11425515902180905 18.009497869018190385759 179.71376099082411315
19.009497869018204596614 896.32349944537236297 19.009497869018204596614 180.28299928910348626
20.009497869018190385759 904.07048449704620907 20.009497869018190385759 180.82062976998858517
21.009497869018190385759 911.39882686904593356 21.009497869018190385759 181.32983511113204145
22.009497869018204596614 918.34586116893297003 22.009497869018204596614 181.82066639182215795
23.009497869018190385759 924.94749776526600726 23.009497869018190385759 182.30352514241099016
24.009497869018204596614 931.23388617675391288 24.009497869018204596614 182.76171382099664697
25.009497869018204596614 937.23085016356378674 25.009497869018204596614 183.20382274698792457
26.009497869018190385759 942.96103107600345083 26.009497869018190385759 183.61411327837919316
27.009497869018204596614 948.44507927710969852 27.009497869018204596614 183.99127833530818066
28.009497869018190385759 953.69945089308225761 28.009497869018190385759 184.34147693945826063
29.009497869018190385759 958.73765910639463073 29.009497869018190385759 184.67401863629268632
30.009497869018190385759 963.57416394361848688 30.009497869018190385759 184.98751287017142886
31.009497869018218807469 968.22320709975758746 31.009497869018218807469 185.27566380034295435
32.009497869018190385759 972.69711744712765267 32.009497869018190385759 185.54614147905340360
33.009497869018190385759 977.00704162966530930 33.009497869018190385759 185.82252324883333472
34.009497869018218807469 981.16347868828404444 34.009497869018218807469 186.08206432726180424
35.009497869018190385759 985.17532624870398195 35.009497869018190385759 186.33312331029108577
36.009497869018190385759 989.05084660437751154 36.009497869018190385759 186.57846912101788917
37.009497869018190385759 992.79771177058762532 37.009497869018190385759 186.81506620977461353
38.009497869018218807469 996.42270184850553960 38.009497869018218807469 187.04292582962926872
39.009497869018190385759 999.93217582815145761 39.009497869018190385759 187.25821028855438044
40.009497869018190385759 1003.33203670720558875 40.009497869018190385759 187.45977165868367820
41.009497869018218807469 1006.62783260607113789 41.009497869018218807469 187.66022104287108618
42.009497869018190385759 1009.82465115279774182 42.009497869018190385759 187.84990245830158528
43.009497869018190385759 1012.92721415000403340 43.009497869018190385759 188.03206683357606721
44.009497869018218807469 1015.94014040158992884 44.009497869018218807469 188.20515885831687797
46.009497869018190385759 1021.71375672329838835 46.009497869018190385759 188.53316851510717811
48.009497869018218807469 1027.17586389474149655 48.009497869018218807469 188.84055314033045647
50.009497869018190385759 1032.35278888947505038 50.009497869018190385759 189.12859666948301651
52.009497869018190385759 1037.26798879167427003 52.009497869018190385759 189.39971633263397166
54.009497869018218807469 1041.94229703789301311 54.009497869018218807469 189.65572585398771821
56.009497869018190385759 1046.39437264866637634 56.009497869018190385759 189.89572102499133166
58.009497869018218807469 1050.64072611589131157 58.009497869018218807469 190.11745316419032292
60.009497869018190385759 1054.69623084391218981 60.009497869018190385759 190.33057643687831728
62.009497869018190385759 1058.57428249271310960 62.009497869018190385759 190.53224433663473292
64.009497869018218807469 1062.28697935618674819 64.009497869018218807469 190.72261095016136778
66.009497869018190385759 1065.84525348573151859 66.009497869018190385759 190.89753328340378857
68.009497869018190385759 1069.25899794999236292 68.009497869018190385759 191.06156056419055744
70.009497869018190385759 1072.53736857039848474 70.009497869018190385759 191.22036964091606137
72.009497869018190385759 1075.68871898662246167 72.009497869018190385759 191.37027631405916850
74.009497869018218807469 1078.72068724905670933 74.009497869018218807469 191.51358805537293506
76.009497869018190385759 1081.64013656433667165 76.009497869018190385759 191.64981909736044940
78.009497869018190385759 1084.45335685215513877 78.009497869018190385759 191.77663605444388395
80.009497869018218807469 1087.16626737566048178 80.009497869018218807469 191.90237591166686570
82.009497869018190385759 1089.78455957209507687 82.009497869018190385759 192.02626685699567588
84.009497869018218807469 1092.31341073214139215 84.009497869018218807469 192.14164208956466950
86.009497869018190385759 1094.75759366536476591 86.009497869018190385759 192.25296277924365995
88.009497869018190385759 1097.12140080413905707 88.009497869018190385759 192.36057742027261952
91.009497869018218807469 1100.52511740738009394 91.009497869018218807469 192.51786220891725065
94.009497869018218807469 1103.76953613451610181 94.009497869018218807469 192.67565392484775089
97.009497869018218807469 1106.86635908117773397 97.009497869018218807469 192.84684164228181658
99.504748934509137825444 1109.33760650745284693 99.504748934509137825444 192.90982147705526017
nan nan nan nan

