Time Pressure difference Time.1 Pressure.1 difference.1
(hr) (psi) (hr) (psi)
0.000200000000020850166 0.25250158505737302 0.000200000000020850166 0.20158388629141447
0.000399999999999067768 0.50429202301857656 0.000399999999999067768 0.52493184247506175
0.000600000000019917934 0.75547839045437937 0.000600000000019917934 0.76675531041061029
0.000799999999998135536 1.00611417446241802 0.000799999999998135536 1.01219202705913669
0.001007140329434719206 1.26515633986695764 0.001007140329434719206 1.26905952383522447
0.001267914553977789183 1.59053159025516888 0.001267914553977789183 1.59364264661513166
0.001596209851982166583 1.99904626886315739 0.001596209851982166583 2.00027210799520416
0.002009509145224797066 2.51167571979673232 0.002009509145224797066 2.50920508016881172
0.002529822128153114136 3.15455388033932804 0.002529822128153114136 3.14545931059355244
0.003184857364431081805 3.96017534227078682 0.003184857364431081805 3.93981143077898421
0.004009497869034817086 4.96884430413042111 0.004009497869034817086 4.92994679975453032
0.005047658755856332391 6.23040556792119204 0.005047658755856332391 6.16174938082497281
0.006354625877790454069 7.80628659547854209 0.006354625877790454069 7.69070625958189957
0.008000000000009777068 9.77187391695898100 0.008000000000009777068 9.58336456110178325
0.010071403294361402914 12.21922399452716412 0.010071403294361402914 11.91870844097102555
0.012679145539692626699 15.26007053334663688 0.012679145539692626699 14.78926445530698608
0.015962098519750611558 19.02903953997637743 0.015962098519750611558 18.30167893385131705
0.020095091452091651263 23.68691531512072856 0.020095091452091651263 22.57622958977648508
0.025298221281360611101 29.42362003206607923 0.025298221281360611101 27.74476601425764244
0.031848573644296607199 36.46051603696856347 0.031848573644296607199 33.94632761796119524
0.040094978690191851456 45.05134583918353997 0.040094978690191851456 41.31931207550299234
0.050476587558435426217 55.48089812604460036 0.050476587558435426217 49.98928473224029290
0.063546258777947173257 68.06029414776192255 0.063546258777947173257 60.05143309405877972
0.080000000000012505552 83.11752315780449862 0.080000000000012505552 71.54725222570215237
0.100714032943542974863 100.98193120253942823 0.100714032943542974863 84.43474245398832068
0.126791455396883634421 121.96096578521938625 0.126791455396883634421 98.55789778927083944
0.159620985197506115583 146.31054941912944400 0.159620985197506115583 113.61437925520785086
0.200950914520774404082 174.19689593310715736 0.200950914520774404082 129.13988033593105342
0.252982212813464002465 205.65967856996823571 0.252982212813464002465 144.51080228504793013
0.318485736442809752589 240.57514296361074457 0.318485736442809752589 158.98227739669269454
0.400949786901833249431 278.63691764921662752 0.400949786901833249431 171.77794192243609928
0.504765875584169521062 319.36064010138483127 0.504765875584169521062 182.20067152259900922
0.635462587779443310865 362.11593053301754708 0.635462587779443310865 189.76889438998523474
0.800000000000011368684 406.19379015681823830 0.800000000000011368684 194.32860769450087446
1.007140329435344483500 450.88988418647500112 1.007140329435344483500 196.08688327537547025
1.267914553968907398485 495.58676658329989095 1.267914553968907398485 195.58270262218263724
1.596209851975117999245 539.82269193119691408 1.596209851975117999245 193.56259681398609018
2.009509145207687197399 583.31544505349063456 2.009509145207687197399 190.82272421184097766
2.529822128134725289783 625.95724035461046242 2.529822128134725289783 188.10306015195095597
3.184857364427983839050 667.78843219597320058 3.184857364427983839050 185.94699179545335710
4.009497869018204596614 708.92747658153257362 4.009497869018204596614 184.67268834339239447
5.009497869018190385759 748.20184415813957912 5.009497869018190385759 184.39070313444773319
6.009497869018190385759 780.02710975490754208 6.009497869018190385759 184.85439332642110344
7.009497869018204596614 806.79239808090960651 7.009497869018204596614 185.70104083968223563
8.009497869018190385759 829.88594619790058005 8.009497869018190385759 186.71607243101905738
9.009497869018204596614 850.18646361668936606 9.009497869018204596614 187.80608302909419649
10.009497869018190385759 868.28638545501394219 10.009497869018190385759 188.90486227684698406
11.009497869018190385759 884.60495747248205589 11.009497869018190385759 189.92871516548245836
12.009497869018204596614 899.45008865543070442 12.009497869018204596614 190.91287176895414746
13.009497869018190385759 913.05391854670608609 13.009497869018190385759 191.85055502632417301
14.009497869018204596614 925.59909007690600902 14.009497869018204596614 192.73937316117118712
15.009497869018190385759 937.22936647273331801 15.009497869018190385759 193.58615354595553981
16.009497869018190385759 948.06119427872624783 16.009497869018190385759 194.38543582621514361
17.009497869018204596614 958.19006296171471604 17.009497869018204596614 195.12629900606458477
18.009497869018190385759 967.69438554961527643 18.009497869018190385759 195.81714459215245938
19.009497869018204596614 976.63922520212622658 19.009497869018204596614 196.43738990640667907
20.009497869018190385759 985.08038454158452168 20.009497869018190385759 197.02319516156464374
21.009497869018190385759 993.06538841645146931 21.009497869018190385759 197.57802822144853394
22.009497869018204596614 1000.63491682923154258 22.009497869018204596614 198.11284079969152572
23.009497869018190385759 1007.82809792344380639 23.009497869018190385759 198.63896646341555652
24.009497869018204596614 1014.67778278757407406 24.009497869018204596614 199.13821147520783938
25.009497869018204596614 1021.21210913879349391 25.009497869018204596614 199.61993589635960689
26.009497869018190385759 1027.45574712224038194 26.009497869018190385759 200.06699081228416048
27.009497869018204596614 1033.43119749190464063 27.009497869018204596614 200.47795202126769709
28.009497869018190385759 1039.15639093726531428 28.009497869018190385759 200.85953042865702400
29.009497869018190385759 1044.64605149944077311 29.009497869018190385759 201.22186976857699392
30.009497869018190385759 1049.91593490630839369 30.009497869018190385759 201.56345488362762808
31.009497869018218807469 1054.98155899041694283 31.009497869018218807469 201.87742578962098605
32.009497869018190385759 1059.85635736174481281 32.009497869018190385759 202.17213981947037382
33.009497869018190385759 1064.55247546744885767 33.009497869018190385759 202.47328698080767140
34.009497869018218807469 1069.08135312271815565 34.009497869018218807469 202.75608442827092404
35.009497869018190385759 1073.45268523156255469 35.009497869018190385759 203.02963973594444269
36.009497869018190385759 1077.67547443631110582 36.009497869018190385759 203.29696993831339569
37.009497869018190385759 1081.75808020881254379 37.009497869018190385759 203.55476748305190426
38.009497869018218807469 1085.70789018618529553 38.009497869018218807469 203.80304463156738848
39.009497869018190385759 1089.53183316042304796 39.009497869018190385759 204.03761981261840219
40.009497869018190385759 1093.23634107165025853 40.009497869018190385759 204.25724223741875107
41.009497869018218807469 1096.82745918367618287 41.009497869018218807469 204.47565303595987984
42.009497869018190385759 1100.31073100519893160 42.009497869018190385759 204.68233099399168395
43.009497869018190385759 1103.69130143943084477 43.009497869018190385759 204.88081834196100317
44.009497869018218807469 1106.97420316158900278 44.009497869018218807469 205.06942040476107536
46.009497869018190385759 1113.26516861606705788 46.009497869018190385759 205.42682160785872725
48.009497869018218807469 1119.21671191398354495 48.009497869018218807469 205.76174965828118957
50.009497869018190385759 1124.85751907670373839 50.009497869018190385759 206.07560353950839271
52.009497869018190385759 1130.21314907766645774 52.009497869018190385759 206.37101707928576388
54.009497869018218807469 1135.30630214881534812 54.009497869018218807469 206.64996652190774284
56.009497869018190385759 1140.15730926593028016 56.009497869018190385759 206.91146663654970439
58.009497869018218807469 1144.78416035566647224 58.009497869018218807469 207.15306724700306518
60.009497869018190385759 1149.20306156469291636 60.009497869018190385759 207.38528758713624711
62.009497869018190385759 1153.42860888094924121 62.009497869018190385759 207.60502608722924833
64.009497869018218807469 1157.47398467484140383 64.009497869018218807469 207.81245064103603681
66.009497869018190385759 1161.35110057226665958 66.009497869018190385759 208.00304701847582578
68.009497869018190385759 1165.07073611755458842 68.009497869018190385759 208.18177208427931646
70.009497869018190385759 1168.64286754624072273 70.009497869018190385759 208.35481136501249466
72.009497869018190385759 1172.07659703201875345 72.009497869018190385759 208.51815053574907211
74.009497869018218807469 1175.38024703839869289 74.009497869018218807469 208.67430383094398394
76.009497869018190385759 1178.56129575468958137 76.009497869018190385759 208.82274195554688845
78.009497869018190385759 1181.62659671345932111 78.009497869018190385759 208.96092243925065191
80.009497869018218807469 1184.58259957778045646 80.009497869018218807469 209.09792930876963624
82.009497869018190385759 1187.43550577031146531 82.009497869018190385759 209.23292159328559592
84.009497869018218807469 1190.19095649667019643 84.009497869018218807469 209.35863510834289514
86.009497869018190385759 1192.85415223752988823 86.009497869018190385759 209.47993077021530439
88.009497869018190385759 1195.42977005182183348 88.009497869018190385759 209.59718830022535485
91.009497869018218807469 1199.13847918223473243 91.009497869018218807469 209.76856670792417958
94.009497869018218807469 1202.67361643330787047 94.009497869018218807469 209.94049746650080124
97.009497869018218807469 1206.04793247554857771 97.009497869018218807469 210.12702458513862780
99.504748934509137825444 1208.74061784324612745 99.504748934509137825444 210.19564777428246316
nan nan nan nan

