Time Pressure difference Time.1 Pressure.1 difference.1
(hr) (psi) (hr) (psi)
0.000200000000020850166 0.66198606345633648 0.000200000000020850166 0.52849459662584652
0.000399999999999067768 1.32210770508488640 0.000399999999999067768 1.37621933701521137
0.000600000000019917934 1.98064564865835657 0.000600000000019917934 2.01021046841202766
0.000799999999998135536 2.63774012186364182 0.000799999999998135536 2.65367449199385508
0.001007140329434719206 3.31687369366435947 0.001007140329434719206 3.32710671216011189
0.001267914553977789183 4.16991341260976878 0.001267914553977789183 4.17806970181664461
0.001596209851982166583 5.24092064567084304 0.001596209851982166583 5.24413444102690018
0.002009509145224797066 6.58488667328288013 0.002009509145224797066 6.57840937136362758
0.002529822128153114136 8.27032711391593445 0.002529822128153114136 8.24648378468112320
0.003184857364431081805 10.38243338088755507 0.003184857364431081805 10.32904509977253582
0.004009497869034817086 13.02687141576297769 0.004009497869034817086 12.92489341909329248
0.005047658755856332391 16.33431986063549601 0.005047658755856332391 16.15432321222862910
0.006354625877790454069 20.46582373880394101 0.006354625877790454069 20.16280555554859788
0.008000000000009777068 25.61902470992206204 0.008000000000009777068 25.12480774736224021
0.010071403294361402914 32.03526816986233428 0.010071403294361402914 31.24740337978258609
0.012679145539692626699 40.00748754959627718 0.012679145539692626699 38.77317029894627609
0.015962098519750611558 49.88863326763543427 0.015962098519750611558 47.98170431012992765
0.020095091452091651263 62.10023521760268750 0.020095091452091651263 59.18833876003900940
0.025298221281360611101 77.14021436038376578 0.025298221281360611101 72.73874510974783902
0.031848573644296607199 95.58891868902614419 0.031848573644296607199 88.99744444577325453
0.040094978690191851456 118.11158761128055517 0.040094978690191851456 108.32727540847332648
0.050476587558435426217 145.45485462650506747 0.050476587558435426217 131.05743398551155110
0.063546258777947173257 178.43438959133635535 0.063546258777947173257 157.43747426304227588
0.080000000000012505552 217.91008538411244899 0.080000000000012505552 187.57618428909412955
0.100714032943542974863 264.74539200139452078 0.100714032943542974863 221.36345307838382723
0.126791455396883634421 319.74634779874952528 0.126791455396883634421 258.39027808568704359
0.159620985197506115583 383.58390752317819761 0.159620985197506115583 297.86401403421268697
0.200950914520774404082 456.69383571936316457 0.200950914520774404082 338.56738364387183537
0.252982212813464002465 539.18014414560752812 0.252982212813464002465 378.86549151704997485
0.318485736442809752589 630.71838467762427172 0.318485736442809752589 416.80551014856609982
0.400949786901833249431 730.50534002113693077 0.400949786901833249431 450.35203852691307702
0.504765875584169521062 837.27115184474916987 0.504765875584169521062 477.67741843260330370
0.635462587779443310865 949.36314682504939810 0.635462587779443310865 497.51910798953366566
0.800000000000011368684 1064.92253537823739862 0.800000000000011368684 509.47335635696447298
1.007140329435344483500 1182.10275558098874171 1.007140329435344483500 514.08304595550737304
1.267914553968907398485 1299.28504265424339792 1.267914553968907398485 512.76123022986689648
1.596209851975117999245 1415.25883378014441405 1.596209851975117999245 507.46509756824644910
2.009509145207687197399 1529.28424245931614678 2.009509145207687197399 500.28194472643838253
2.529822128134725289783 1641.07868606126498889 2.529822128134725289783 493.15177283258191210
3.184857364427983839050 1750.74796204010112888 3.184857364427983839050 487.49918572689574603
4.009497869018204596614 1858.60262774829425325 4.009497869018204596614 484.15833095290707888
5.009497869018190385759 1961.56865063828058737 5.009497869018190385759 483.41904736235142082
6.009497869018190385759 2045.00528445612258110 6.009497869018190385759 484.63470881959744929
7.009497869018204596614 2115.17612260027954107 7.009497869018204596614 486.85437351719320986
8.009497869018190385759 2175.72072078857490851 8.009497869018190385759 489.51549252474399054
9.009497869018204596614 2228.94280099507022896 9.009497869018204596614 492.37318478351335216
10.009497869018190385759 2276.39555660409905613 10.009497869018190385759 495.25386590344425031
11.009497869018190385759 2319.17812863673725587 11.009497869018190385759 497.93811179897875263
12.009497869018204596614 2358.09776532361274803 12.009497869018204596614 500.51828552584362342
13.009497869018190385759 2393.76306934777858260 13.009497869018190385759 502.97661959204071991
14.009497869018204596614 2426.65287760294086183 14.009497869018204596614 505.30684345214945097
15.009497869018190385759 2457.14409565384357848 15.009497869018190385759 507.52685650041632925
16.009497869018190385759 2485.54201263205550276 16.009497869018190385759 509.62234326807060825
17.009497869018204596614 2512.09697427791616064 17.009497869018204596614 511.56467206524166613
18.009497869018190385759 2537.01455685211612945 18.009497869018190385759 513.37586921034699117
19.009497869018204596614 2560.46533712531117999 19.009497869018204596614 515.00197287962532755
20.009497869018190385759 2582.59561341987728156 20.009497869018190385759 516.53778468344421526
21.009497869018190385759 2603.52998213128921634 21.009497869018190385759 517.99239635688979888
22.009497869018204596614 2623.37509445032128497 22.009497869018204596614 519.39452012287540583
23.009497869018190385759 2642.23353304271313391 23.009497869018190385759 520.77386931362570976
24.009497869018204596614 2660.19142395294920789 24.009497869018204596614 522.08274521625207854
25.009497869018204596614 2677.32253613032344219 25.009497869018204596614 523.34568720196898539
26.009497869018190385759 2693.69154755403178569 26.009497869018190385759 524.51773578088966588
27.009497869018204596614 2709.35744868765732463 27.009497869018204596614 525.59515710838923042
28.009497869018190385759 2724.36724860855383668 28.009497869018190385759 526.59554523565668660
29.009497869018190385759 2738.75954949030983698 29.009497869018190385759 527.54549409722324071
30.009497869018190385759 2752.57565829055147333 30.009497869018190385759 528.44103138898435645
31.009497869018218807469 2765.85625827421790746 31.009497869018218807469 529.26417221818394410
32.009497869018190385759 2778.63656847799529714 32.009497869018190385759 530.03682709249301297
33.009497869018190385759 2790.94843074854225051 33.009497869018190385759 530.82634777534110526
34.009497869018218807469 2802.82183696975789644 34.009497869018218807469 531.56776082017086082
35.009497869018190385759 2814.28220437353729722 35.009497869018190385759 532.28494364982793741
36.009497869018190385759 2825.35313528203914757 36.009497869018190385759 532.98580605538086274
37.009497869018190385759 2836.05654581060343844 37.009497869018190385759 533.66167659208019813
38.009497869018218807469 2846.41180420522914574 38.009497869018218807469 534.31258740578675770
39.009497869018190385759 2856.43707575281950994 39.009497869018190385759 534.92757562716076336
40.009497869018190385759 2866.14922313850456703 40.009497869018190385759 535.50336205007488388
41.009497869018218807469 2875.56409529404572822 41.009497869018218807469 536.07597193967103522
42.009497869018190385759 2884.69622569455123084 42.009497869018190385759 536.61782171780055251
43.009497869018190385759 2893.55910278692908832 43.009497869018190385759 537.13819808731227567
44.009497869018218807469 2902.16592078877101812 44.009497869018218807469 537.63265810064001471
46.009497869018190385759 2918.65901114146527107 46.009497869018190385759 538.56966059691910687
48.009497869018218807469 2934.26223485343734865 48.009497869018218807469 539.44774499227014530
50.009497869018190385759 2949.05079836885852274 50.009497869018190385759 540.27057901640853288
52.009497869018190385759 2963.09170991743440027 52.009497869018190385759 541.04506780325903037
54.009497869018218807469 2976.44448293620371260 54.009497869018218807469 541.77639249329104132
56.009497869018190385759 2989.16241935837661003 56.009497869018190385759 542.46197009648051335
58.009497869018218807469 3001.29268356403372309 58.009497869018218807469 543.09537696007055274
60.009497869018190385759 3012.87776337848799812 60.009497869018190385759 543.70419147022232664
62.009497869018190385759 3023.95592525696201847 62.009497869018190385759 544.28028220895293998
64.009497869018218807469 3034.56172955871261365 64.009497869018218807469 544.82408934508464426
66.009497869018190385759 3044.72640511873851210 66.009497869018190385759 545.32377787409609482
68.009497869018190385759 3054.47821278187802818 68.009497869018190385759 545.79234326042967496
70.009497869018190385759 3063.84330734984814626 70.009497869018190385759 546.24600216419389653
72.009497869018190385759 3072.84555208723350006 72.009497869018190385759 546.67423018747365404
74.009497869018218807469 3081.50676608422281788 74.009497869018218807469 547.08361892520508718
76.009497869018190385759 3089.84655498844540489 76.009497869018190385759 547.47278071898301732
78.009497869018190385759 3097.88288677837863361 78.009497869018190385759 547.83504994764075491
80.009497869018218807469 3105.63267060358884919 80.009497869018218807469 548.19424229963624384
82.009497869018190385759 3113.11216479913900912 82.009497869018190385759 548.54815299292306463
84.009497869018218807469 3120.33615897317804411 84.009497869018218807469 548.87773743864886455
86.009497869018190385759 3127.31828728062964728 86.009497869018190385759 549.19573955217629191
88.009497869018190385759 3134.07081161612495634 88.009497869018190385759 549.50315485289354456
91.009497869018218807469 3143.79397338237231452 91.009497869018218807469 549.95245942834071684
94.009497869018218807469 3153.06207992548161201 94.009497869018218807469 550.40321210789841189
97.009497869018218807469 3161.90855981254026119 97.009497869018218807469 550.89223221827455745
99.504748934509137825444 3168.96800138508933742 99.504748934509137825444 551.07214235560240922
nan nan nan nan

