Time Pressure difference Time.1 Pressure.1 difference.1
(hr) (psi) (hr) (psi)
0.000200000000020850166 0.83558090318328038 0.000200000000020850166 0.66708351845119396
0.000399999999999067768 1.66880847091015805 0.000399999999999067768 1.73710997871681627
0.000600000000019917934 2.50003704209574273 0.000600000000019917934 2.53735474431932229
0.000799999999998135536 3.32944361680655465 0.000799999999998135536 3.34955651059701154
0.001007140329434719206 4.18666867732289294 0.001007140329434719206 4.19958513479682871
0.001267914553977789183 5.26340388091019751 0.001267914553977789183 5.27369902136454805
0.001596209851982166583 6.61526495551426397 0.001596209851982166583 6.61932151527360357
0.002009509145224797066 8.31166373064313291 0.002009509145224797066 8.30348786397968475
0.002529822128153114136 10.43908290664922411 0.002529822128153114136 10.40898706071419078
0.003184857364431081805 13.10505392869872310 0.003184857364431081805 13.03766545843308755
0.004009497869034817086 16.44295187485264620 0.004009497869034817086 16.31423184392453152
0.005047658755856332391 20.61772368858131088 0.005047658755856332391 20.39052591154579730
0.006354625877790454069 25.83264577319543776 0.006354625877790454069 25.45016610901115328
0.008000000000009777068 32.33718802783135970 0.008000000000009777068 31.71337088311971897
0.010071403294361402914 40.43598466609975617 0.010071403294361402914 39.44151543295016893
0.012679145539692626699 50.49878604127209059 0.012679145539692626699 48.94078961196982647
0.015962098519750611558 62.97109795136919530 0.015962098519750611558 60.56410857715270879
0.020095091452091651263 78.38498949674819016 0.020095091452091651263 74.70949660301035067
0.025298221281360611101 97.36895313242919769 0.025298221281360611101 91.81327174454996509
0.031848573644296607199 120.65552346444204090 0.031848573644296607199 112.33554468312156871
0.040094978690191851456 149.08438787571924422 0.040094978690191851456 136.73430246038162750
0.050476587558435426217 183.59797208816075909 0.050476587558435426217 165.42506723892674358
0.063546258777947173257 225.22584181792271352 0.063546258777947173257 198.72283451520766562
0.080000000000012505552 275.05338255510304180 0.080000000000012505552 236.76492019426436286
0.100714032943542974863 334.17046970314038390 0.100714032943542974863 279.41233851550083500
0.126791455396883634421 403.59451177608787020 0.126791455396883634421 326.14883281581069241
0.159620985197506115583 484.17241024882963529 0.159620985197506115583 375.97389977216806756
0.200950914520774404082 576.45420167337431394 0.200950914520774404082 427.35105137482446480
0.252982212813464002465 680.57117316246069549 0.252982212813464002465 478.21666808802041260
0.318485736442809752589 796.11379546510670480 0.318485736442809752589 526.10582585879240014
0.400949786901833249431 922.06822090497337285 0.400949786901833249431 568.44937359858784021
0.504765875584169521062 1056.83159191445133729 0.504765875584169521062 602.94038010439021491
0.635462587779443310865 1198.31784906649886580 0.635462587779443310865 627.98522288264848612
0.800000000000011368684 1344.18076611104993390 0.800000000000011368684 643.07427414693381706
1.007140329435344483500 1492.08955095919031919 1.007140329435344483500 648.89277820732809232
1.267914553968907398485 1640.00094468026190953 1.267914553968907398485 647.22433828261750932
1.596209851975117999245 1786.38693448284243459 1.596209851975117999245 640.53938287786183992
2.009509145207687197399 1930.31361093359078041 2.009509145207687197399 631.47256762207894099
2.529822128134725289783 2071.42428880505985944 2.529822128134725289783 622.47262668704820499
3.184857364427983839050 2209.85250917483290323 3.184857364427983839050 615.33774258626988285
4.009497869018204596614 2345.99026789809795446 4.009497869018204596614 611.12080418898926837
5.009497869018190385759 2475.95741849700152670 5.009497869018190385759 610.18765576728424094
6.009497869018190385759 2581.27392241262168682 6.009497869018190385759 611.72210423151204850
7.009497869018204596614 2669.84589628090498081 7.009497869018204596614 614.52383909447485166
8.009497869018190385759 2746.26730879963133702 8.009497869018190385759 617.88279232106970085
9.009497869018204596614 2813.44599473154403313 9.009497869018204596614 621.48986686601563179
10.009497869018190385759 2873.34244660442118402 10.009497869018190385759 625.12595871877647369
11.009497869018190385759 2927.34403689906912405 11.009497869018190385759 628.51410347524802091
12.009497869018204596614 2976.46970127422127916 12.009497869018204596614 631.77088486699960868
13.009497869018190385759 3021.48763834863893862 13.009497869018190385759 634.87387617263857464
14.009497869018204596614 3063.00225203081390646 14.009497869018204596614 637.81516250045467586
15.009497869018190385759 3101.48928510384803303 15.009497869018190385759 640.61733706326072024
16.009497869018190385759 3137.33408369867947840 16.009497869018190385759 643.26233039859357632
17.009497869018204596614 3170.85264256409527661 17.009497869018204596614 645.71400263191105751
18.009497869018190385759 3202.30444691747652541 18.009497869018190385759 648.00015611745186561
19.009497869018204596614 3231.90480445177263391 19.009497869018204596614 650.05267844028003310
20.009497869018190385759 3259.83837779221676101 20.009497869018190385759 651.99123135701984211
21.009497869018190385759 3286.26243666759955886 21.009497869018190385759 653.82729075913562156
22.009497869018204596614 3311.31159977041761522 22.009497869018204596614 655.59709817266343634
23.009497869018190385759 3335.11535036508075791 23.009497869018190385759 657.33815875722382316
24.009497869018204596614 3357.78239961940653302 24.009497869018204596614 658.99026560545746634
25.009497869018204596614 3379.40586116324448085 25.009497869018204596614 660.58439313071630750
26.009497869018190385759 3400.06737370057135195 26.009497869018190385759 662.06379196433510970
27.009497869018204596614 3419.84139696334204928 27.009497869018204596614 663.42374912301079348
28.009497869018190385759 3438.78726737792385393 28.009497869018190385759 664.68647240535835863
29.009497869018190385759 3456.95370989617549640 29.009497869018190385759 665.88552956311991693
30.009497869018190385759 3474.39286353863872137 30.009497869018190385759 667.01590662147839339
31.009497869018218807469 3491.15608008012941355 31.009497869018218807469 668.05490244854843240
32.009497869018190385759 3507.28781416419496963 32.009497869018190385759 669.03017321837899090
33.009497869018190385759 3522.82825763241316963 33.009497869018190385759 670.02673257464641665
34.009497869018218807469 3537.81526724162631581 34.009497869018218807469 670.96256886460707847
35.009497869018190385759 3552.28092547023697989 35.009497869018190385759 671.86782096828972044
36.009497869018190385759 3566.25502395700277702 36.009497869018190385759 672.75247288797129386
37.009497869018190385759 3579.76522595416190597 37.009497869018190385759 673.60557923667840896
38.009497869018218807469 3592.83597870823132325 38.009497869018218807469 674.42718058998934794
39.009497869018190385759 3605.49021105061092385 39.009497869018190385759 675.20343924833593974
40.009497869018190385759 3617.74920762526426188 40.009497869018190385759 675.93021608830019886
41.009497869018218807469 3629.63297348282321764 41.009497869018218807469 676.65298340189349346
42.009497869018190385759 3641.15985326062536842 42.009497869018190385759 677.33692427616995246
43.009497869018190385759 3652.34687252653793621 43.009497869018190385759 677.99376069741049378
44.009497869018218807469 3663.21068546236301700 44.009497869018218807469 678.61788462891320250
46.009497869018190385759 3684.02881456501154389 46.009497869018190385759 679.80060045232198718
48.009497869018218807469 3703.72372429430106422 48.009497869018218807469 680.90894788233856616
50.009497869018190385759 3722.39034273409242815 50.009497869018190385759 681.94755644982058129
52.009497869018190385759 3740.11324990833008997 52.009497869018190385759 682.92514204526798949
54.009497869018218807469 3756.96756566351405127 54.009497869018218807469 683.84824447710263939
56.009497869018190385759 3773.02056947870369186 56.009497869018190385759 684.71360340910848663
58.009497869018218807469 3788.33179380855472118 58.009497869018218807469 685.51311069238522578
60.009497869018190385759 3802.95486820421410812 60.009497869018190385759 686.28157668637845745
62.009497869018190385759 3816.93809386261455074 62.009497869018190385759 687.00873764392315479
64.009497869018218807469 3830.32509402266623511 64.009497869018218807469 687.69514916079685918
66.009497869018190385759 3843.15528676217218162 66.009497869018190385759 688.32587269929831564
68.009497869018190385759 3855.46434386269629613 68.009497869018190385759 688.91731156837170147
70.009497869018190385759 3867.28527878788872840 70.009497869018190385759 689.48993497763990490
72.009497869018190385759 3878.64821254674643569 72.009497869018190385759 690.03045868080118908
74.009497869018218807469 3889.58068592312156397 74.009497869018218807469 690.54720280897902285
76.009497869018190385759 3900.10744581979497525 76.009497869018190385759 691.03841581342157951
78.009497869018190385759 3910.25117201888224372 78.009497869018190385759 691.49568412462554079
80.009497869018218807469 3920.03320781331331091 80.009497869018218807469 691.94906869941542027
82.009497869018190385759 3929.47407501622865311 82.009497869018190385759 692.39578658830703262
84.009497869018218807469 3938.59244156463864783 84.009497869018218807469 692.81179907563466713
86.009497869018190385759 3947.40551694393161597 86.009497869018190385759 693.21319195669934743
88.009497869018190385759 3955.92877852675246686 88.009497869018190385759 693.60122180929840852
91.009497869018218807469 3968.20167782015823832 91.009497869018218807469 694.16834904003860629
94.009497869018218807469 3979.90019122338071611 94.009497869018218807469 694.73730411611779800
97.009497869018218807469 3991.06651338947995100 97.009497869018218807469 695.35456162055731966
99.504748934509137825444 3999.97717615232159005 99.504748934509137825444 695.58165020042156357
nan nan nan nan

