Time Pressure difference Time.1 Pressure.1 difference.1
(hr) (psi) (hr) (psi)
0.000200000000020850166 0.31645757864098395 0.000200000000020850166 0.25264296275338460
0.000399999999999067768 0.63202388411209764 0.000399999999999067768 0.65789155257565313
0.000600000000019917934 0.94683311435236361 0.000600000000019917934 0.96096635942908715
0.000799999999998135536 1.26095230417822779 0.000799999999998135536 1.26856961286029968
0.001007140329434719206 1.58560712332010167 0.001007140329434719206 1.59049894270138337
0.001267914553977789183 1.99339649962901100 0.001267914553977789183 1.99729555381699098
0.001596209851982166583 2.50538364617389098 0.001596209851982166583 2.50691997745451589
0.002009509145224797066 3.14785674092945733 0.002009509145224797066 3.14476031429051739
0.002529822128153114136 3.95356917239895989 0.002529822128153114136 3.94217104386889350
0.003184857364431081805 4.96324607041174293 0.003184857364431081805 4.93772419449603017
0.004009497869034817086 6.22740026274240321 0.004009497869034817086 6.17865042995551317
0.005047658755856332391 7.80850171505912538 0.005047658755856332391 7.72245563846813976
0.006354625877790454069 9.78353681867540992 0.006354625877790454069 9.63868120033126274
0.008000000000009777068 12.24698671829398400 0.008000000000009777068 12.01072992690716923
0.010071403294361402914 15.31422480893042426 0.010071403294361402914 14.93759182898013371
0.012679145539692626699 19.12528576712193384 0.012679145539692626699 18.53522946536829252
0.015962098519750611558 23.84889494977302249 0.015962098519750611558 22.93730155854391839
0.020095091452091651263 29.68656162849012148 0.020095091452091651263 28.29455090034487341
0.025298221281360611101 36.87631326387229080 0.025298221281360611101 34.77222319550052987
0.031848573644296607199 45.69558095422705435 0.031848573644296607199 42.54457507382636550
0.040094978690191851456 56.46237751555569417 0.040094978690191851456 51.78505888410079194
0.050476587558435426217 69.53362561191774205 0.050476587558435426217 62.65104435191958032
0.063546258777947173257 85.29925023124110339 0.063546258777947173257 75.26182897643550973
0.080000000000012505552 104.17031685237998317 0.080000000000012505552 89.66941808550171800
0.100714032943542974863 126.55959140844581157 0.100714032943542974863 105.82117393082089052
0.126791455396883634421 152.85239461897563729 0.126791455396883634421 123.52157584773745214
0.159620985197506115583 183.36947147594841567 0.159620985197506115583 142.39170557971772269
0.200950914520774404082 218.31913602142705599 0.200950914520774404082 161.84965265786092914
0.252982212813464002465 257.75111031301941011 0.252982212813464002465 181.11386733751069755
0.318485736442809752589 301.51029430636742745 0.318485736442809752589 199.25081476361816613
0.400949786901833249431 349.21271586957738009 0.400949786901833249431 215.28748642252682544
0.504765875584169521062 400.25132854811721472 0.504765875584169521062 228.35018371746784283
0.635462587779443310865 453.83608399039371761 0.635462587779443310865 237.83535777165914737
0.800000000000011368684 509.07840147943340980 0.800000000000011368684 243.54999845922645818
1.007140329435344483500 565.09554564160191603 1.007140329435344483500 245.75362673657255641
1.267914553968907398485 621.11367785604363689 1.267914553968907398485 245.12174243109072336
1.596209851975117999245 676.55409745324345749 1.596209851975117999245 242.58996508594967167
2.009509145207687197399 731.06310712296033216 2.009509145207687197399 239.15611159444543432
2.529822128134725289783 784.50562031285062403 2.529822128134725289783 235.74758525622800676
3.184857364427983839050 836.93221271929553495 3.184857364427983839050 233.04540748048592036
4.009497869018204596614 888.49134400514446952 4.009497869018204596614 231.44833637773851365
5.009497869018190385759 937.71349547451052331 5.009497869018190385759 231.09492728363349556
6.009497869018190385759 977.59976584414403078 6.009497869018190385759 231.67606532028435140
7.009497869018204596614 1011.14441996324524098 7.009497869018204596614 232.73715973657542122
8.009497869018190385759 1040.08732072828979653 8.009497869018190385759 234.00928814545480350
9.009497869018204596614 1065.52974551960073768 9.009497869018204596614 235.37538695422659885
10.009497869018190385759 1088.21418703407971407 10.009497869018190385759 236.75247541933782713
11.009497869018190385759 1108.66608156913048333 11.009497869018190385759 238.03565946726587299
12.009497869018204596614 1127.27132821618124581 12.009497869018204596614 239.26909257885372995
13.009497869018190385759 1144.32086502070706047 13.009497869018190385759 240.44428113496550736
14.009497869018204596614 1160.04359644506962468 14.009497869018204596614 241.55822754738889557
15.009497869018190385759 1174.61969942799782984 15.009497869018190385759 242.61948849016135910
16.009497869018190385759 1188.19511519800903443 16.009497869018190385759 243.62122055851304481
17.009497869018204596614 1200.88951969872800873 17.009497869018204596614 244.54973658325857855
18.009497869018190385759 1212.80118715264279672 18.009497869018190385759 245.41556608424369301
19.009497869018204596614 1224.01166053292809011 19.009497869018204596614 246.19291300770046860
20.009497869018190385759 1234.59087667876201522 20.009497869018190385759 246.92709656761883252
21.009497869018190385759 1244.59839798246071041 21.009497869018190385759 247.62246300122330922
22.009497869018204596614 1254.08520826295148254 22.009497869018204596614 248.29273797592915685
23.009497869018190385759 1263.10034641063202798 23.009497869018190385759 248.95212573210963569
24.009497869018204596614 1271.68498434890034332 24.009497869018204596614 249.57782425017822447
25.009497869018204596614 1279.87438678250123303 25.009497869018204596614 250.18156439642436339
26.009497869018190385759 1287.69947254465000697 26.009497869018190385759 250.74185361671138139
27.009497869018204596614 1295.18844159347236200 27.009497869018204596614 251.25690697402299634
28.009497869018190385759 1302.36376627334880141 28.009497869018190385759 251.73513517538921747
29.009497869018190385759 1309.24390007002284619 29.009497869018190385759 252.18925125601262494
30.009497869018190385759 1315.84858947139309748 30.009497869018190385759 252.61735628507281604
31.009497869018218807469 1322.19728281364746181 31.009497869018218807469 253.01085271659738396
32.009497869018190385759 1328.30681629876562511 32.009497869018190385759 253.38021470795465007
33.009497869018190385759 1334.19241168782241402 33.009497869018190385759 253.75763927528859654
34.009497869018218807469 1339.86840638077501353 34.009497869018218807469 254.11206633937899824
35.009497869018190385759 1345.34695089876777274 35.009497869018190385759 254.45491032695665012
36.009497869018190385759 1350.63932815866610326 36.009497869018190385759 254.78995245558357396
37.009497869018190385759 1355.75601499854451504 37.009497869018190385759 255.11304740474599839
38.009497869018218807469 1360.70627026623878919 38.009497869018218807469 255.42421054153675186
39.009497869018190385759 1365.49877774381980089 39.009497869018190385759 255.71820114673556645
40.009497869018190385759 1370.14159851414092373 40.009497869018190385759 255.99345161992283693
41.009497869018218807469 1374.64230904269948041 41.009497869018218807469 256.26718357467336773
42.009497869018190385759 1379.00785695059448699 42.009497869018190385759 256.52621088391720150
43.009497869018190385759 1383.24469029086571936 43.009497869018190385759 256.77497298778666845
44.009497869018218807469 1387.35911646238605499 44.009497869018218807469 257.01134596780906350
46.009497869018190385759 1395.24351724579469192 46.009497869018190385759 257.45927313353342925
48.009497869018218807469 1402.70252381324917224 48.009497869018218807469 257.87903493356952822
50.009497869018190385759 1409.77208805336886144 50.009497869018190385759 258.27238469918648889
52.009497869018190385759 1416.48424275852266874 52.009497869018190385759 258.64262337897326915
54.009497869018218807469 1422.86743789045613084 54.009497869018218807469 258.99222777910148352
56.009497869018190385759 1428.94715404710336770 56.009497869018190385759 259.31996312014945261
58.009497869018218807469 1434.74593781417411265 58.009497869018218807469 259.62275862206638521
60.009497869018190385759 1440.28410018469730858 60.009497869018190385759 259.91379792993063802
62.009497869018190385759 1445.57993415671580806 62.009497869018190385759 260.18919387906032625
64.009497869018218807469 1450.64996105629802514 64.009497869018218807469 260.44915688893001970
66.009497869018190385759 1455.50910959879479378 66.009497869018190385759 260.68802932249764126
68.009497869018190385759 1460.17088967364543350 68.009497869018190385759 260.91202356615269764
70.009497869018190385759 1464.64780439183437011 70.009497869018190385759 261.12889187522944212
72.009497869018190385759 1468.95126141183936852 72.009497869018190385759 261.33360313855388313
74.009497869018218807469 1473.09169118957220235 74.009497869018218807469 261.52930841970277243
76.009497869018190385759 1477.07846606097587028 76.009497869018190385759 261.71534435876100133
78.009497869018190385759 1480.92017548627632095 78.009497869018190385759 261.88852450445563136
80.009497869018218807469 1484.62490276031053327 80.009497869018218807469 262.06023377184618539
82.009497869018190385759 1488.20042006081803265 82.009497869018190385759 262.22941818105863376
84.009497869018218807469 1491.65379745141876811 84.009497869018218807469 262.38697360617976528
86.009497869018190385759 1494.99155263979901065 86.009497869018190385759 262.53899218240803748
88.009497869018190385759 1498.21954733468464838 88.009497869018190385759 262.68594981047982628
91.009497869018218807469 1502.86763344878750104 91.009497869018218807469 262.90073656486549680
94.009497869018218807469 1507.29818375358649973 94.009497869018218807469 263.11621557479213607
97.009497869018218807469 1511.52717853021044903 97.009497869018218807469 263.34998804913755066
99.504748934509137825444 1514.90189275748957698 99.504748934509137825444 263.43599276974214263
nan nan nan nan

