Time Pressure difference Time.1 Pressure.1 difference.1
(hr) (psi) (hr) (psi)
0.000200000000020850166 0.74919878197944223 0.000200000000020850166 0.59812060998307848
0.000399999999999067768 1.49628751566696061 0.000399999999999067768 1.55752803260692674
0.000600000000019917934 2.24158390851924416 0.000600000000019917934 2.27504371707358688
0.000799999999998135536 2.98524666238520053 0.000799999999998135536 3.00328029081362269
0.001007140329434719206 3.75385203473682827 0.001007140329434719206 3.76543319243214647
0.001267914553977789183 4.71927465266500867 0.001267914553977789183 4.72850548436463480
0.001596209851982166583 5.93138070564002540 0.001596209851982166583 5.93501789938050717
0.002009509145224797066 7.45240624755477832 0.002009509145224797066 7.44507559971140775
0.002529822128153114136 9.35989342126997848 0.002529822128153114136 9.33290887551113357
0.003184857364431081805 11.75025710107976984 0.003184857364431081805 11.68983523211396047
0.004009497869034817086 14.74308408659750036 0.004009497869034817086 14.62767109664008736
0.005047658755856332391 18.48626915218721933 0.005047658755856332391 18.28255901810567607
0.006354625877790454069 23.16207404316330454 0.006354625877790454069 22.81913502020681861
0.008000000000009777068 28.99417852992434064 0.008000000000009777068 28.43485142800594545
0.010071403294361402914 36.25572382586678089 0.010071403294361402914 35.36406254524955983
0.012679145539692626699 45.27823559565350564 0.012679145539692626699 43.88130440357533502
0.015962098519750611558 56.46116337190358792 0.015962098519750611558 54.30300788925620736
0.020095091452091651263 70.28157109947005665 0.020095091452091651263 66.98604963808681134
0.025298221281360611101 87.30297785830133250 0.025298221281360611101 82.32164126598813425
0.031848573644296607199 108.18218903074226489 0.031848573644296607199 100.72232734013483935
0.040094978690191851456 133.67208535178801299 0.040094978690191851456 122.59874832928848321
0.050476587558435426217 164.61766483451390286 0.050476587558435426217 148.32346983052875089
0.063546258777947173257 201.94205697789888632 0.063546258777947173257 178.17892319355598829
0.080000000000012505552 246.61844042216992534 0.080000000000012505552 212.28822864336623866
0.100714032943542974863 299.62401955490315686 0.100714032943542974863 250.52676872861005108
0.126791455396883634421 361.87102348114439110 0.126791455396883634421 292.43165725632331942
0.159620985197506115583 434.11880123702218270 0.159620985197506115583 337.10582265854429806
0.200950914520774404082 516.86052674889026548 0.200950914520774404082 383.17161862832170982
0.252982212813464002465 610.21391470431365178 0.252982212813464002465 428.77876204313560038
0.318485736442809752589 713.81177287229240847 0.318485736442809752589 471.71715201255528882
0.400949786901833249431 826.74506486708355624 0.400949786901833249431 509.68323557249129863
0.504765875584169521062 947.57663609029339113 0.504765875584169521062 540.60857142560632838
0.635462587779443310865 1074.43608335783505936 0.635462587779443310865 563.06428532817994892
0.800000000000011368684 1205.21973263634890827 0.800000000000011368684 576.59343467249937021
1.007140329435344483500 1337.83774847434369804 1.007140329435344483500 581.81042340259443790
1.267914553968907398485 1470.45810348071222506 1.267914553968907398485 580.31446633292341630
1.596209851975117999245 1601.71075040111713861 1.596209851975117999245 574.32059975728770951
2.009509145207687197399 1730.75832709950191202 2.009509145207687197399 566.19110933908075367
2.529822128134725289783 1857.28102236795598401 2.529822128134725289783 558.12157979295966470
3.184857364427983839050 1981.39857184463130579 3.184857364427983839050 551.72429802466751880
4.009497869018204596614 2103.46244696231042326 4.009497869018204596614 547.94330554519717680
5.009497869018190385759 2219.99362970605898226 5.009497869018190385759 547.10662574760476673
6.009497869018190385759 2314.42254275962704924 6.009497869018190385759 548.48244335668368876
7.009497869018204596614 2393.83797062164649105 7.009497869018204596614 550.99453564932036898
8.009497869018190385759 2462.35895878456040009 8.009497869018190385759 554.00624122624731172
9.009497869018204596614 2522.59273086267648978 9.009497869018204596614 557.24041740869392925
10.009497869018190385759 2576.29710421191612113 10.009497869018190385759 560.50061109774992474
11.009497869018190385759 2624.71602513216703301 11.009497869018190385759 563.53849039231977258
12.009497869018204596614 2668.76309199736351729 12.009497869018204596614 566.45858663025217083
13.009497869018190385759 2709.12708726687105809 13.009497869018190385759 569.24079155836977861
14.009497869018204596614 2746.34993174134569927 14.009497869018204596614 571.87800852426448728
15.009497869018190385759 2780.85818604738642534 15.009497869018190385759 574.39049506069693507
16.009497869018190385759 2812.99735934016780448 16.009497869018190385759 576.76204972120410730
17.009497869018204596614 2843.05077891929795442 17.009497869018204596614 578.96026876141525008
18.009497869018190385759 2871.25110449260819223 18.009497869018190385759 581.01008033592597712
19.009497869018204596614 2897.79138530367708881 19.009497869018204596614 582.85041347229878284
20.009497869018190385759 2922.83719360693794442 20.009497869018190385759 584.58855932806352484
21.009497869018190385759 2946.52954063039260291 21.009497869018190385759 586.23480742021899914
22.009497869018204596614 2968.98912822357533514 22.009497869018204596614 587.82165263592673909
23.009497869018190385759 2990.33205370706036774 23.009497869018190385759 589.38272286184485438
24.009497869018204596614 3010.65578971839386213 24.009497869018204596614 590.86403536393902414
25.009497869018204596614 3030.04382382628909909 25.009497869018204596614 592.29336242933015910
26.009497869018190385759 3048.56935494822619148 26.009497869018190385759 593.61982142329054568
27.009497869018204596614 3066.29914518979558125 27.009497869018204596614 594.83918658941934154
28.009497869018190385759 3083.28639679412253827 28.009497869018190385759 595.97136989029149845
29.009497869018190385759 3099.57479754110363501 29.009497869018190385759 597.04646885281727009
30.009497869018190385759 3115.21109633384912740 30.009497869018190385759 598.05998784550047276
31.009497869018218807469 3130.24133621498685898 31.009497869018218807469 598.99157257315187053
32.009497869018190385759 3144.70537611938743794 32.009497869018190385759 599.86602012224443570
33.009497869018190385759 3158.63925286723360841 33.009497869018190385759 600.75955544963335342
34.009497869018218807469 3172.07690959438104983 34.009497869018218807469 601.59864524440911282
35.009497869018190385759 3185.04711210154437140 35.009497869018190385759 602.41031263757190573
36.009497869018190385759 3197.57657217615951595 36.009497869018190385759 603.20350948802195035
37.009497869018190385759 3209.69009325114757303 37.009497869018190385759 603.96842193984480218
38.009497869018218807469 3221.40959522348384780 38.009497869018218807469 604.70508637392686069
39.009497869018190385759 3232.75563654836105343 39.009497869018190385759 605.40109562822965472
40.009497869018190385759 3243.74730146917318052 40.009497869018190385759 606.05273848076217291
41.009497869018218807469 3254.40252691998648515 41.009497869018218807469 606.70078631064404817
42.009497869018190385759 3264.73776107463618246 42.009497869018190385759 607.31402156769900103
43.009497869018190385759 3274.76826940252203713 43.009497869018190385759 607.90295442252897828
44.009497869018218807469 3284.50898438076728780 44.009497869018218807469 608.46255659570545049
46.009497869018190385759 3303.17494109109384226 46.009497869018190385759 609.52300358647551093
48.009497869018218807469 3320.83379653425390643 48.009497869018218807469 610.51677036766341189
50.009497869018190385759 3337.57066515522001282 50.009497869018190385759 611.44800787051497082
52.009497869018190385759 3353.46138311860249814 52.009497869018190385759 612.32453093919650655
54.009497869018218807469 3368.57330440207715583 54.009497869018218807469 613.15220329855526415
56.009497869018190385759 3382.96675315088532443 56.009497869018190385759 613.92810166502567881
58.009497869018218807469 3396.69510737108976173 58.009497869018218807469 614.64495610788412705
60.009497869018190385759 3409.80645240576677679 60.009497869018190385759 615.33397830130559214
62.009497869018190385759 3422.34409608755322552 62.009497869018190385759 615.98596556145002978
64.009497869018218807469 3434.34715189706230376 64.009497869018218807469 616.60141604675823146
66.009497869018190385759 3445.85096288218574045 66.009497869018190385759 617.16693556139864540
68.009497869018190385759 3456.88751308563860221 68.009497869018190385759 617.69723164480251398
70.009497869018190385759 3467.48640304838500015 70.009497869018190385759 618.21065740539893341
72.009497869018190385759 3477.67463987789778912 72.009497869018190385759 618.69530191857120371
74.009497869018218807469 3487.47691719945942168 74.009497869018218807469 619.15862518260337310
76.009497869018190385759 3496.91542358792730738 76.009497869018190385759 619.59905672336606131
78.009497869018190385759 3506.01049419585660871 78.009497869018190385759 620.00905276382923148
80.009497869018218807469 3514.78126585249356140 80.009497869018218807469 620.41556656746774934
82.009497869018190385759 3523.24613883164784056 82.009497869018190385759 620.81610288534079700
84.009497869018218807469 3531.42185118419865830 84.009497869018218807469 621.18910811751743495
86.009497869018190385759 3539.32383328372361575 86.009497869018190385759 621.54900511425728382
88.009497869018190385759 3546.96596245639238987 88.009497869018190385759 621.89692054869499316
91.009497869018218807469 3557.97009283676243285 91.009497869018218807469 622.40541832416977286
94.009497869018218807469 3568.45921718040699488 94.009497869018218807469 622.91555498284117220
97.009497869018218807469 3578.47116806889744112 97.009497869018218807469 623.46900057827303954
99.504748934509137825444 3586.46064899542079729 99.504748934509137825444 623.67261280395644008
nan nan nan nan

