Time Pressure difference Time.1 Pressure.1 difference.1
(hr) (psi) (hr) (psi)
0.000200000000020850166 0.63125396264343248 0.000200000000020850166 0.50395971572853626
0.000399999999999067768 1.26073005754644130 0.000399999999999067768 1.31232960618765437
0.000600000000019917934 1.88869597613594853 0.000600000000019917934 1.91688827602652556
0.000799999999998135536 2.51528543615604505 0.000799999999998135536 2.53048006764784139
0.001007140329434719206 3.16289084966739420 0.001007140329434719206 3.17264880958806117
0.001267914553977789183 3.97632897563792254 0.001267914553977789183 3.98410661653782938
0.001596209851982166583 4.99761567215789260 0.001596209851982166583 5.00068026998801063
0.002009509145224797066 6.27918929949183013 0.002009509145224797066 6.27301270042202841
0.002529822128153114136 7.88638470084831855 0.002529822128153114136 7.86364827648388154
0.003184857364431081805 9.90043835567696640 0.003184857364431081805 9.84952857694746164
0.004009497869034817086 12.42211076032605277 0.004009497869034817086 12.32486699938632668
0.005047658755856332391 15.57601391980297834 0.005047658755856332391 15.40437345206242981
0.006354625877790454069 19.51571648869635567 0.006354625877790454069 19.22676564895474627
0.008000000000009777068 24.42968479239744894 0.008000000000009777068 23.95841140275445724
0.010071403294361402914 30.54805998631790942 0.010071403294361402914 29.79677110242756299
0.012679145539692626699 38.15017633336659486 0.012679145539692626699 36.97316113826746431
0.015962098519750611558 47.57259884994093824 0.015962098519750611558 45.75419733462829441
0.020095091452091651263 59.21728828780182141 0.020095091452091651263 56.44057397444122159
0.025298221281360611101 73.55905008016519275 0.025298221281360611101 69.36191503564410255
0.031848573644296607199 91.15129009242141933 0.031848573644296607199 84.86581904490296324
0.040094978690191851456 112.62836459795886412 0.040094978690191851456 103.29828018875748796
0.050476587558435426217 138.70224531511149735 0.050476587558435426217 124.97321183060073224
0.063546258777947173257 170.15073536940482768 0.063546258777947173257 150.12858273514694929
0.080000000000012505552 207.79380789451124656 0.080000000000012505552 178.86813056425540935
0.100714032943542974863 252.45482800634857767 0.100714032943542974863 211.08685613497078748
0.126791455396883634421 304.90241446304850115 0.126791455396883634421 246.39474447317707018
0.159620985197506115583 365.77637354782353896 0.159620985197506115583 284.03594813801959162
0.200950914520774404082 435.49223983276783656 0.200950914520774404082 322.84970083982761935
0.252982212813464002465 514.14919642492054663 0.252982212813464002465 361.27700571261976847
0.318485736442809752589 601.43785740902694670 0.318485736442809752589 397.45569349173177898
0.400949786901833249431 696.59229412304148354 0.400949786901833249431 429.44485480609029082
0.504765875584169521062 798.40160025346222028 0.504765875584169521062 455.50167880649752306
0.635462587779443310865 905.28982633254395296 0.635462587779443310865 474.42223597496308685
0.800000000000011368684 1015.48447539204562418 0.800000000000011368684 485.82151923625218615
1.007140329435344483500 1127.22471046618761648 1.007140329435344483500 490.21720818843868983
1.267914553968907398485 1238.96691645824967054 1.267914553968907398485 488.95675655545653626
1.596209851975117999245 1349.55672982799228521 1.596209851975117999245 483.90649203496519704
2.009509145207687197399 1458.28861263372664325 2.009509145207687197399 477.05681052960244415
2.529822128134725289783 1564.89310088652609920 2.529822128134725289783 470.25765037987736150
3.184857364427983839050 1669.47108048993322882 3.184857364427983839050 464.86747948863336433
4.009497869018204596614 1772.31869145383143405 4.009497869018204596614 461.68172085848095776
5.009497869018190385759 1870.50461039534911833 5.009497869018190385759 460.97675783611930456
6.009497869018190385759 1950.06777438726885521 6.009497869018190385759 462.13598331605271596
7.009497869018204596614 2016.98099520227401626 7.009497869018204596614 464.25260209920554644
8.009497869018190385759 2074.71486549475139327 8.009497869018190385759 466.79018107754762923
9.009497869018204596614 2125.46615904172313094 9.009497869018204596614 469.51520757273544859
10.009497869018190385759 2170.71596363753496917 10.009497869018190385759 472.26215569211746015
11.009497869018190385759 2211.51239368120513973 11.009497869018190385759 474.82178791370620274
12.009497869018204596614 2248.62522163857693158 12.009497869018204596614 477.28217942238535443
13.009497869018190385759 2282.63479636676493101 13.009497869018190385759 479.62638756581043253
14.009497869018204596614 2313.99772519226462464 14.009497869018204596614 481.84843290292798201
15.009497869018190385759 2343.07341618183318133 15.009497869018190385759 483.96538386488879269
16.009497869018190385759 2370.15298569681590379 16.009497869018190385759 485.96358956553785902
17.009497869018204596614 2395.47515740428661957 17.009497869018204596614 487.81574751516143351
18.009497869018190385759 2419.23596387403813424 18.009497869018190385759 489.54286148038107740
19.009497869018204596614 2441.59806300531545276 19.009497869018204596614 491.09347476601669769
20.009497869018190385759 2462.70096135396079262 20.009497869018190385759 492.55798790391156672
21.009497869018190385759 2482.66347104112855959 21.009497869018190385759 493.94507055362134906
22.009497869018204596614 2501.58729207307897013 22.009497869018204596614 495.28210199922881429
23.009497869018190385759 2519.57024480860991389 23.009497869018190385759 496.59741615853886287
24.009497869018204596614 2536.69445696893490094 24.009497869018204596614 497.84552868801949899
25.009497869018204596614 2553.03027284698373478 25.009497869018204596614 499.04983974089901722
26.009497869018190385759 2568.63936780560061379 26.009497869018190385759 500.16747703071041542
27.009497869018204596614 2583.57799372976160157 27.009497869018204596614 501.19488005316924273
28.009497869018190385759 2597.89097734316328570 28.009497869018190385759 502.14882607164253159
29.009497869018190385759 2611.61512874860181910 29.009497869018190385759 503.05467442144248480
30.009497869018190385759 2624.78983726577098423 30.009497869018190385759 503.90863720906912704
31.009497869018218807469 2637.45389747604258446 31.009497869018218807469 504.69356447405255039
32.009497869018190385759 2649.64089340436157727 32.009497869018190385759 505.43034954867596298
33.009497869018190385759 2661.38118866862259893 33.009497869018190385759 506.18321745201916428
34.009497869018218807469 2672.70338280679561649 34.009497869018218807469 506.89021107067731009
35.009497869018190385759 2683.63171307890661410 35.009497869018190385759 507.57409933986104988
36.009497869018190385759 2694.18868609077753717 36.009497869018190385759 508.24242484578354606
37.009497869018190385759 2704.39520052203079103 37.009497869018190385759 508.88691870762977487
38.009497869018218807469 2714.26972546546312515 38.009497869018218807469 509.50761157891838593
39.009497869018190385759 2723.82958290105761989 39.009497869018190385759 510.09404953154603390
40.009497869018190385759 2733.09085267912587369 40.009497869018190385759 510.64310559354692032
41.009497869018218807469 2742.06864795919045719 41.009497869018218807469 511.18913258989965698
42.009497869018190385759 2750.77682751299698793 42.009497869018190385759 511.70582748497923831
43.009497869018190385759 2759.22825359857733929 43.009497869018190385759 512.20204585490250793
44.009497869018218807469 2767.43550790397239325 44.009497869018218807469 512.67355101190253208
46.009497869018190385759 2783.16292154016809945 46.009497869018190385759 513.56705401964688917
48.009497869018218807469 2798.04177978495908974 48.009497869018218807469 514.40437414570305918
50.009497869018190385759 2812.14379769175957335 50.009497869018190385759 515.18900884877098179
52.009497869018190385759 2825.53287269416614436 52.009497869018190385759 515.92754269821443813
54.009497869018218807469 2838.26575537203825661 54.009497869018218807469 516.62491630476938553
56.009497869018190385759 2850.39327316482604147 56.009497869018190385759 517.27866659137418992
58.009497869018218807469 2861.96040088916606692 58.009497869018218807469 517.88266811750770557
60.009497869018190385759 2873.00765391173217722 60.009497869018190385759 518.46321896784070304
62.009497869018190385759 2883.57152220237276197 62.009497869018190385759 519.01256521807317768
64.009497869018218807469 2893.68496168710407801 64.009497869018218807469 519.53112660259012046
66.009497869018190385759 2903.37775143066710370 66.009497869018190385759 520.00761754618952182
68.009497869018190385759 2912.67684029388601630 68.009497869018190385759 520.45443021069820588
70.009497869018190385759 2921.60716886560203420 70.009497869018190385759 520.88702841253120823
72.009497869018190385759 2930.19149258004699732 72.009497869018190385759 521.29537633937263763
74.009497869018218807469 2938.45061759599684592 74.009497869018218807469 521.68575957735993143
76.009497869018190385759 2946.40323938672372606 76.009497869018190385759 522.05685488886717849
78.009497869018190385759 2954.06649178364887121 78.009497869018190385759 522.40230609812658713
80.009497869018218807469 2961.45649894445159589 80.009497869018218807469 522.74482327192413322
82.009497869018190385759 2968.58876442577866328 82.009497869018190385759 523.08230398321404664
84.009497869018218807469 2975.47739124167537739 84.009497869018218807469 523.39658777085719521
86.009497869018190385759 2982.13538059382472056 86.009497869018190385759 523.69982692553833203
88.009497869018190385759 2988.57442512955458369 88.009497869018190385759 523.99297075056347239
91.009497869018218807469 2997.84619795558683109 91.009497869018218807469 524.42141676981043474
94.009497869018218807469 3006.68404108327013091 94.009497869018218807469 524.85124366625200309
97.009497869018218807469 3015.11983118887155797 97.009497869018218807469 525.31756146284658371
99.504748934509137825444 3021.85154460811554600 99.504748934509137825444 525.48911943570612948
nan nan nan nan

