Time Pressure difference Time.1 Pressure.1 difference.1
(hr) (psi) (hr) (psi)
0.000200000000020850166 0.75833535249138673 0.000200000000020850166 0.60541476376336001
0.000399999999999067768 1.51453492439460646 0.000399999999999067768 1.57652227690701130
0.000600000000019917934 2.26892029764752756 0.000600000000019917934 2.30278815264765546
0.000799999999998135536 3.02165210948745955 0.000799999999998135536 3.03990566021378861
0.001007140329434719206 3.79963071808727770 0.001007140329434719206 3.81135310941302574
0.001267914553977789183 4.77682678257555704 0.001267914553977789183 4.78617018539347150
0.001596209851982166583 6.00371461668441597 0.001596209851982166583 6.00739616644612351
0.002009509145224797066 7.54328925057373834 0.002009509145224797066 7.53586920458593656
0.002529822128153114136 9.47403846299278385 0.002529822128153114136 9.44672483740761137
0.003184857364431081805 11.89355291938561976 0.003184857364431081805 11.83239419835925155
0.004009497869034817086 14.92287779497064015 0.004009497869034817086 14.80605732952594167
0.005047658755856332391 18.71171145892121146 0.005047658755856332391 18.50551705491184151
0.006354625877790454069 23.44453836076285924 0.006354625877790454069 23.09741715459958655
0.008000000000009777068 29.34776607297219897 0.008000000000009777068 28.78161790883529036
0.010071403294361402914 36.69786679935295837 0.010071403294361402914 35.79533160067943243
0.012679145539692626699 45.83040920047854883 0.012679145539692626699 44.41644226215552038
0.015962098519750611558 57.14971414473168210 0.015962098519750611558 54.96523969278372590
0.020095091452091651263 71.13866342995139291 0.020095091452091651263 67.80295268245373563
0.025298221281360611101 88.36764831998792147 0.025298221281360611101 83.32556372045139881
0.031848573644296607199 109.50148401892205641 0.031848573644296607199 101.95064840525844829
0.040094978690191851456 135.30223273412690332 0.040094978690191851456 124.09385501623104631
0.050476587558435426217 166.62519733249578735 0.050476587558435426217 150.13229263334011421
0.063546258777947173257 204.40476498982448561 0.063546258777947173257 180.35183689103837423
0.080000000000012505552 249.62598237853785577 0.080000000000012505552 214.87710948048047044
0.100714032943542974863 303.27797101288979320 0.100714032943542974863 253.58197322530043039
0.126791455396883634421 366.28408474310958809 0.126791455396883634421 295.99789697896142115
0.159620985197506115583 439.41293295942494979 0.159620985197506115583 341.21686927633146524
0.200950914520774404082 523.16370390436452453 0.200950914520774404082 387.84444324574025131
0.252982212813464002465 617.65554781046375865 0.252982212813464002465 434.00777133634454685
0.318485736442809752589 722.51679449268624467 0.318485736442809752589 477.46980020783041709
0.400949786901833249431 836.82732175570652089 0.400949786901833249431 515.89888478679006312
0.504765875584169521062 959.13244872554071208 0.504765875584169521062 547.20135888201616581
0.635462587779443310865 1087.53896242317455290 0.635462587779443310865 569.93092295413327975
0.800000000000011368684 1219.91753425386536946 0.800000000000011368684 583.62506192460296006
1.007140329435344483500 1354.15284296793311114 1.007140329435344483500 588.90567246847967908
1.267914553968907398485 1488.39051937681824711 1.267914553968907398485 587.39147201991033853
1.596209851975117999245 1621.24380833283794345 1.596209851975117999245 581.32450951042528686
2.009509145207687197399 1751.86513596656914160 2.009509145207687197399 573.09587896516711680
2.529822128134725289783 1879.93079093341884800 2.529822128134725289783 564.92794052214219391
3.184857364427983839050 2005.56196906224886334 3.184857364427983839050 558.45264312252925265
4.009497869018204596614 2129.11442802282635967 4.009497869018204596614 554.62554097867518976
5.009497869018190385759 2247.06672275125492888 5.009497869018190385759 553.77865776891701444
6.009497869018190385759 2342.64720791523222942 6.009497869018190385759 555.17125364152127531
7.009497869018204596614 2423.03111660483682499 7.009497869018204596614 557.71398120601929804
8.009497869018190385759 2492.38772657461595372 8.009497869018190385759 560.76241489973813259
9.009497869018204596614 2553.35605684880692934 9.009497869018204596614 564.03603225514132191
10.009497869018190385759 2607.71536158035451081 10.009497869018190385759 567.33598440382002082
11.009497869018190385759 2656.72475714597430851 11.009497869018190385759 570.41091100686026039
12.009497869018204596614 2701.30898336318477959 12.009497869018204596614 573.36661817452352352
13.009497869018190385759 2742.16522247744296692 13.009497869018190385759 576.18275243103278171
14.009497869018204596614 2779.84200407965499835 14.009497869018204596614 578.85213057943849435
15.009497869018190385759 2814.77109075528142057 15.009497869018190385759 581.39525719558355377
16.009497869018190385759 2847.30220518577971234 16.009497869018190385759 583.79573325438957454
17.009497869018204596614 2877.72212988172850601 17.009497869018204596614 586.02075984387158769
18.009497869018190385759 2906.26636186446967258 18.009497869018190385759 588.09556912051050404
19.009497869018204596614 2933.13030463664881609 19.009497869018204596614 589.95834534391212856
20.009497869018190385759 2958.48154962653461553 20.009497869018190385759 591.71768810035700881
21.009497869018190385759 2982.46282771125106592 21.009497869018190385759 593.38401238875826493
22.009497869018204596614 3005.19631271410662521 22.009497869018204596614 594.99020937538932685
23.009497869018190385759 3026.79951777665883128 23.009497869018190385759 596.57031704308690223
24.009497869018204596614 3047.37110422715522873 24.009497869018204596614 598.06969433179199314
25.009497869018204596614 3066.99557777538984737 25.009497869018204596614 599.51645221505373229
26.009497869018190385759 3085.74703000857061852 26.009497869018190385759 600.85908753820865513
27.009497869018204596614 3103.69303720430525573 27.009497869018204596614 602.09332301124140940
28.009497869018190385759 3120.88745041356287402 28.009497869018190385759 603.23931342553896684
29.009497869018190385759 3137.37449019404357387 29.009497869018190385759 604.32752335102225061
30.009497869018190385759 3153.20147555743278645 30.009497869018190385759 605.35340233142119359
31.009497869018218807469 3168.41501104687677071 31.009497869018218807469 606.29634784843403850
32.009497869018190385759 3183.05544168181859277 32.009497869018190385759 607.18145939202781847
33.009497869018190385759 3197.15924375585836970 33.009497869018190385759 608.08589149170200017
34.009497869018218807469 3210.76077434553189960 34.009497869018218807469 608.93521408885317214
35.009497869018190385759 3223.88915005400212976 35.009497869018190385759 609.75677986485948168
36.009497869018190385759 3236.57140842221042476 36.009497869018190385759 610.55964984763193115
37.009497869018190385759 3248.83265536396629614 37.009497869018190385759 611.33389050008679533
38.009497869018218807469 3260.69507809206288584 38.009497869018218807469 612.07953864677961064
39.009497869018190385759 3272.17948577456036219 39.009497869018190385759 612.78403581881775608
40.009497869018190385759 3283.30519538952876246 40.009497869018190385759 613.44362553540565841
41.009497869018218807469 3294.09036261413302782 41.009497869018218807469 614.09957638760317877
42.009497869018190385759 3304.55163620969278782 42.009497869018190385759 614.72029012340271947
43.009497869018190385759 3314.70446780987003876 43.009497869018190385759 615.31640508621842400
44.009497869018218807469 3324.56397199516686669 44.009497869018218807469 615.88283167614088143
46.009497869018190385759 3343.45756232391204321 46.009497869018190385759 616.95621094728630851
48.009497869018218807469 3361.33176966272048958 48.009497869018218807469 617.96209683556173786
50.009497869018190385759 3378.27274643760028994 50.009497869018190385759 618.90469089332623298
52.009497869018190385759 3394.35725364443896979 52.009497869018190385759 619.79190326772334174
54.009497869018218807469 3409.65346665088281952 54.009497869018218807469 620.62966919244001929
56.009497869018190385759 3424.22244526248186958 56.009497869018190385759 621.41502973411138555
58.009497869018218807469 3438.11821843659072329 58.009497869018218807469 622.14062630432169954
60.009497869018190385759 3451.38945792290996906 60.009497869018190385759 622.83805120741897099
62.009497869018190385759 3464.07999969837692333 62.009497869018190385759 623.49798953171148241
64.009497869018218807469 3476.22943423727065237 64.009497869018218807469 624.12094551074301307
66.009497869018190385759 3487.87353560026167543 66.009497869018190385759 624.69336160483032927
68.009497869018190385759 3499.04467787936619061 68.009497869018190385759 625.23012471364154408
70.009497869018190385759 3509.77282259775574857 70.009497869018190385759 625.74981176400126515
72.009497869018190385759 3520.08530621787258497 72.009497869018190385759 626.24036657611475221
74.009497869018218807469 3530.00712350676985807 74.009497869018218807469 626.70934012385475853
76.009497869018190385759 3539.56073363168206924 76.009497869018190385759 627.15514278096816270
78.009497869018190385759 3548.76671973483053080 78.009497869018190385759 627.57013877314420824
80.009497869018218807469 3557.64445202142633207 80.009497869018218807469 627.98161006219299907
82.009497869018190385759 3566.21255515886286958 82.009497869018190385759 628.38703096930839820
84.009497869018218807469 3574.48797132059189607 84.009497869018218807469 628.76458504577976782
86.009497869018190385759 3582.48631905547654242 86.009497869018190385759 629.12887103028481306
88.009497869018190385759 3590.22164492537285696 88.009497869018190385759 629.48102933587415464
91.009497869018218807469 3601.35997201769851017 91.009497869018218807469 629.99572830373278975
94.009497869018218807469 3611.97701251187572780 94.009497869018218807469 630.51208614116853823
97.009497869018218807469 3622.11106036242063055 97.009497869018218807469 631.07228107313005694
99.504748934509137825444 3630.19797398316995896 99.504748934509137825444 631.27837637473646737
nan nan nan nan

