Time Pressure difference Time.1 Pressure.1 difference.1
(hr) (psi) (hr) (psi)
0.000200000000020850166 0.03156269813217163 0.000200000000020850166 0.02519798578642681
0.000399999999999067768 0.06303650287732207 0.000399999999999067768 0.06561648030938272
0.000600000000019917934 0.09443479880679742 0.000600000000019917934 0.09584441380132629
0.000799999999998135536 0.12576427180780225 0.000799999999998135536 0.12652400338239209
0.001007140329434719206 0.15814454248336970 0.001007140329434719206 0.15863244047940306
0.001267914553977789183 0.19881644878189611 0.001267914553977789183 0.19920533082689146
0.001596209851982166583 0.24988078360789467 0.001596209851982166583 0.25003401349940052
0.002009509145224797066 0.31395946497459154 0.002009509145224797066 0.31365063502110146
0.002529822128153114136 0.39431923504241601 0.002529822128153114136 0.39318241382419405
0.003184857364431081805 0.49502191778384835 0.003184857364431081805 0.49247642884737303
0.004009497869034817086 0.62110553801630264 0.004009497869034817086 0.61624334996931629
0.005047658755856332391 0.77880069599014901 0.005047658755856332391 0.77021867260312160
0.006354625877790454069 0.97578582443481776 0.006354625877790454069 0.96133828244773745
0.008000000000009777068 1.22148423961987262 0.008000000000009777068 1.19792057013772291
0.010071403294361402914 1.52740299931589552 0.010071403294361402914 1.48983855512137819
0.012679145539692626699 1.90750881666832961 0.012679145539692626699 1.84865805691337326
0.015962098519750611558 2.37862994249704718 0.015962098519750611558 2.28770986673141463
0.020095091452091651263 2.96086441439009107 0.020095091452091651263 2.82202869872206064
0.025298221281360611101 3.67795250400825990 0.025298221281360611101 3.46809575178220530
0.031848573644296607199 4.55756450462107043 0.031848573644296607199 4.24329095224514941
0.040094978690191851456 5.63141822989794250 0.040094978690191851456 5.16491400943787404
0.050476587558435426217 6.93511226575557505 0.050476587558435426217 6.24866059153003661
0.063546258777947173257 8.50753676847024032 0.063546258777947173257 7.50642913675734746
0.080000000000012505552 10.38969039472556233 0.080000000000012505552 8.94340652821276905
0.100714032943542974863 12.62274140031742853 0.100714032943542974863 10.55434280674854008
0.126791455396883634421 15.24512072315242328 0.126791455396883634421 12.31973722365885493
0.159620985197506115583 18.28881867739118050 0.159620985197506115583 14.20179740690098136
0.200950914520774404082 21.77461199163839467 0.200950914520774404082 16.14248504199138168
0.252982212813464002465 25.70745982124602946 0.252982212813464002465 18.06385028563099127
0.318485736442809752589 30.07189287045134307 0.318485736442809752589 19.87278467458658682
0.400949786901833249431 34.82961470615207844 0.400949786901833249431 21.47224274030451241
0.504765875584169521062 39.92008001267310391 0.504765875584169521062 22.77508394032487615
0.635462587779443310865 45.26449131662719338 0.635462587779443310865 23.72111179874815434
0.800000000000011368684 50.77422376960227979 0.800000000000011368684 24.29107596181260931
1.007140329435344483500 56.36123552330937514 1.007140329435344483500 24.51086040942193378
1.267914553968907398485 61.94834582291248637 1.267914553968907398485 24.44783782777282966
1.596209851975117999245 67.47783649139961426 1.596209851975117999245 24.19532460174826127
2.009509145207687197399 72.91443063168632932 2.009509145207687197399 23.85284052648012221
2.529822128134725289783 78.24465504432630780 2.529822128134725289783 23.51288251899386950
3.184857364427983839050 83.47355402449665007 3.184857364427983839050 23.24337397443166964
4.009497869018204596614 88.61593457269157170 4.009497869018204596614 23.08408604292404931
5.009497869018190385759 93.52523051976744739 5.009497869018190385759 23.04883789180596665
6.009497869018190385759 97.50338871936344276 6.009497869018190385759 23.10679916580263793
7.009497869018204596614 100.84904976011370081 7.009497869018204596614 23.21263010496027945
8.009497869018190385759 103.73574327473757251 8.009497869018190385759 23.33950905387738217
9.009497869018204596614 106.27330795208617076 9.009497869018204596614 23.47576037863677456
10.009497869018190385759 108.53579818187674277 10.009497869018190385759 23.61310778460587301
11.009497869018190385759 110.57561968406025699 11.009497869018190385759 23.74108939568530730
12.009497869018204596614 112.43126108192883805 12.009497869018204596614 23.86410897111926843
13.009497869018190385759 114.13173981833826076 13.009497869018190385759 23.98131937829052163
14.009497869018204596614 115.69988625961325113 14.009497869018204596614 24.09242164514639839
15.009497869018190385759 117.15367080909166475 15.009497869018190385759 24.19826919324444248
16.009497869018190385759 118.50764928484078098 16.009497869018190385759 24.29817947827689295
17.009497869018204596614 119.77375787021433950 17.009497869018204596614 24.39078737575807310
18.009497869018190385759 120.96179819370190955 18.009497869018190385759 24.47714307401905742
19.009497869018204596614 122.07990315026577832 19.009497869018204596614 24.55467373830083488
20.009497869018190385759 123.13504806769806521 20.009497869018190385759 24.62789939519558047
21.009497869018190385759 124.13317355205643366 21.009497869018190385759 24.69725352768106674
22.009497869018204596614 125.07936460365394282 22.009497869018204596614 24.76410509996144071
23.009497869018190385759 125.97851224043047580 23.009497869018190385759 24.82987080792694456
24.009497869018204596614 126.83472284844675926 24.009497869018204596614 24.89227643440097992
25.009497869018204596614 127.65151364234918674 25.009497869018204596614 24.95249198704495086
26.009497869018190385759 128.43196839028004774 26.009497869018190385759 25.00837385153552006
27.009497869018204596614 129.17889968648808008 27.009497869018204596614 25.05974400265846214
28.009497869018190385759 129.89454886715816428 28.009497869018190385759 25.10744130358212800
29.009497869018190385759 130.58075643743009664 29.009497869018190385759 25.15273372107212424
30.009497869018190385759 131.23949186328854921 30.009497869018190385759 25.19543186045345351
31.009497869018218807469 131.87269487380211785 31.009497869018218807469 25.23467822370262326
32.009497869018190385759 132.48204467021810160 32.009497869018190385759 25.27151747743379673
33.009497869018190385759 133.06905943343110721 33.009497869018190385759 25.30916087260095892
34.009497869018218807469 133.63516914033976946 34.009497869018218807469 25.34451055353386550
35.009497869018190385759 134.18158565394531934 35.009497869018190385759 25.37870496699305534
36.009497869018190385759 134.70943430453888823 36.009497869018190385759 25.41212124228917446
37.009497869018190385759 135.21976002610156797 37.009497869018190385759 25.44434593538148803
38.009497869018218807469 135.71348627327316194 38.009497869018218807469 25.47538057894592356
39.009497869018190385759 136.19147914505288099 39.009497869018190385759 25.50470247657730027
40.009497869018190385759 136.65454263395628232 40.009497869018190385759 25.53215527967734388
41.009497869018218807469 137.10343239795952286 41.009497869018218807469 25.55945662949498498
42.009497869018190385759 137.53884137564986645 42.009497869018190385759 25.58529137424896049
43.009497869018190385759 137.96141267992885560 43.009497869018190385759 25.61010229274512540
44.009497869018218807469 138.37177539519862535 44.009497869018218807469 25.63367755059513442
46.009497869018190385759 139.15814607700838224 46.009497869018190385759 25.67835270098234091
48.009497869018218807469 139.90208898924794312 48.009497869018218807469 25.72021870728514870
50.009497869018190385759 140.60718988458796730 50.009497869018190385759 25.75945044243854909
52.009497869018190385759 141.27664363470830722 52.009497869018190385759 25.79637713491072049
54.009497869018218807469 141.91328776860191851 54.009497869018218807469 25.83124581523846786
56.009497869018190385759 142.51966365824128502 56.009497869018190385759 25.86393332956871305
58.009497869018218807469 143.09802004445830903 58.009497869018218807469 25.89413340587538315
60.009497869018190385759 143.65038269558661455 60.009497869018190385759 25.92316094839203089
62.009497869018190385759 144.17857611011865515 62.009497869018190385759 25.95062826090365604
64.009497869018218807469 144.68424808435517548 64.009497869018218807469 25.97655633012950460
66.009497869018190385759 145.16888757153333245 66.009497869018190385759 26.00038087730947822
68.009497869018190385759 145.63384201469432355 68.009497869018190385759 26.02272151053491456
70.009497869018190385759 146.08035844328009034 70.009497869018190385759 26.04435142062656183
72.009497869018190385759 146.50957462900234418 72.009497869018190385759 26.06476881696863401
74.009497869018218807469 146.92253087979983661 74.009497869018218807469 26.08428797886799799
76.009497869018190385759 147.32016196933619767 76.009497869018190385759 26.10284274444336106
78.009497869018190385759 147.70332458918241514 78.009497869018190385759 26.12011530490633149
80.009497869018218807469 148.07282494722255706 80.009497869018218807469 26.13724116359620453
82.009497869018190385759 148.42943822128893316 82.009497869018190385759 26.15411519916069949
84.009497869018218807469 148.77386956208377455 84.009497869018218807469 26.16982938854286189
86.009497869018190385759 149.10676902969123603 86.009497869018190385759 26.18499134627691305
88.009497869018190385759 149.42872125647772918 88.009497869018190385759 26.19964853752816936
91.009497869018218807469 149.89230989777934155 91.009497869018218807469 26.22107083849052245
94.009497869018218807469 150.33420205416348381 94.009497869018218807469 26.24256218331260015
97.009497869018218807469 150.75599155944357221 97.009497869018218807469 26.26587807314232847
99.504748934509137825444 151.09257723040576593 99.504748934509137825444 26.27445597178530790
nan nan nan nan

