Time Pressure difference Time.1 Pressure.1 difference.1
(hr) (psi) (hr) (psi)
0.000200000000020850166 0.62793157336636174 0.000200000000020850166 0.50130729617207026
0.000399999999999067768 1.25409463619093375 0.000399999999999067768 1.30542260826035106
0.000600000000019917934 1.87875547099839091 0.000600000000019917934 1.90679939036322810
0.000799999999998135536 2.50204709175522400 0.000799999999998135536 2.51716175150232635
0.001007140329434719206 3.14624405572177634 0.001007140329434719206 3.15595065795865048
0.001267914553977789183 3.95540092839772317 0.001267914553977789183 3.96313763434552513
0.001596209851982166583 4.97131243177811477 0.001596209851982166583 4.97436090014596832
0.002009509145224797066 6.24614093475766374 0.002009509145224797066 6.23999684410401834
0.002529822128153114136 7.84487741294911878 0.002529822128153114136 7.82226065397607151
0.003184857364431081805 9.84833078538393103 0.003184857364431081805 9.79768895285826424
0.004009497869034817086 12.35673123000854723 0.004009497869034817086 12.25999927833692382
0.005047658755856332391 15.49403489917243526 0.005047658755856332391 15.32329780231473570
0.006354625877790454069 19.41300219138742733 0.006354625877790454069 19.12557214553919493
0.008000000000009777068 24.30110750401641084 0.008000000000009777068 23.83231450063469836
0.010071403294361402914 30.38728072323202412 0.010071403294361402914 29.63994599136215413
0.012679145539692626699 37.94938593161202789 0.012679145539692626699 36.77856555332921573
0.015962098519750611558 47.32221675073073186 0.015962098519750611558 45.51338576970919547
0.020095091452091651263 58.90561834944497122 0.020095091452091651263 56.14351832194415692
0.025298221281360611101 73.17189718500642925 0.025298221281360611101 68.99685232493018816
0.031848573644296607199 90.67154646035604060 0.031848573644296607199 84.41915683940348458
0.040094978690191851456 112.03558373165381568 0.040094978690191851456 102.75460502986929612
0.050476587558435426217 137.97223349766355227 0.050476587558435426217 124.31545808412388965
0.063546258777947173257 169.25520518325006947 0.063546258777947173257 149.33843229969880895
0.080000000000012505552 206.70015627401383540 0.080000000000012505552 177.92671935075929923
0.100714032943542974863 251.12611838526257202 0.100714032943542974863 209.97587268162882879
0.126791455396883634421 303.29766491324301114 0.126791455396883634421 245.09793002858140198
0.159620985197506115583 363.85123473967712471 0.159620985197506115583 282.54102209518794098
0.200950914520774404082 433.20017541259539939 0.200950914520774404082 321.15049188803902780
0.252982212813464002465 511.44314802268422682 0.252982212813464002465 359.37554778781651521
0.318485736442809752589 598.27239500161101660 0.318485736442809752589 395.36382142072261558
0.400949786901833249431 692.92601889081504396 0.400949786901833249431 427.18461872816345704
0.504765875584169521062 794.19948656791768826 0.504765875584169521062 453.10430154962125471
0.635462587779443310865 900.52514303605676105 0.635462587779443310865 471.92527683825278473
0.800000000000011368684 1010.13982025840323331 0.800000000000011368684 483.26456387185083940
1.007140329435344483500 1121.29194883215495793 1.007140329435344483500 487.63711761902595754
1.267914553968907398485 1232.44603795057469142 1.267914553968907398485 486.38329994200677220
1.596209851975117999245 1342.45379967100279828 1.596209851975117999245 481.35961576109696125
2.009509145207687197399 1450.61340940933882848 2.009509145207687197399 474.54598521102553832
2.529822128134725289783 1556.65682140817602885 2.529822128134725289783 467.78261011472011432
3.184857364427983839050 1660.68439059261777402 3.184857364427983839050 462.42080854395635470
4.009497869018204596614 1762.99069834091642406 4.009497869018204596614 459.25181706448898922
5.009497869018190385759 1860.65984928800526177 5.009497869018190385759 458.55056437382393142
6.009497869018190385759 1939.80425978523066988 6.009497869018190385759 459.70368866702091282
7.009497869018204596614 2006.36530575384085751 7.009497869018204596614 461.80916735131506812
8.009497869018190385759 2063.79531357109453893 8.009497869018190385759 464.33339065082367370
9.009497869018204596614 2114.27949504676689685 9.009497869018204596614 467.04407490130000724
10.009497869018190385759 2159.29114277628468699 10.009497869018190385759 469.77656539900101507
11.009497869018190385759 2199.87285476709394061 11.009497869018190385759 472.32272587205511627
12.009497869018204596614 2236.79035205100535677 12.009497869018204596614 474.77016795174120034
13.009497869018190385759 2270.62092901746655116 13.009497869018190385759 477.10203815756932499
14.009497869018204596614 2301.81878979651628470 14.009497869018204596614 479.31238851922830690
15.009497869018190385759 2330.74145083350776986 15.009497869018190385759 481.41819763402099852
16.009497869018190385759 2357.67849629841111891 16.009497869018190385759 483.40588646256134098
17.009497869018204596614 2382.86739341794827851 17.009497869018204596614 485.24829621245010003
18.009497869018190385759 2406.50314301154321583 18.009497869018190385759 486.96632010416857383
19.009497869018204596614 2428.74754688423490734 19.009497869018204596614 488.50877226724816182
20.009497869018190385759 2449.73937734683477174 20.009497869018190385759 489.96557744125948375
21.009497869018190385759 2469.59682119354420138 21.009497869018190385759 491.34535965597069662
22.009497869018204596614 2488.42104316743143499 22.009497869018204596614 492.67535409396964496
23.009497869018190385759 2506.30934878330162974 23.009497869018190385759 493.98374554717815954
24.009497869018204596614 2523.34343351120423904 24.009497869018204596614 495.22528906334576959
25.009497869018204596614 2539.59327141094672697 25.009497869018204596614 496.42326163699954122
26.009497869018190385759 2555.12021323820272301 26.009497869018190385759 497.53501662528560701
27.009497869018204596614 2569.98021481539399247 27.009497869018204596614 498.55701226341568599
28.009497869018190385759 2584.21786693609374197 28.009497869018190385759 499.50593751337072490
29.009497869018190385759 2597.86978596571452726 29.009497869018190385759 500.40701824027701150
30.009497869018190385759 2610.97515391174010801 30.009497869018190385759 501.25648648691617382
31.009497869018218807469 2623.57256117353699665 31.009497869018218807469 502.03728255576794481
32.009497869018190385759 2635.69541501802268613 32.009497869018190385759 502.77018981420928867
33.009497869018190385759 2647.37391925457723119 33.009497869018190385759 503.51909525490333408
34.009497869018218807469 2658.63652289728588585 34.009497869018218807469 504.22236785451588048
35.009497869018190385759 2669.50733564164920608 35.009497869018190385759 504.90265671175654916
36.009497869018190385759 2680.00874563766819847 36.009497869018190385759 505.56746471501622864
37.009497869018190385759 2690.16154157191522245 37.009497869018190385759 506.20856650390538789
38.009497869018218807469 2699.98409533143467343 38.009497869018218807469 506.82599257060837772
39.009497869018190385759 2709.49363772789411087 39.009497869018190385759 507.40934400769583590
40.009497869018190385759 2718.70616398081483567 40.009497869018190385759 507.95551030094935641
41.009497869018218807469 2727.63670770677344990 41.009497869018218807469 508.49866347100544317
42.009497869018190385759 2736.29905473661301585 42.009497869018190385759 509.01263891926879523
43.009497869018190385759 2744.70599963226914042 43.009497869018190385759 509.50624561356090680
44.009497869018218807469 2752.87005786237250504 44.009497869018218807469 509.97526916447162648
46.009497869018190385759 2768.51469563732462120 46.009497869018190385759 510.86406952480655264
48.009497869018218807469 2783.31524410188058027 48.009497869018218807469 511.69698270283095098
50.009497869018190385759 2797.34304086180281956 50.009497869018190385759 512.47748774956687612
52.009497869018190385759 2810.66164704840730337 52.009497869018190385759 513.21213457875012409
54.009497869018218807469 2823.32751455429070120 54.009497869018218807469 513.90583779790210883
56.009497869018190385759 2835.39120330606374409 56.009497869018190385759 514.55614729352487302
58.009497869018218807469 2846.89745141080220492 58.009497869018218807469 515.15696986425757586
60.009497869018190385759 2857.88656099640775210 60.009497869018190385759 515.73446518379932968
62.009497869018190385759 2868.39482998025505367 62.009497869018190385759 516.28092013797800064
64.009497869018218807469 2878.45504083611922397 64.009497869018218807469 516.79675225205016886
66.009497869018190385759 2888.09681589682122649 66.009497869018190385759 517.27073534857800041
68.009497869018190385759 2897.34696218707631488 68.009497869018190385759 517.71519636748405446
70.009497869018190385759 2906.23028902946725793 70.009497869018190385759 518.14551773667574253
72.009497869018190385759 2914.76943209278351787 72.009497869018190385759 518.55171646390226670
74.009497869018218807469 2922.98508802970218312 74.009497869018218807469 518.94004505326859089
76.009497869018190385759 2930.89585391626724231 76.009497869018190385759 519.30918723155730277
78.009497869018190385759 2938.51877340583996556 78.009497869018190385759 519.65282027655757702
80.009497869018218807469 2945.86988579211174510 80.009497869018218807469 519.99353472838765811
82.009497869018190385759 2952.96461303406431398 82.009497869018190385759 520.32923922540760486
84.009497869018218807469 2959.81698391935105974 84.009497869018218807469 520.64186888785275187
86.009497869018190385759 2966.43993122227811909 86.009497869018190385759 520.94351204698284619
88.009497869018190385759 2972.84508604992515757 88.009497869018190385759 521.23511300977099836
91.009497869018218807469 2982.06806007161048910 91.009497869018218807469 521.66130404996931702
94.009497869018218807469 2990.85938823546302956 94.009497869018218807469 522.08886869958746502
97.009497869018218807469 2999.25077944577196831 97.009497869018218807469 522.55273219198943480
99.504748934509137825444 3005.94706279438878482 99.504748934509137825444 522.72338722814981793
nan nan nan nan

