Time Pressure difference Time.1 Pressure.1 difference.1
(hr) (psi) (hr) (psi)
0.000200000000020850166 0.89289211821274983 0.000200000000020850166 0.71283775580023212
0.000399999999999067768 1.78326948929266393 0.000399999999999067768 1.85625569296280069
0.000600000000019917934 2.67151075571861130 0.000600000000019917934 2.71138802201120432
0.000799999999998135536 3.55780505772072164 0.000799999999998135536 3.57929746410714422
0.001007140329434719206 4.47382587288480149 0.001007140329434719206 4.48762825040416580
0.001267914553977789183 5.62441269580364089 0.001267914553977789183 5.63541396418179819
0.001596209851982166583 7.06899585206544057 0.001596209851982166583 7.07333064504883069
0.002009509145224797066 8.88174802230752469 0.002009509145224797066 8.87301138546536983
0.002529822128153114136 11.15508362291045152 0.002529822128153114136 11.12292354897391178
0.003184857364431081805 14.00390951625360358 0.003184857364431081805 13.93189897397173738
0.004009497869034817086 17.57074877282961367 0.004009497869034817086 17.43320003202671131
0.005047658755856332391 22.03186179445816251 0.005047658755856332391 21.78908086969357072
0.006354625877790454069 27.60446740177444624 0.006354625877790454069 27.19575404292941201
0.008000000000009777068 34.55514625240429183 0.008000000000009777068 33.88854244468558363
0.010071403294361402914 43.20942695433125635 0.010071403294361402914 42.14674859882845936
0.012679145539692626699 53.96242047153826604 0.012679145539692626699 52.29756345215464108
0.015962098519750611558 67.29018916274540629 0.015962098519750611558 64.71810807200711224
0.020095091452091651263 83.76129593340388624 0.020095091452091651263 79.83370660858460610
0.025298221281360611101 104.04734057391787871 0.025298221281360611101 98.11060350436501665
0.031848573644296607199 128.93110111756976721 0.031848573644296607199 120.04046772798776033
0.040094978690191851456 159.30985781948129443 0.040094978690191851456 146.11269895120304341
0.050476587558435426217 196.19067593913797509 0.050476587558435426217 176.77131936565234582
0.063546258777947173257 240.67373752909233531 0.063546258777947173257 212.35292952668811495
0.080000000000012505552 293.91887300868364719 0.080000000000012505552 253.00426362707179351
0.100714032943542974863 357.09071066687465645 0.100714032943542974863 298.57680308564943061
0.126791455396883634421 431.27644151023304175 0.126791455396883634421 348.51888198508601135
0.159620985197506115583 517.38105468935577846 0.159620985197506115583 401.76137401101459545
0.200950914520774404082 615.99231292134936666 0.200950914520774404082 456.66240579317718584
0.252982212813464002465 727.25050810103903132 0.252982212813464002465 511.01681729087670192
0.318485736442809752589 850.71802199303147063 0.318485736442809752589 562.19061908369951652
0.400949786901833249431 985.31146866088101888 0.400949786901833249431 607.43844594282495564
0.504765875584169521062 1129.31805299009442933 0.504765875584169521062 644.29513778550642655
0.635462587779443310865 1280.50863593090093673 0.635462587779443310865 671.05776799090176610
0.800000000000011368684 1436.37606716638038051 0.800000000000011368684 687.18175418285682099
1.007140329435344483500 1594.42968914625203070 1.007140329435344483500 693.39934052969954337
1.267914553968907398485 1752.48609893765569723 1.267914553968907398485 691.61646486462598205
1.596209851975117999245 1908.91247969091023151 1.596209851975117999245 684.47299860208886457
2.009509145207687197399 2062.71086655428462109 2.009509145207687197399 674.78430436752978494
2.529822128134725289783 2213.50010980659953930 2.529822128134725289783 665.16707126101073300
3.184857364427983839050 2361.42290990352421431 3.184857364427983839050 657.54281638194845527
4.009497869018204596614 2506.89814909587994407 4.009497869018204596614 653.03664463535130835
5.009497869018190385759 2645.77954759868453039 5.009497869018190385759 652.03949299187922861
6.009497869018190385759 2758.31954929778203223 6.009497869018190385759 653.67918692731154806
7.009497869018204596614 2852.96653926637418408 7.009497869018204596614 656.67308849558685324
8.009497869018190385759 2934.62957948270741326 8.009497869018190385759 660.26242718205753590
9.009497869018204596614 3006.41594864454236813 9.009497869018204596614 664.11690544827717986
10.009497869018190385759 3070.42060646098661891 10.009497869018190385759 668.00239127503448344
11.009497869018190385759 3128.12608316749447113 11.009497869018190385759 671.62292369372914891
12.009497869018204596614 3180.62120165982923936 12.009497869018204596614 675.10308273561088299
13.009497869018190385759 3228.72685012404281224 13.009497869018190385759 678.41890346479760865
14.009497869018204596614 3273.08888760748004643 14.009497869018204596614 681.56192811927303410
15.009497869018190385759 3314.21568736246172193 15.009497869018190385759 684.55629954573089435
16.009497869018190385759 3352.51902582115371843 16.009497869018190385759 687.38270892493835618
17.009497869018204596614 3388.33657132843200088 17.009497869018204596614 690.00253760368229905
18.009497869018190385759 3421.94560679551432258 18.009497869018190385759 692.44549485711809211
19.009497869018204596614 3453.57620754041317923 19.009497869018204596614 694.63879654403672248
20.009497869018190385759 3483.42570191514187172 20.009497869018190385759 696.71031183776972284
21.009497869018190385759 3511.66214653843871929 21.009497869018190385759 698.67230374360917722
22.009497869018204596614 3538.42939339284203015 22.009497869018204596614 700.56349953838275724
23.009497869018190385759 3563.86580680165207013 23.009497869018190385759 702.42397680319652409
24.009497869018204596614 3588.08755426527022792 24.009497869018204596614 704.18939913108022211
25.009497869018204596614 3611.19413593487843173 25.009497869018204596614 705.89286542298214044
26.009497869018190385759 3633.27278998818565015 26.009497869018190385759 707.47373395791271378
27.009497869018204596614 3654.40308323617546193 27.009497869018204596614 708.92696849625906452
28.009497869018190385759 3674.64842189986893572 28.009497869018190385759 710.27630003554702398
29.009497869018190385759 3694.06087290098275844 29.009497869018190385759 711.55759868822462977
30.009497869018190385759 3712.69615139566258222 30.009497869018190385759 712.76550657861753280
31.009497869018218807469 3730.60913129834898427 31.009497869018218807469 713.87576553895587494
32.009497869018190385759 3747.84731632853799965 32.009497869018190385759 714.91792863792977641
33.009497869018190385759 3764.45365502469621788 33.009497869018190385759 715.98284047489562454
34.009497869018218807469 3780.46860068066462190 34.009497869018218807469 716.98286434339217976
35.009497869018190385759 3795.92643626292692716 35.009497869018190385759 717.95020630309284115
36.009497869018190385759 3810.85899677313955181 36.009497869018190385759 718.89553514370686571
37.009497869018190385759 3825.29584284366228530 37.009497869018190385759 719.80715475092370070
38.009497869018218807469 3839.26309852022723135 38.009497869018218807469 720.68510848333858121
39.009497869018190385759 3852.78526528767997661 39.009497869018190385759 721.51460953475259430
40.009497869018190385759 3865.88508767113216891 40.009497869018190385759 722.29123488560912847
41.009497869018218807469 3878.58394283701272798 41.009497869018218807469 723.06357570281852531
42.009497869018190385759 3890.90143365325229752 42.009497869018190385759 723.79442703467464071
43.009497869018190385759 3902.85575344535618569 43.009497869018190385759 724.49631486055295682
44.009497869018218807469 3914.46469867996074754 44.009497869018218807469 725.16324649709918049
46.009497869018190385759 3936.71071138905290354 46.009497869018190385759 726.42708298831621505
48.009497869018218807469 3957.75646482740921783 48.009497869018218807469 727.61145027188263157
50.009497869018190385759 3977.70339805084404361 50.009497869018190385759 728.72129541109040929
52.009497869018190385759 3996.64189229766952849 52.009497869018190385759 729.76593210602698036
54.009497869018218807469 4014.65221976965949580 54.009497869018218807469 730.75234872056194035
56.009497869018190385759 4031.80627454235218465 56.009497869018190385759 731.67706129700957263
58.009497869018218807469 4048.16767231033418284 58.009497869018218807469 732.53140556094831481
60.009497869018190385759 4063.79372099356851322 60.009497869018190385759 733.35257946109038585
62.009497869018190385759 4078.73603469414592837 62.009497869018190385759 734.12961527556399233
64.009497869018218807469 4093.04122870215314833 64.009497869018218807469 734.86310670761099573
66.009497869018190385759 4106.75142472100924351 66.009497869018190385759 735.53709060809705989
68.009497869018190385759 4119.90474120516773837 68.009497869018190385759 736.16909536381660928
70.009497869018190385759 4132.53645596121350536 70.009497869018190385759 736.78099413614609148
72.009497869018190385759 4144.67875595203986450 72.009497869018190385759 737.35859153266528665
74.009497869018218807469 4156.36107094170620258 74.009497869018218807469 737.91077834955513026
76.009497869018190385759 4167.60984518516852404 76.009497869018190385759 738.43568290201608306
78.009497869018190385759 4178.44931403608188702 78.009497869018190385759 738.92431454669235791
80.009497869018218807469 4188.90228469116482302 80.009497869018218807469 739.40879607541899077
82.009497869018190385759 4198.99068652330515761 82.009497869018190385759 739.88615366046724375
84.009497869018218807469 4208.73446787473858421 84.009497869018218807469 740.33069980746245164
86.009497869018190385759 4218.15201860310753545 86.009497869018190385759 740.75962361178119409
88.009497869018190385759 4227.25987765035733901 88.009497869018190385759 741.17426783796793188
91.009497869018218807469 4240.37455631875764084 91.009497869018218807469 741.78029345729771649
94.009497869018218807469 4252.87545284804582479 94.009497869018218807469 742.38827229108005668
97.009497869018218807469 4264.80765595794309775 97.009497869018218807469 743.04786654284214364
99.504748934509137825444 4274.32948743911038036 99.504748934509137825444 743.29053078076856309
nan nan nan nan

