Time Pressure difference Time.1 Pressure.1 difference.1
(hr) (psi) (hr) (psi)
0.000200000000020850166 0.02491791957803023 0.000200000000020850166 0.01989314667349485
0.000399999999999067768 0.04976566016630690 0.000399999999999067768 0.05180248445477584
0.000600000000019917934 0.07455378853168218 0.000600000000019917934 0.07566664247473129
0.000799999999998135536 0.09928758300615967 0.000799999999998135536 0.09988737109136217
0.001007140329434719206 0.12485095459213398 0.001007140329434719206 0.12523613722058136
0.001267914553977789183 0.15696035430149693 0.001267914553977789183 0.15726736644228273
0.001596209851982166583 0.19727430284833788 0.001596209851982166583 0.19739527381531621
0.002009509145224797066 0.24786273550625645 0.002009509145224797066 0.24761892238508007
0.002529822128153114136 0.31130465924401263 0.002529822128153114136 0.31040716880857427
0.003184857364431081805 0.39080677719777501 0.003184857364431081805 0.38879718066897873
0.004009497869034817086 0.49034647738129161 0.004009497869034817086 0.48650790787051285
0.005047658755856332391 0.61484265472906496 0.005047658755856332391 0.60806737310772752
0.006354625877790454069 0.77035722981696131 0.006354625877790454069 0.75895127561663478
0.008000000000009777068 0.96432966285779398 0.008000000000009777068 0.94572676589820226
0.010071403294361402914 1.20584447314412802 0.010071403294361402914 1.17618833299056158
0.012679145539692626699 1.50592801315920766 0.012679145539692626699 1.45946688703687366
0.015962098519750611558 1.87786574407661622 0.015962098519750611558 1.80608673689322186
0.020095091452091651263 2.33752453767638713 0.020095091452091651263 2.22791739372794284
0.025298221281360611101 2.90364671369073157 0.025298221281360611101 2.73797033035437254
0.031848573644296607199 3.59807724049031918 0.031848573644296607199 3.34996654124616988
0.040094978690191851456 4.44585649728785004 0.040094978690191851456 4.07756369166147969
0.050476587558435426217 5.47508863085966535 0.050476587558435426217 4.93315309857634521
0.063546258777947173257 6.71647639616071679 0.063546258777947173257 5.92612826586106323
0.080000000000012505552 8.20238715373070804 0.080000000000012505552 7.06058410122060742
0.100714032943542974863 9.96532215814534084 0.100714032943542974863 8.33237590006463691
0.126791455396883634421 12.03562162354138820 0.126791455396883634421 9.72610833446751499
0.159620985197506115583 14.43854106109829871 0.159620985197506115583 11.21194532123761789
0.200950914520774404082 17.19048315129347060 0.200950914520774404082 12.74406713841424832
0.252982212813464002465 20.29536301677318022 0.252982212813464002465 14.26093443602446520
0.318485736442809752589 23.74096805561947932 0.318485736442809752589 15.68904053256835773
0.400949786901833249431 27.49706424169900743 0.400949786901833249431 16.95177058445093365
0.504765875584169521062 31.51585264158402921 0.504765875584169521062 17.98032942657227196
0.635462587779443310865 35.73512472365305115 0.635462587779443310865 18.72719352532748971
0.800000000000011368684 40.08491350231759043 0.800000000000011368684 19.17716523300995490
1.007140329435344483500 44.49571225524424278 1.007140329435344483500 19.35067927059626669
1.267914553968907398485 48.90658880756248550 1.267914553968907398485 19.30092460087328732
1.596209851975117999245 53.27197617742074698 1.596209851975117999245 19.10157205401178260
2.009509145207687197399 57.56402418291026635 2.009509145207687197399 18.83118988932641358
2.529822128134725289783 61.77209608762603921 2.529822128134725289783 18.56280198867936804
3.184857364427983839050 65.90017422986578310 3.184857364427983839050 18.35003208507763262
4.009497869018204596614 69.95994834686176489 4.009497869018204596614 18.22427845494003762
5.009497869018190385759 73.83570830507956373 5.009497869018190385759 18.19645096721523458
6.009497869018190385759 76.97635951528692999 6.009497869018190385759 18.24220986773892506
7.009497869018204596614 79.61767086324765330 7.009497869018204596614 18.32576060917917005
8.009497869018190385759 81.89663942742440383 8.009497869018190385759 18.42592820042951374
9.009497869018204596614 83.89997996217329046 9.009497869018204596614 18.53349503576587409
10.009497869018190385759 85.68615645937636316 10.009497869018190385759 18.64192719837305745
11.009497869018190385759 87.29654185583704873 11.009497869018190385759 18.74296531238313790
12.009497869018204596614 88.76152190678593001 12.009497869018204596614 18.84008602983100289
13.009497869018190385759 90.10400511974073368 13.009497869018190385759 18.93262056180830655
14.009497869018204596614 91.34201546811571859 14.009497869018204596614 19.02033287774715475
15.009497869018190385759 92.48974011244079918 15.009497869018190385759 19.10389673150876888
16.009497869018190385759 93.55867048803220598 16.009497869018190385759 19.18277327232386043
17.009497869018204596614 94.55822989753762897 17.009497869018204596614 19.25588477033531731
18.009497869018190385759 95.49615646871203012 18.009497869018190385759 19.32406032159398990
19.009497869018204596614 96.37887090810454538 19.009497869018204596614 19.38526874076381645
20.009497869018190385759 97.21188005344582450 20.009497869018190385759 19.44307846989124755
21.009497869018190385759 97.99987385688666564 21.009497869018190385759 19.49783173237979028
22.009497869018204596614 98.74686679235838938 22.009497869018204596614 19.55060928944324061
23.009497869018190385759 99.45672018981355222 23.009497869018190385759 19.60252958520548106
24.009497869018204596614 100.13267593298428437 24.009497869018204596614 19.65179718505340389
25.009497869018204596614 100.77751077027568272 25.009497869018204596614 19.69933577924601309
26.009497869018190385759 101.39365925548423775 26.009497869018190385759 19.74345304068593521
27.009497869018204596614 101.98334185775372873 27.009497869018204596614 19.78400842315141617
28.009497869018190385759 102.54832805301958842 28.009497869018190385759 19.82166418703852173
29.009497869018190385759 103.09007087165534244 29.009497869018190385759 19.85742135874115277
30.009497869018190385759 103.61012515522779154 30.009497869018190385759 19.89113041614746535
31.009497869018218807469 104.11002226879112698 31.009497869018218807469 19.92211438713365013
32.009497869018190385759 104.59108789754060354 32.009497869018190385759 19.95119800850036640
33.009497869018190385759 105.05452060534035752 33.009497869018190385759 19.98091647836917772
34.009497869018218807469 105.50144932132087661 34.009497869018218807469 20.00882412121094589
35.009497869018190385759 105.93283077943053172 35.009497869018190385759 20.03581971078398993
36.009497869018190385759 106.34955339832016818 36.009497869018190385759 20.06220098075461067
37.009497869018190385759 106.75244212586963499 37.009497869018190385759 20.08764152793275315
38.009497869018218807469 107.14222600521564743 38.009497869018218807469 20.11214256232572950
39.009497869018190385759 107.51958879872596242 39.009497869018190385759 20.13529142887681544
40.009497869018190385759 107.88516523733392205 40.009497869018190385759 20.15696469448211658
41.009497869018218807469 108.23955189312593461 41.009497869018218807469 20.17851839170656802
42.009497869018190385759 108.58329582288146753 42.009497869018190385759 20.19891424282812764
43.009497869018190385759 108.91690474731225891 43.009497869018190385759 20.21850181006194092
44.009497869018218807469 109.24087531199891998 44.009497869018218807469 20.23711385573299992
46.009497869018190385759 109.86169427132242049 46.009497869018190385759 20.27238371130184902
48.009497869018218807469 110.44901762309048365 48.009497869018218807469 20.30543582154090743
50.009497869018190385759 111.00567622467471551 50.009497869018190385759 20.33640824403043368
52.009497869018190385759 111.53419234319076736 52.009497869018190385759 20.36556089598214925
54.009497869018218807469 112.03680613310677927 54.009497869018218807469 20.39308880150405656
56.009497869018190385759 112.51552394071680396 56.009497869018190385759 20.41889473387003662
58.009497869018218807469 112.97212108773024397 58.009497869018218807469 20.44273689937530136
60.009497869018190385759 113.40819686493679797 60.009497869018190385759 20.46565338030949732
62.009497869018190385759 113.82519166588313908 62.009497869018190385759 20.48733810071341566
64.009497869018218807469 114.22440638238566635 64.009497869018218807469 20.50780762904960852
66.009497869018190385759 114.60701650384211803 66.009497869018190385759 20.52661648208643186
68.009497869018190385759 114.97408580107445175 68.009497869018190385759 20.54425382410651224
70.009497869018190385759 115.32659877101059465 70.009497869018190385759 20.56133006891570503
72.009497869018190385759 115.66545365447554161 72.009497869018190385759 20.57744906602786727
74.009497869018218807469 115.99147174721039733 74.009497869018218807469 20.59285893068526008
76.009497869018190385759 116.30539102842330124 76.009497869018190385759 20.60750742982370198
78.009497869018190385759 116.60788783356507281 78.009497869018190385759 20.62114366176815849
80.009497869018218807469 116.89959864254412025 80.009497869018218807469 20.63466407652331824
82.009497869018190385759 117.18113543785968034 82.009497869018190385759 20.64798568354792252
84.009497869018218807469 117.45305491743455661 84.009497869018218807469 20.66039162253383665
86.009497869018190385759 117.71587028659834573 86.009497869018190385759 20.67236158916598754
88.009497869018190385759 117.97004309721926063 88.009497869018190385759 20.68393305594329590
91.009497869018218807469 118.33603412982579073 91.009497869018218807469 20.70084539880830476
94.009497869018218807469 118.68489635855011954 94.009497869018218807469 20.71781224998363058
97.009497869018218807469 119.01788807324491870 97.009497869018218807469 20.73621953142815144
99.504748934509137825444 119.28361360295191673 99.504748934509137825444 20.74299155667261019
nan nan nan nan

