Time Pressure difference Time.1 Pressure.1 difference.1
(hr) (psi) (hr) (psi)
0.000200000000020850166 0.56148378782494779 0.000200000000020850166 0.44825890504275062
0.000399999999999067768 1.12138620908078201 0.000399999999999067768 1.16728264971428231
0.000600000000019917934 1.67994536824723850 0.000600000000019917934 1.70502167709727814
0.000799999999998135536 2.23728020373879799 0.000799999999998135536 2.25079542859202730
0.001007140329434719206 2.81330817680941880 0.001007140329434719206 2.82198762537043324
0.001267914553977789183 3.53683998359373097 0.001267914553977789183 3.54375799049943785
0.001596209851982166583 4.44524762418254671 0.001596209851982166583 4.44797350330512486
0.002009509145224797066 5.58517364007431283 0.002009509145224797066 5.57967971774380533
0.002529822128153114136 7.01473165496508422 0.002529822128153114136 6.99450820381987359
0.003184857364431081805 8.80617937952319707 0.003184857364431081805 8.76089647107432157
0.004009497869034817086 11.04914062365843641 0.004009497869034817086 10.96264485734889149
0.005047658755856332391 13.85445448656159684 0.005047658755856332391 13.70178480736079329
0.006354625877790454069 17.35871624520886414 0.006354625877790454069 17.10170207722817182
0.008000000000009777068 21.72956173639562749 0.008000000000009777068 21.31037645823948878
0.010071403294361402914 27.17169546151435000 0.010071403294361402914 26.50344377005399110
0.012679145539692626699 33.93357789652080925 0.012679145539692626699 32.88665385456422285
0.015962098519750611558 42.31457476652641958 0.015962098519750611558 40.69715447132726638
0.020095091452091651263 52.67221958230793177 0.020095091452091651263 50.20240527200297720
0.025298221281360611101 65.42883928183114506 0.025298221281360611101 61.69559811065186494
0.031848573644296607199 81.07667381904853698 0.031848573644296607199 75.48591272941369823
0.040094978690191851456 100.17996640555287513 0.040094978690191851456 91.88110185210534553
0.050476587558435426217 123.37199714870445177 0.050476587558435426217 111.16038315458696673
0.063546258777947173257 151.34460146015481996 0.063546258777947173257 133.53542359073594525
0.080000000000012505552 184.82712386406524274 0.080000000000012505552 159.09849508083766523
0.100714032943542974863 224.55192596354163470 0.100714032943542974863 187.75620361478982545
0.126791455396883634421 271.20267391713264260 0.126791455396883634421 219.16164113666803814
0.159620985197506115583 325.34845857674838498 0.159620985197506115583 252.64250123855427432
0.200950914520774404082 387.35888700914614446 0.200950914520774404082 287.16631285226770842
0.252982212813464002465 457.32217997795572728 0.252982212813464002465 321.34638929175133626
0.318485736442809752589 534.96314685329230088 0.318485736442809752589 353.52638000054037093
0.400949786901833249431 619.60051424628431960 0.400949786901833249431 381.97989716962763396
0.504765875584169521062 710.15721285702693422 0.504765875584169521062 405.15675641209514879
0.635462587779443310865 805.23147710631542395 0.635462587779443310865 421.98609410404611708
0.800000000000011368684 903.24671758555632550 0.800000000000011368684 432.12545658382430247
1.007140329435344483500 1002.63671615150371963 1.007140329435344483500 436.03530623076915163
1.267914553968907398485 1102.02846779707465430 1.267914553968907398485 434.91416767301137725
1.596209851975117999245 1200.39519653121419651 1.596209851975117999245 430.42209028373218871
2.009509145207687197399 1297.10934492157798559 2.009509145207687197399 424.32947883948850176
2.529822128134725289783 1391.93123184117325764 2.529822128134725289783 418.28180481157511394
3.184857364427983839050 1484.95059264630913276 3.184857364427983839050 413.48738965041599158
4.009497869018204596614 1576.43083608261849804 4.009497869018204596614 410.65374118464887943
5.009497869018190385759 1663.76462714112631147 5.009497869018190385759 410.02669512791663919
6.009497869018190385759 1734.53396774446559903 6.009497869018190385759 411.05779568638376986
7.009497869018204596614 1794.05151678518041081 7.009497869018204596614 412.94047239350396694
8.009497869018190385759 1845.40427509796313643 8.009497869018190385759 415.19758211634496092
9.009497869018204596614 1890.54621514763812229 9.009497869018204596614 417.62142147259100966
10.009497869018190385759 1930.79472555128086242 10.009497869018190385759 420.06475953667285239
11.009497869018190385759 1967.08207648486177277 11.009497869018190385759 422.34148503903338678
12.009497869018204596614 2000.09296029957613428 12.009497869018204596614 424.52993853885857334
13.009497869018190385759 2030.34358203149122346 13.009497869018190385759 426.61504999274717420
14.009497869018204596614 2058.24008188154084564 14.009497869018204596614 428.59150084523594160
15.009497869018190385759 2084.10214386699908573 15.009497869018190385759 430.47447301666426256
16.009497869018190385759 2108.18870833032588052 16.009497869018190385759 432.25182440303103704
17.009497869018204596614 2130.71211369118145740 17.009497869018204596614 433.89927015822252088
18.009497869018190385759 2151.84672576164439306 18.009497869018190385759 435.43549257991793411
19.009497869018204596614 2171.73722446262263475 19.009497869018204596614 436.81472229187801304
20.009497869018190385759 2190.50769720431253518 20.009497869018190385759 438.11736818821611905
21.009497869018190385759 2208.26382424184657793 21.009497869018190385759 439.35114170295793201
22.009497869018204596614 2225.09606505447572999 22.009497869018204596614 440.54039598878773631
23.009497869018190385759 2241.09142827713185397 23.009497869018190385759 441.71033331996352445
24.009497869018204596614 2256.32296435657917755 24.009497869018204596614 442.82049656987004482
25.009497869018204596614 2270.85324269021202781 25.009497869018204596614 443.89169955901013509
26.009497869018190385759 2284.73712189024490726 26.009497869018190385759 444.88580851678977979
27.009497869018204596614 2298.02463652805090533 27.009497869018204596614 445.79965646834529025
28.009497869018190385759 2310.75565879470832442 28.009497869018190385759 446.64816634793470485
29.009497869018190385759 2322.96293030796687162 29.009497869018190385759 447.45389461696726130
30.009497869018190385759 2334.68148683113304287 30.009497869018190385759 448.21347204385619989
31.009497869018218807469 2345.94583512342705944 31.009497869018218807469 448.91164419007827746
32.009497869018190385759 2356.78584729124804653 32.009497869018190385759 449.56699512487489301
33.009497869018190385759 2367.22853097366942166 33.009497869018190385759 450.23665131258547945
34.009497869018218807469 2377.29932470709718473 34.009497869018218807469 450.86550353128666302
35.009497869018190385759 2387.01978689650104570 35.009497869018190385759 451.47380414966590934
36.009497869018190385759 2396.40993657548096962 36.009497869018190385759 452.06826209967056229
37.009497869018190385759 2405.48836256959612001 37.009497869018190385759 452.64152242941804616
38.009497869018218807469 2414.27149265085927254 38.009497869018218807469 453.19361240440639449
39.009497869018190385759 2422.77473426462529460 39.009497869018190385759 453.71523353069090945
40.009497869018190385759 2431.01239001459089195 40.009497869018190385759 454.20360444899694130
41.009497869018218807469 2438.99790265843785164 41.009497869018218807469 454.68928109312128072
42.009497869018190385759 2446.74359920892902664 42.009497869018190385759 455.14886760506044538
43.009497869018190385759 2454.26092030610288930 43.009497869018190385759 455.59024078672905489
44.009497869018218807469 2461.56105703037565036 44.009497869018218807469 456.00963221585021756
46.009497869018190385759 2475.55017758046506060 46.009497869018190385759 456.80437962800164087
48.009497869018218807469 2488.78453044030584351 48.009497869018218807469 457.54915384538850276
50.009497869018190385759 2501.32790426267047224 50.009497869018190385759 458.24706576548572912
52.009497869018190385759 2513.23713413323184795 52.009497869018190385759 458.90397218946441171
54.009497869018218807469 2524.56269819933959297 54.009497869018218807469 459.52426766055805274
56.009497869018190385759 2535.34980613081870615 56.009497869018190385759 460.10576133653813713
58.009497869018218807469 2545.63846184352178170 58.009497869018218807469 460.64300479925685750
60.009497869018190385759 2555.46470268990924524 60.009497869018190385759 461.15938950297402243
62.009497869018190385759 2564.86098553789997823 62.009497869018190385759 461.64801853607559678
64.009497869018218807469 2573.85662381642396213 64.009497869018218807469 462.10926524125119386
66.009497869018190385759 2582.47810521990868438 66.009497869018190385759 462.53309139634751546
68.009497869018190385759 2590.74940005087773898 68.009497869018190385759 462.93051950320005972
70.009497869018190385759 2598.69269230677173255 70.009497869018190385759 463.31530421956722421
72.009497869018190385759 2606.32822234751574797 72.009497869018190385759 463.67851895449456379
74.009497869018218807469 2613.67449670380756288 74.009497869018218807469 464.02575457144115489
76.009497869018190385759 2620.74814450713802216 76.009497869018190385759 464.35583408536081151
78.009497869018190385759 2627.56440584966640017 78.009497869018190385759 464.66310384517578314
80.009497869018218807469 2634.13762274532791707 80.009497869018218807469 464.96776385765878103
82.009497869018190385759 2640.48158519977187098 82.009497869018190385759 465.26794406927984937
84.009497869018218807469 2646.60883747285879508 84.009497869018218807469 465.54749122776246395
86.009497869018190385759 2652.53094379134927294 86.009497869018190385759 465.81721447587352714
88.009497869018190385759 2658.25830445734072782 88.009497869018190385759 466.07795819392219983
91.009497869018218807469 2666.50530239207500927 91.009497869018218807469 466.45904965314718993
94.009497869018218807469 2674.36633127932964271 94.009497869018218807469 466.84136936629778347
97.009497869018218807469 2681.86974458378563213 97.009497869018218807469 467.25614677484770709
99.504748934509137825444 2687.85742651984992335 99.504748934509137825444 467.40874307702284796
nan nan nan nan

