Time Pressure difference Time.1 Pressure.1 difference.1
(hr) (psi) (hr) (psi)
0.000200000000020850166 0.00332238927707070 0.000200000000020850166 0.00265241955646598
0.000399999999999067768 0.00663542135550759 0.000399999999999067768 0.00690699792730344
0.000600000000019917934 0.00994050513755762 0.000600000000019917934 0.01008888566329750
0.000799999999998135536 0.01323834440082129 0.000799999999998135536 0.01331831614551496
0.001007140329434719206 0.01664679394561787 0.001007140329434719206 0.01669815162941085
0.001267914553977789183 0.02092804724019959 0.001267914553977789183 0.02096898219230436
0.001596209851982166583 0.02630324037977838 0.001596209851982166583 0.02631936984204216
0.002009509145224797066 0.03304836473416753 0.002009509145224797066 0.03301585631801068
0.002529822128153114136 0.04150728789920168 0.002529822128153114136 0.04138762250780990
0.003184857364431081805 0.05210757029303667 0.003184857364431081805 0.05183962408919716
0.004009497869034817086 0.06537953031750554 0.004009497869034817086 0.06486772104940172
0.005047658755856332391 0.08197902063054199 0.005047658755856332391 0.08107564974769702
0.006354625877790454069 0.10271429730892818 0.006354625877790454069 0.10119350341555131
0.008000000000009777068 0.12857728838103921 0.008000000000009777068 0.12609690211976030
0.010071403294361402914 0.16077926308588372 0.010071403294361402914 0.15682511106540822
0.012679145539692626699 0.20079040175456100 0.012679145539692626699 0.19459558493824983
0.015962098519750611558 0.25038209921021548 0.015962098519750611558 0.24081156491909625
0.020095091452091651263 0.31166993835685169 0.020095091452091651263 0.29705565249705906
0.025298221281360611101 0.38715289515876417 0.025298221281360611101 0.36506271071391633
0.031848573644296607199 0.47974363206537590 0.031848573644296607199 0.44666220549948932
0.040094978690191851456 0.59278086630504667 0.040094978690191851456 0.54367515888819729
0.050476587558435426217 0.73001181744795529 0.050476587558435426217 0.65775374647684592
0.063546258777947173257 0.89553018615476221 0.063546258777947173257 0.79015043544814179
0.080000000000012505552 1.09365162049742759 0.080000000000012505552 0.94141121349608092
0.100714032943542974863 1.32870962108604518 0.100714032943542974863 1.11098345334195159
0.126791455396883634421 1.60474954980551843 0.126791455396883634421 1.29681444459566886
0.159620985197506115583 1.92513880814644001 0.159620985197506115583 1.49492604283168218
0.200950914520774404082 2.29206442017246248 0.200950914520774404082 1.69920895178856624
0.252982212813464002465 2.70604840223642418 0.252982212813464002465 1.90145792480326215
0.318485736442809752589 3.16546240741593099 0.318485736442809752589 2.09187207100911454
0.400949786901833249431 3.66627523222653418 0.400949786901833249431 2.26023607792679071
0.504765875584169521062 4.20211368554453824 0.504765875584169521062 2.39737725687630299
0.635462587779443310865 4.76468329648707289 0.635462587779443310865 2.49695913671033187
0.800000000000011368684 5.34465513364234557 0.800000000000011368684 2.55695536440132720
1.007140329435344483500 5.93276163403256618 1.007140329435344483500 2.58009056941283532
1.267914553968907398485 6.52087850767499866 1.267914553968907398485 2.57345661344977117
1.596209851975117999245 7.10293015698943275 1.596209851975117999245 2.54687627386823801
2.009509145207687197399 7.67520322438803504 2.009509145207687197399 2.51082531857685476
2.529822128134725289783 8.23627947835013785 2.529822128134725289783 2.47504026515724940
3.184857364427983839050 8.78668989731543881 3.184857364427983839050 2.44667094467701762
4.009497869018204596614 9.32799311291490163 4.009497869018204596614 2.42990379399200496
5.009497869018190385759 9.84476110734394183 5.009497869018190385759 2.42619346229536470
6.009497869018190385759 10.26351460203825816 6.009497869018190385759 2.43229464903185644
7.009497869018204596614 10.61568944843302020 7.009497869018204596614 2.44343474789055559
8.009497869018190385759 10.91955192365658611 8.009497869018190385759 2.45679042672393511
9.009497869018204596614 11.18666399495643837 9.009497869018204596614 2.47113267143544979
10.009497869018190385759 11.42482086125018270 10.009497869018190385759 2.48559029311640778
11.009497869018190385759 11.63953891411160591 11.009497869018190385759 2.49906204165108514
12.009497869018204596614 11.83486958757145757 12.009497869018204596614 2.51201147064413366
13.009497869018190385759 12.01386734929876354 13.009497869018190385759 2.52434940824110754
14.009497869018204596614 12.17893539574876272 14.009497869018204596614 2.53604438369962093
15.009497869018190385759 12.33196534832543811 15.009497869018190385759 2.54718623086783591
16.009497869018190385759 12.47448939840429283 16.009497869018190385759 2.55770310297651493
17.009497869018204596614 12.60776398633835171 17.009497869018204596614 2.56745130271137612
18.009497869018190385759 12.73282086249493616 18.009497869018190385759 2.57654137621253199
19.009497869018204596614 12.85051612108060759 19.009497869018204596614 2.58470249876850877
20.009497869018190385759 12.96158400712610970 20.009497869018190385759 2.59241046265216646
21.009497869018190385759 13.06664984758488934 21.009497869018190385759 2.59971089765063867
22.009497869018204596614 13.16624890564778383 22.009497869018204596614 2.60674790525909916
23.009497869018190385759 13.26089602530847245 23.009497869018190385759 2.61367061136073131
24.009497869018204596614 13.35102345773123744 24.009497869018204596614 2.62023962467378713
25.009497869018204596614 13.43700143603675734 25.009497869018204596614 2.62657810389946844
26.009497869018190385759 13.51915456739789967 26.009497869018190385759 2.63246040542479154
27.009497869018204596614 13.59777891436716502 27.009497869018204596614 2.63786778975352210
28.009497869018190385759 13.67311040706927905 28.009497869018190385759 2.64288855827180269
29.009497869018190385759 13.74534278288737710 29.009497869018190385759 2.64765618116548662
30.009497869018190385759 13.81468335403037351 30.009497869018190385759 2.65215072215299541
31.009497869018218807469 13.88133630250548478 31.009497869018218807469 2.65628191828448701
32.009497869018190385759 13.94547838633874548 32.009497869018190385759 2.66015973446671561
33.009497869018190385759 14.00726941404538195 33.009497869018190385759 2.66412219711589060
34.009497869018218807469 14.06685990950944998 34.009497869018218807469 2.66784321616145936
35.009497869018190385759 14.12437743725740269 35.009497869018190385759 2.67144262810453181
36.009497869018190385759 14.17994045310935469 36.009497869018190385759 2.67496013076728145
37.009497869018190385759 14.23365895011595228 37.009497869018190385759 2.67835220372436700
38.009497869018218807469 14.28563013402875370 38.009497869018218807469 2.68161900831009703
39.009497869018190385759 14.33594517316346106 39.009497869018190385759 2.68470552385024241
40.009497869018190385759 14.38468869831118901 40.009497869018190385759 2.68759529259761543
41.009497869018218807469 14.43194025241679235 41.009497869018218807469 2.69046911889420892
42.009497869018190385759 14.47777277638419591 42.009497869018190385759 2.69318856571041687
43.009497869018190385759 14.52225396630830190 43.009497869018190385759 2.69580024134159224
44.009497869018218807469 14.56545004159985446 44.009497869018218807469 2.69828184743106636
46.009497869018190385759 14.64822590284298798 46.009497869018190385759 2.70298449484024639
48.009497869018218807469 14.72653568307873151 48.009497869018218807469 2.70739144287212108
50.009497869018190385759 14.80075682995662945 50.009497869018190385759 2.71152109920405771
52.009497869018190385759 14.87122564575876815 52.009497869018190385759 2.71540811946428606
54.009497869018218807469 14.93824081774757140 54.009497869018218807469 2.71907850686720742
56.009497869018190385759 15.00206985876224230 56.009497869018190385759 2.72251929784933777
58.009497869018218807469 15.06294947836403431 58.009497869018218807469 2.72569825325004045
60.009497869018190385759 15.12109291532490651 60.009497869018190385759 2.72875378404126634
62.009497869018190385759 15.17669222211775271 62.009497869018190385759 2.73164508009512197
64.009497869018218807469 15.22992085098475634 64.009497869018218807469 2.73437435053994760
66.009497869018190385759 15.28093553384561432 66.009497869018190385759 2.73688219761152407
68.009497869018190385759 15.32987810680992702 68.009497869018190385759 2.73923384321420160
70.009497869018190385759 15.37687983613474607 70.009497869018190385759 2.74151067585542751
72.009497869018190385759 15.42206048726340484 72.009497869018190385759 2.74365987547038248
74.009497869018218807469 15.46552956629471964 74.009497869018218807469 2.74571452409136807
76.009497869018190385759 15.50738547045643934 76.009497869018190385759 2.74766765730982732
78.009497869018190385759 15.54771837780867649 78.009497869018190385759 2.74948582156908738
80.009497869018218807469 15.58661315233921663 80.009497869018218807469 2.75128854353644270
82.009497869018190385759 15.62415139171462464 82.009497869018190385759 2.75306475780638937
84.009497869018218807469 15.66040732232460719 84.009497869018218807469 2.75471888300451173
86.009497869018190385759 15.69544937154644693 86.009497869018190385759 2.75631487855546498
88.009497869018190385759 15.72933907962923428 88.009497869018190385759 2.75785774079243895
91.009497869018218807469 15.77813788397677364 91.009497869018218807469 2.76011271984110751
94.009497869018218807469 15.82465284780668391 94.009497869018218807469 2.76237496666448434
97.009497869018218807469 15.86905174309932320 97.009497869018218807469 2.76482927085708718
99.504748934509137825444 15.90448181372692282 99.504748934509137825444 2.76573220755634797
nan nan nan nan

