Time Pressure difference Time.1 Pressure.1 difference.1
(hr) (psi) (hr) (psi)
0.000200000000020850166 0.00664477855414139 0.000200000000020850166 0.00530483911293196
0.000399999999999067768 0.01327084271101517 0.000399999999999067768 0.01381399585460689
0.000600000000019917934 0.01988101027511525 0.000600000000019917934 0.02017777132659501
0.000799999999998135536 0.02647668880164258 0.000799999999998135536 0.02663663229102991
0.001007140329434719206 0.03329358789123573 0.001007140329434719206 0.03339630325882170
0.001267914553977789183 0.04185609448039918 0.001267914553977789183 0.04193796438460873
0.001596209851982166583 0.05260648075955677 0.001596209851982166583 0.05263873968408432
0.002009509145224797066 0.06609672946833506 0.002009509145224797066 0.06603171263602135
0.002529822128153114136 0.08301457579840336 0.002529822128153114136 0.08277524501561981
0.003184857364431081805 0.10421514058607334 0.003184857364431081805 0.10367924817839433
0.004009497869034817086 0.13075906063501108 0.004009497869034817086 0.12973544209880344
0.005047658755856332391 0.16395804126108399 0.005047658755856332391 0.16215129949539403
0.006354625877790454069 0.20542859461785637 0.006354625877790454069 0.20238700683110261
0.008000000000009777068 0.25715457676207842 0.008000000000009777068 0.25219380423952059
0.010071403294361402914 0.32155852617176744 0.010071403294361402914 0.31365022213081645
0.012679145539692626699 0.40158080350912201 0.012679145539692626699 0.38919116987649965
0.015962098519750611558 0.50076419842043096 0.015962098519750611558 0.48162312983819250
0.020095091452091651263 0.62333987671370339 0.020095091452091651263 0.59411130499411813
0.025298221281360611101 0.77430579031752833 0.025298221281360611101 0.73012542142783265
0.031848573644296607199 0.95948726413075180 0.031848573644296607199 0.89332441099897864
0.040094978690191851456 1.18556173261009334 0.040094978690191851456 1.08735031777639457
0.050476587558435426217 1.46002363489591058 0.050476587558435426217 1.31550749295369185
0.063546258777947173257 1.79106037230952442 0.063546258777947173257 1.58030087089628357
0.080000000000012505552 2.18730324099485518 0.080000000000012505552 1.88282242699216185
0.100714032943542974863 2.65741924217209036 0.100714032943542974863 2.22196690668390318
0.126791455396883634421 3.20949909961103685 0.126791455396883634421 2.59362888919133772
0.159620985197506115583 3.85027761629288001 0.159620985197506115583 2.98985208566336436
0.200950914520774404082 4.58412884034492496 0.200950914520774404082 3.39841790357713247
0.252982212813464002465 5.41209680447284835 0.252982212813464002465 3.80291584960652429
0.318485736442809752589 6.33092481483186198 0.318485736442809752589 4.18374414201822908
0.400949786901833249431 7.33255046445306835 0.400949786901833249431 4.52047215585358142
0.504765875584169521062 8.40422737108907647 0.504765875584169521062 4.79475451375260597
0.635462587779443310865 9.52936659297414579 0.635462587779443310865 4.99391827342066374
0.800000000000011368684 10.68931026728469114 0.800000000000011368684 5.11391072880265440
1.007140329435344483500 11.86552326806513236 1.007140329435344483500 5.16018113882567064
1.267914553968907398485 13.04175701534999732 1.267914553968907398485 5.14691322689954234
1.596209851975117999245 14.20586031397886551 1.596209851975117999245 5.09375254773647601
2.009509145207687197399 15.35040644877607008 2.009509145207687197399 5.02165063715370952
2.529822128134725289783 16.47255895670027570 2.529822128134725289783 4.95008053031449879
3.184857364427983839050 17.57337979463087763 3.184857364427983839050 4.89334188935403525
4.009497869018204596614 18.65598622582980326 4.009497869018204596614 4.85980758798400991
5.009497869018190385759 19.68952221468788366 5.009497869018190385759 4.85238692459072940
6.009497869018190385759 20.52702920407651632 6.009497869018190385759 4.86458929806371287
7.009497869018204596614 21.23137889686604041 7.009497869018204596614 4.88686949578111118
8.009497869018190385759 21.83910384731317222 8.009497869018190385759 4.91358085344787021
9.009497869018204596614 22.37332798991287675 9.009497869018204596614 4.94226534287089958
10.009497869018190385759 22.84964172250036540 10.009497869018190385759 4.97118058623281556
11.009497869018190385759 23.27907782822321181 11.009497869018190385759 4.99812408330217028
12.009497869018204596614 23.66973917514291514 12.009497869018204596614 5.02402294128826732
13.009497869018190385759 24.02773469859752709 13.009497869018190385759 5.04869881648221508
14.009497869018204596614 24.35787079149752543 14.009497869018204596614 5.07208876739924186
15.009497869018190385759 24.66393069665087623 15.009497869018190385759 5.09437246173567182
16.009497869018190385759 24.94897879680858566 16.009497869018190385759 5.11540620595302986
17.009497869018204596614 25.21552797267670343 17.009497869018204596614 5.13490260542275223
18.009497869018190385759 25.46564172498987233 18.009497869018190385759 5.15308275242506397
19.009497869018204596614 25.70103224216121518 19.009497869018204596614 5.16940499753701754
20.009497869018190385759 25.92316801425221939 20.009497869018190385759 5.18482092530433292
21.009497869018190385759 26.13329969516977869 21.009497869018190385759 5.19942179530127735
22.009497869018204596614 26.33249781129556766 22.009497869018204596614 5.21349581051819833
23.009497869018190385759 26.52179205061694489 23.009497869018190385759 5.22734122272146262
24.009497869018204596614 26.70204691546247489 24.009497869018204596614 5.24047924934757425
25.009497869018204596614 26.87400287207351468 25.009497869018204596614 5.25315620779893688
26.009497869018190385759 27.03830913479579934 26.009497869018190385759 5.26492081084958308
27.009497869018204596614 27.19555782873433003 27.009497869018204596614 5.27573557950704419
28.009497869018190385759 27.34622081413855810 28.009497869018190385759 5.28577711654360538
29.009497869018190385759 27.49068556577475420 29.009497869018190385759 5.29531236233097324
30.009497869018190385759 27.62936670806074702 30.009497869018190385759 5.30430144430599082
31.009497869018218807469 27.76267260501096956 31.009497869018218807469 5.31256383656897402
32.009497869018190385759 27.89095677267749096 32.009497869018190385759 5.32031946893343122
33.009497869018190385759 28.01453882809076390 33.009497869018190385759 5.32824439423178120
34.009497869018218807469 28.13371981901889995 34.009497869018218807469 5.33568643232291873
35.009497869018190385759 28.24875487451480538 35.009497869018190385759 5.34288525620906363
36.009497869018190385759 28.35988090621870938 36.009497869018190385759 5.34992026153456290
37.009497869018190385759 28.46731790023190456 37.009497869018190385759 5.35670440744873400
38.009497869018218807469 28.57126026805750740 38.009497869018218807469 5.36323801662019406
39.009497869018190385759 28.67189034632692213 39.009497869018190385759 5.36941104770048483
40.009497869018190385759 28.76937739662237803 40.009497869018190385759 5.37519058519523085
41.009497869018218807469 28.86388050483358469 41.009497869018218807469 5.38093823778841784
42.009497869018190385759 28.95554555276839181 42.009497869018190385759 5.38637713142083374
43.009497869018190385759 29.04450793261660380 43.009497869018190385759 5.39160048268318448
44.009497869018218807469 29.13090008319970892 44.009497869018218807469 5.39656369486213272
46.009497869018190385759 29.29645180568597596 46.009497869018190385759 5.40596898968049278
48.009497869018218807469 29.45307136615746302 48.009497869018218807469 5.41478288574424216
50.009497869018190385759 29.60151365991325889 50.009497869018190385759 5.42304219840811541
52.009497869018190385759 29.74245129151753630 52.009497869018190385759 5.43081623892857213
54.009497869018218807469 29.87648163549514280 54.009497869018218807469 5.43815701373441485
56.009497869018190385759 30.00413971752448461 56.009497869018190385759 5.44503859569867554
58.009497869018218807469 30.12589895672806861 58.009497869018218807469 5.45139650650008090
60.009497869018190385759 30.24218583064981303 60.009497869018190385759 5.45750756808253268
62.009497869018190385759 30.35338444423550541 62.009497869018190385759 5.46329016019024394
64.009497869018218807469 30.45984170196951268 64.009497869018218807469 5.46874870107989519
66.009497869018190385759 30.56187106769122863 66.009497869018190385759 5.47376439522304814
68.009497869018190385759 30.65975621361985404 68.009497869018190385759 5.47846768642840320
70.009497869018190385759 30.75375967226949214 70.009497869018190385759 5.48302135171085503
72.009497869018190385759 30.84412097452680968 72.009497869018190385759 5.48731975094076496
74.009497869018218807469 30.93105913258943929 74.009497869018218807469 5.49142904818273614
76.009497869018190385759 31.01477094091287867 76.009497869018190385759 5.49533531461965463
78.009497869018190385759 31.09543675561735299 78.009497869018190385759 5.49897164313817477
80.009497869018218807469 31.17322630467843325 80.009497869018218807469 5.50257708707288540
82.009497869018190385759 31.24830278342924927 82.009497869018190385759 5.50612951561277875
84.009497869018218807469 31.32081464464921439 84.009497869018218807469 5.50943776600902346
86.009497869018190385759 31.39089874309289385 86.009497869018190385759 5.51262975711092995
88.009497869018190385759 31.45867815925846855 88.009497869018190385759 5.51571548158487790
91.009497869018218807469 31.55627576795354727 91.009497869018218807469 5.52022543968221502
94.009497869018218807469 31.64930569561336782 94.009497869018218807469 5.52474993332896869
97.009497869018218807469 31.73810348619864641 97.009497869018218807469 5.52965854171417437
99.504748934509137825444 31.80896362745384565 99.504748934509137825444 5.53146441511269593
nan nan nan nan

