Time Pressure difference Time.1 Pressure.1 difference.1
(hr) (psi) (hr) (psi)
0.000200000000020850166 0.21014112177472161 0.000200000000020850166 0.16776553694647323
0.000399999999999067768 0.41969040073585484 0.000399999999999067768 0.43686761890194292
0.000600000000019917934 0.62873694995051965 0.000600000000019917934 0.63812201820356718
0.000799999999998135536 0.83732528335194656 0.000799999999998135536 0.84238349620382091
0.001007140329434719206 1.05290971706033010 0.001007140329434719206 1.05615809056023613
0.001267914553977789183 1.32369898794262442 0.001267914553977789183 1.32628812366325088
0.001596209851982166583 1.66367995402098301 0.001596209851982166583 1.66470014250916676
0.002009509145224797066 2.09030906943609640 0.002009509145224797066 2.08825291211417552
0.002529822128153114136 2.62533595962450628 0.002529822128153114136 2.61776712361897657
0.003184857364431081805 3.29580382103456904 0.003184857364431081805 3.27885622364172047
0.004009497869034817086 4.13525529258222502 0.004009497869034817086 4.10288335637465895
0.005047658755856332391 5.18517305488178160 0.005047658755856332391 5.12803484654183528
0.006354625877790454069 6.49667930478970757 0.006354625877790454069 6.40048909103362007
0.008000000000009777068 8.13251349010072921 0.008000000000009777068 7.97562905907483977
0.010071403294361402914 10.16928839018214603 0.010071403294361402914 9.91918827488707144
0.012679145539692626699 12.69999291097598260 0.012679145539692626699 12.30817074734430072
0.015962098519750611558 15.83666777504612888 0.015962098519750611558 15.23133148113283752
0.020095091452091651263 19.71312360107086903 0.020095091452091651263 18.78877002043898514
0.025298221281360611101 24.48742061879183396 0.025298221281360611101 23.09021645265520917
0.031848573644296607199 30.34378472813502725 0.031848573644296607199 28.25138449784270023
0.040094978690191851456 37.49338979379420067 0.040094978690191851456 34.38745379967848237
0.050476587558435426217 46.17324745358317273 0.050476587558435426217 41.60292446466050365
0.063546258777947173257 56.64228427428870560 0.063546258777947173257 49.97701504209496903
0.080000000000012505552 69.17346499646230029 0.080000000000012505552 59.54425925362711780
0.100714032943542974863 84.04088353369235165 0.100714032943542974863 70.26970342387842550
0.126791455396883634421 101.50040902519904762 0.126791455396883634421 82.02351362067604157
0.159620985197506115583 121.76502961526232127 0.159620985197506115583 94.55407220910390720
0.200950914520774404082 144.97307457590824242 0.200950914520774404082 107.47496620062682382
0.252982212813464002465 171.15756144145385065 0.252982212813464002465 120.26721374380633733
0.318485736442809752589 200.21549726905763578 0.318485736442809752589 132.31090849132647236
0.400949786901833249431 231.89190843832827227 0.400949786901833249431 142.95993192886950851
0.504765875584169521062 265.78369061069201962 0.504765875584169521062 151.63411149742617567
0.635462587779443310865 301.36621850280738499 0.635462587779443310865 157.93266539692848482
0.800000000000011368684 338.04943720287838005 0.800000000000011368684 161.72742679838395929
1.007140329435344483500 375.24717335255979833 1.007140329435344483500 163.19072851536185453
1.267914553968907398485 412.44556561044367982 1.267914553968907398485 162.77113080069804596
1.596209851975117999245 449.26033242958163783 1.596209851975117999245 161.08992432216604129
2.009509145207687197399 485.45660394254321091 2.009509145207687197399 158.80970139998606783
2.529822128134725289783 520.94467700564621282 2.529822128134725289783 156.54629677119604025
3.184857364427983839050 555.75813600520143609 3.184857364427983839050 154.75193725082135643
4.009497869018204596614 589.99556439186756052 4.009497869018204596614 153.69141496999432661
5.009497869018190385759 622.68114003950438473 5.009497869018190385759 153.45673649018181095
6.009497869018190385759 649.16729857891982647 6.009497869018190385759 153.84263655126491699
7.009497869018204596614 671.44235761338848079 7.009497869018204596614 154.54724780407764229
8.009497869018190385759 690.66165917127909779 8.009497869018190385759 155.39199449028888012
9.009497869018204596614 707.55649768099476660 9.009497869018204596614 156.29914146829219135
10.009497869018190385759 722.61991947407398129 10.009497869018190385759 157.21358603961277822
11.009497869018190385759 736.20083631755915121 11.009497869018190385759 158.06567413443113423
12.009497869018204596614 748.55550141389460350 12.009497869018204596614 158.88472551824145285
13.009497869018190385759 759.87710984314685447 13.009497869018190385759 159.66510007125003767
14.009497869018204596614 770.31766378110921778 14.009497869018204596614 160.40480726900102582
15.009497869018190385759 779.99680828158398072 15.009497869018190385759 161.10952910239060998
16.009497869018190385759 789.01145444907160709 16.009497869018190385759 161.77472126326458124
17.009497869018204596614 797.44107213590075389 17.009497869018204596614 162.39129489649454285
18.009497869018190385759 805.35091955280483944 18.009497869018190385759 162.96624204544266945
19.009497869018204596614 812.79514465834847670 19.009497869018204596614 163.48243304710820212
20.009497869018190385759 819.82018845072639124 20.009497869018190385759 163.96996176274953427
21.009497869018190385759 826.46560285974419457 21.009497869018190385759 164.43171427640288584
22.009497869018204596614 832.76524328222240001 22.009497869018204596614 164.87680500763801206
23.009497869018190385759 838.75167360076090972 23.009497869018190385759 165.31466616856624796
24.009497869018204596614 844.45223370150074516 24.009497869018204596614 165.73015626061703642
25.009497869018204596614 849.89034082932494130 25.009497869018204596614 166.13106507164135905
26.009497869018190385759 855.08652638791704703 26.009497869018190385759 166.50312064311808058
27.009497869018204596614 860.05951633372319520 27.009497869018204596614 166.84513770191028925
28.009497869018190385759 864.82423324713192869 28.009497869018190385759 167.16270131069151716
29.009497869018190385759 869.39293101762655169 29.009497869018190385759 167.46425345871702461
30.009497869018190385759 873.77872214242108839 30.009497869018190385759 167.74853317617694870
31.009497869018218807469 877.99452113347183513 31.009497869018218807469 168.00983133149381388
32.009497869018190385759 882.05150793592565606 32.009497869018190385759 168.25510320501976480
33.009497869018190385759 885.95979043837041900 33.009497869018190385759 168.50572896758006891
34.009497869018218807469 889.72888927647261426 34.009497869018218807469 168.74108342221231283
35.009497869018190385759 893.36687290653071614 35.009497869018190385759 168.96874622761166052
36.009497869018190385759 896.88123365916669627 36.009497869018190385759 169.19122827103055329
37.009497869018190385759 900.27892859483404209 37.009497869018190385759 169.40577688556621183
38.009497869018218807469 903.56610597731867074 38.009497869018218807469 169.61240227561364691
39.009497869018190385759 906.74853220258887632 39.009497869018190385759 169.80762438352783761
40.009497869018190385759 909.83156016818270473 40.009497869018190385759 169.99040225679917171
41.009497869018218807469 912.82022096536206845 41.009497869018218807469 170.17217177005869644
42.009497869018190385759 915.71912810630033164 42.009497869018190385759 170.34417678118387585
43.009497869018190385759 918.53256336900005863 43.009497869018190385759 170.50936526485568834
44.009497869018218807469 921.26471513119076917 44.009497869018218807469 170.66632685001493996
46.009497869018190385759 926.50028835481896294 46.009497869018190385759 170.96376929864558747
48.009497869018218807469 931.45338195472982079 48.009497869018218807469 171.24250876166166790
50.009497869018190385759 936.14786949475683286 50.009497869018190385759 171.50370952465664232
52.009497869018190385759 940.60502209424214470 52.009497869018190385759 171.74956355611610093
54.009497869018218807469 944.84373172253378925 54.009497869018218807469 171.98171555935084598
56.009497869018190385759 948.88091856671178448 56.009497869018190385759 172.19934558897062971
58.009497869018218807469 952.73155450652507170 58.009497869018218807469 172.40041451806504824
60.009497869018190385759 956.40912689430035698 60.009497869018190385759 172.59367684061010095
62.009497869018190385759 959.92578304894789198 62.009497869018190385759 172.77655131601645166
64.009497869018218807469 963.29249382478576536 64.009497869018218807469 172.94917767165171085
66.009497869018190385759 966.51917251573513568 66.009497869018190385759 173.10779899892887101
68.009497869018190385759 969.61479025572793944 68.009497869018190385759 173.25654058329823215
70.009497869018190385759 972.58764963552255267 70.009497869018190385759 173.40055024785579008
72.009497869018190385759 975.44532581941052740 72.009497869018190385759 173.53648712350167216
74.009497869018218807469 978.19474506814106007 74.009497869018218807469 173.66644364877902262
76.009497869018190385759 980.84213100636975469 76.009497869018190385759 173.78997932484656985
78.009497869018190385759 983.39318739639884370 78.009497869018190385759 173.90497821424477820
80.009497869018218807469 985.85328188545554440 80.009497869018218807469 174.01900037868000481
82.009497869018190385759 988.22757552595010111 82.009497869018190385759 174.13134593125414540
84.009497869018218807469 990.52076313703139476 84.009497869018218807469 174.23596935003533304
86.009497869018190385759 992.73717275031265217 86.009497869018190385759 174.33691606863314405
88.009497869018190385759 994.88069678654903782 88.009497869018190385759 174.43450210512179410
91.009497869018218807469 997.96722116153080151 91.009497869018218807469 174.57712952995004230
94.009497869018218807469 1000.90929262377278519 94.009497869018218807469 174.72021664152862286
97.009497869018218807469 1003.71752275103222019 97.009497869018218807469 174.87545138171074655
99.504748934509137825444 1005.95847471822787611 99.504748934509137825444 174.93256212793900772
nan nan nan nan

