Time Pressure difference Time.1 Pressure.1 difference.1
(hr) (psi) (hr) (psi)
0.000200000000020850166 0.27658890731613556 0.000200000000020850166 0.22081392807579284
0.000399999999999067768 0.55239882784600647 0.000399999999999067768 0.57500757744801179
0.000600000000019917934 0.82754705270167217 0.000600000000019917934 0.83989973146951724
0.000799999999998135536 1.10209217136837245 0.000799999999998135536 1.10874981911412007
0.001007140329434719206 1.38584559597268719 0.001007140329434719206 1.39012112314845315
0.001267914553977789183 1.74225993274661617 0.001267914553977789183 1.74566776750933839
0.001596209851982166583 2.18974476161655041 0.001596209851982166583 2.19108753935000999
0.002009509145224797066 2.75127636411944687 0.002009509145224797066 2.74857003847438897
0.002529822128153114136 3.45548171760853995 0.002529822128153114136 3.44551957377517448
0.003184857364431081805 4.33795522689530344 0.003184857364431081805 4.31564870542566315
0.004009497869034817086 5.44284589893233672 0.004009497869034817086 5.40023777736269306
0.005047658755856332391 6.82475346749262091 0.005047658755856332391 6.74954784149577680
0.006354625877790454069 8.55096525096826987 0.006354625877790454069 8.42435915934464674
0.008000000000009777068 10.70405925772151434 0.008000000000009777068 10.49756710147004490
0.010071403294361402914 13.38487365189982015 0.010071403294361402914 13.05569049619523447
0.012679145539692626699 16.71580094606720479 0.012679145539692626699 16.20008244610929538
0.015962098519750611558 20.84430975925043583 0.015962098519750611558 20.04756277951476306
0.020095091452091651263 25.94652236820790137 0.020095091452091651263 24.72988307038016487
0.025298221281360611101 32.23047852196712171 0.025298221281360611101 30.39147066693353239
0.031848573644296607199 39.93865736944254508 0.031848573644296607199 37.18462860783249369
0.040094978690191851456 49.34900711989513411 0.040094978690191851456 45.26095697744242585
0.050476587558435426217 60.77348380254228033 0.050476587558435426217 54.75799939419742657
0.063546258777947173257 74.55288799738394800 0.063546258777947173257 65.78002375105781141
0.080000000000012505552 91.04649740641083611 0.080000000000012505552 78.37248352354873759
0.100714032943542974863 110.61507595541326054 0.100714032943542974863 92.48937249071747146
0.126791455396883634421 133.59540002130938774 0.126791455396883634421 107.95980251258943383
0.159620985197506115583 160.26780577819113205 0.159620985197506115583 124.45259306573754543
0.200950914520774404082 190.81436297935749735 0.200950914520774404082 141.45914523639814320
0.252982212813464002465 225.27852948618232176 0.252982212813464002465 158.29637223987157313
0.318485736442809752589 263.52474541737626623 0.318485736442809752589 174.14834991150877386
0.400949786901833249431 305.21741308285896821 0.400949786901833249431 188.16465348740533159
0.504765875584169521062 349.82596432158277366 0.504765875584169521062 199.58165663495222475
0.635462587779443310865 396.65988443254883578 0.635462587779443310865 207.87184813113515247
0.800000000000011368684 444.94253987572528786 0.800000000000011368684 212.86653408641049623
1.007140329435344483500 493.90240603321109347 1.007140329435344483500 214.79253990361854676
1.267914553968907398485 542.86313576394366009 1.267914553968907398485 214.24026306969344091
1.596209851975117999245 591.31893556937029643 1.596209851975117999245 212.02744979953081383
2.009509145207687197399 638.96066843030394011 2.009509145207687197399 209.02620777152316123
2.529822128134725289783 685.67026657264898404 2.529822128134725289783 206.04710207434101221
3.184857364427983839050 731.49193395151019104 3.184857364427983839050 203.68535614436171954
4.009497869018204596614 776.55542665016560022 4.009497869018204596614 202.28949084983443640
5.009497869018190385759 819.57636218638322134 5.009497869018190385759 201.98060573608913160
6.009497869018190385759 854.43759061968501101 6.009497869018190385759 202.48852953190205994
7.009497869018204596614 883.75614658204892748 7.009497869018204596614 203.41594276188877188
8.009497869018190385759 909.05269764441084135 8.009497869018190385759 204.52780302476756447
9.009497869018204596614 931.28977758012354116 9.009497869018204596614 205.72179489700118893
10.009497869018190385759 951.11633669907769217 10.009497869018190385759 206.92539190194094090
11.009497869018190385759 968.99161459979131905 11.009497869018190385759 208.04691496745286372
12.009497869018204596614 985.25289316532371231 12.009497869018204596614 209.12495493112410827
13.009497869018190385759 1000.15445682912206848 13.009497869018190385759 210.15208823607221689
14.009497869018204596614 1013.89637169608442946 14.009497869018204596614 211.12569494299344797
15.009497869018190385759 1026.63611524809266484 15.009497869018190385759 212.05325371974734594
16.009497869018190385759 1038.50124241715752760 16.009497869018190385759 212.92878332279488518
17.009497869018204596614 1049.59635186266768869 17.009497869018204596614 213.74032095072203674
18.009497869018190385759 1060.00733680270354853 18.009497869018190385759 214.49706956969330918
19.009497869018204596614 1069.80546707996063560 19.009497869018204596614 215.17648302247837933
20.009497869018190385759 1079.05186859324862780 20.009497869018190385759 215.81817101579284213
21.009497869018190385759 1087.79859981144204539 21.009497869018190385759 216.42593222941567888
22.009497869018204596614 1096.09022139517787764 22.009497869018204596614 217.01176311281997755
23.009497869018190385759 1103.96959410693034442 23.009497869018190385759 217.58807839578085463
24.009497869018204596614 1111.47270285612557927 24.009497869018204596614 218.13494875409278961
25.009497869018204596614 1118.63036955005986783 25.009497869018204596614 218.66262714963076519
26.009497869018190385759 1125.46961773587509015 26.009497869018190385759 219.15232875161390780
27.009497869018204596614 1132.01509462106650972 27.009497869018204596614 219.60249349698071342
28.009497869018190385759 1138.28644138851745993 28.009497869018190385759 220.02047247612759406
29.009497869018190385759 1144.29978667537420733 29.009497869018190385759 220.41737708202677481
30.009497869018190385759 1150.07238922302872197 30.009497869018190385759 220.79154761923686578
31.009497869018218807469 1155.62124718358154496 31.009497869018218807469 221.13546969718353807
32.009497869018190385759 1160.96107566270052303 32.009497869018190385759 221.45829789435407520
33.009497869018190385759 1166.10517871927800115 33.009497869018190385759 221.78817290989786670
34.009497869018218807469 1171.06608746666165644 34.009497869018218807469 222.09794774544150187
35.009497869018190385759 1175.85442165167887651 35.009497869018190385759 222.39759878970227192
36.009497869018190385759 1180.48004272135381143 36.009497869018190385759 222.69043088637619121
37.009497869018190385759 1184.95210759715291715 37.009497869018190385759 222.97282096005358198
38.009497869018218807469 1189.27870865789373056 38.009497869018218807469 223.24478244181560171
39.009497869018190385759 1193.46743566585837470 39.009497869018190385759 223.50173486053267879
40.009497869018190385759 1197.52533413440642107 40.009497869018190385759 223.74230810875147313
41.009497869018218807469 1201.45902601369789409 41.009497869018218807469 223.98155414794288731
42.009497869018190385759 1205.27458363398432084 42.009497869018190385759 224.20794809539219727
43.009497869018190385759 1208.97764269516619606 43.009497869018190385759 224.42537009168754025
44.009497869018218807469 1212.57371596318785123 44.009497869018218807469 224.63196379863626362
46.009497869018190385759 1219.46480641167886461 46.009497869018190385759 225.02345919545052766
48.009497869018218807469 1225.98409561630455755 48.009497869018218807469 225.39033761910408771
50.009497869018190385759 1232.16300609388940757 50.009497869018190385759 225.73413150873781774
52.009497869018190385759 1238.02953500941748644 52.009497869018190385759 226.05772594540184173
54.009497869018218807469 1243.60854807748523854 54.009497869018218807469 226.36328569669498734
56.009497869018190385759 1248.92231574195670873 56.009497869018190385759 226.64973154595736560
58.009497869018218807469 1253.99054407380572229 58.009497869018218807469 226.91437958306588030
60.009497869018190385759 1258.83098520079852278 60.009497869018190385759 227.16875252143543662
62.009497869018190385759 1263.45962749130285374 62.009497869018190385759 227.40945291791888394
64.009497869018218807469 1267.89091084448091351 64.009497869018218807469 227.63666468245065744
66.009497869018190385759 1272.13788319264745041 66.009497869018190385759 227.84544295115935597
68.009497869018190385759 1276.21235239192651534 68.009497869018190385759 228.04121744758228374
70.009497869018190385759 1280.12524635821773700 70.009497869018190385759 228.23076376496433681
72.009497869018190385759 1283.88653556467852468 72.009497869018190385759 228.40968463290931822
74.009497869018218807469 1287.50533639403556663 74.009497869018218807469 228.58073413060637336
76.009497869018190385759 1290.98984041549874746 76.009497869018190385759 228.74333247104311795
78.009497869018190385759 1294.34755495257240909 78.009497869018190385759 228.89469464562654366
80.009497869018218807469 1297.58554493223982718 80.009497869018218807469 229.04477124940885346
82.009497869018190385759 1300.71060336024265780 82.009497869018190385759 229.19264108738192931
84.009497869018218807469 1303.72890958352354573 84.009497869018218807469 229.33034701012559253
86.009497869018190385759 1306.64616018124161201 86.009497869018190385759 229.46321363974246310
88.009497869018190385759 1309.46747837913380863 88.009497869018190385759 229.59165692097056422
91.009497869018218807469 1313.52997884106639503 91.009497869018218807469 229.77938392677219781
94.009497869018218807469 1317.40234957990651310 94.009497869018218807469 229.96771597481830440
97.009497869018218807469 1321.09855761301878374 97.009497869018218807469 230.17203679885250267
99.504748934509137825444 1324.04811099276616915 99.504748934509137825444 230.24720627906597770
nan nan nan nan

