Time Pressure difference Time.1 Pressure.1 difference.1
(hr) (psi) (hr) (psi)
0.000200000000020850166 0.26994412876199420 0.000200000000020850166 0.21550908896286086
0.000399999999999067768 0.53912798513499127 0.000399999999999067768 0.56119358159340493
0.000600000000019917934 0.80766604242655693 0.000600000000019917934 0.81972196014292220
0.000799999999998135536 1.07561548256672967 0.000799999999998135536 1.08211318682308999
0.001007140329434719206 1.35255200808145148 0.001007140329434719206 1.35672481988963134
0.001267914553977789183 1.70040383826621677 0.001267914553977789183 1.70372980312472966
0.001596209851982166583 2.13713828085699387 0.001596209851982166583 2.13844879966592583
0.002009509145224797066 2.68517963465111187 0.002009509145224797066 2.68253832583836749
0.002529822128153114136 3.37246714181013640 0.002529822128153114136 3.36274432875955487
0.003184857364431081805 4.23374008630923004 0.003184857364431081805 4.21196945724727012
0.004009497869034817086 5.31208683829732564 0.004009497869034817086 5.27050233526388912
0.005047658755856332391 6.66079542623153742 0.005047658755856332391 6.58739654200038149
0.006354625877790454069 8.34553665635041497 0.006354625877790454069 8.22197215251354407
0.008000000000009777068 10.44690468095943459 0.008000000000009777068 10.24537329723052359
0.010071403294361402914 13.06331512572805131 0.010071403294361402914 12.74204027406441853
0.012679145539692626699 16.31422014255807795 0.012679145539692626699 15.81089127623279822
0.015962098519750611558 20.34354556083000887 0.015962098519750611558 19.56593964967657229
0.020095091452091651263 25.32318249149419742 0.020095091452091651263 24.13577176538604618
0.025298221281360611101 31.45617273164959116 0.025298221281360611101 29.66134524550570362
0.031848573644296607199 38.97917010531178761 0.031848573644296607199 36.29130419683350794
0.040094978690191851456 48.16344538728503721 0.040094978690191851456 44.17360665966603506
0.050476587558435426217 59.31346016764636175 0.050476587558435426217 53.44249190124373428
0.063546258777947173257 72.76182762507443158 0.063546258777947173257 64.19972288016151651
0.080000000000012505552 88.85919416541598537 0.080000000000012505552 76.48966109655658840
0.100714032943542974863 107.95765671324117818 0.100714032943542974863 90.26740558403356829
0.126791455396883634421 130.38590092169837931 0.126791455396883634421 105.36617362339808324
0.159620985197506115583 156.41752816189824671 0.159620985197506115583 121.46274098007418729
0.200950914520774404082 186.23023413901256617 0.200950914520774404082 138.06072733282101694
0.252982212813464002465 219.86643268170948318 0.252982212813464002465 154.49345639026506660
0.318485736442809752589 257.19382060254440603 0.318485736442809752589 169.96460576949056076
0.400949786901833249431 297.88486261840591851 0.400949786901833249431 183.64418133155177770
0.504765875584169521062 341.42173695049370963 0.504765875584169521062 194.78690212119960279
0.635462587779443310865 387.13051783957467933 0.635462587779443310865 202.87792985771449139
0.800000000000011368684 434.25322960844056297 0.800000000000011368684 207.75262335760785959
1.007140329435344483500 482.03688276514594691 1.007140329435344483500 209.63235876479288322
1.267914553968907398485 529.82137874859358817 1.267914553968907398485 209.09334984279391279
1.596209851975117999245 577.11307525539143626 1.596209851975117999245 206.93369725179434226
2.009509145207687197399 623.61026198152785582 2.009509145207687197399 204.00455713436946326
2.529822128134725289783 669.19770761594872965 2.529822128134725289783 201.09702154402651786
3.184857364427983839050 713.91855415687928144 3.184857364427983839050 198.79201425500770029
4.009497869018204596614 757.89944042433580762 4.009497869018204596614 197.42968326185041406
5.009497869018190385759 799.88683997169539452 5.009497869018190385759 197.12821881149838532
6.009497869018190385759 833.91056141560841297 6.009497869018190385759 197.62394023383836839
7.009497869018204596614 862.52476768518295103 7.009497869018204596614 198.52907326610764471
8.009497869018190385759 887.21359379709770110 8.009497869018190385759 199.61422217131971024
9.009497869018204596614 908.91644959021061823 9.009497869018204596614 200.77952955413030622
10.009497869018190385759 928.26669497657735519 10.009497869018190385759 201.95421131570810758
11.009497869018190385759 945.71253677156812500 11.009497869018190385759 203.04879088415066235
12.009497869018204596614 961.58315399018090375 12.009497869018204596614 204.10093198983585694
13.009497869018190385759 976.12672213052451298 13.009497869018190385759 205.10338941959000181
14.009497869018204596614 989.53850090458695377 14.009497869018204596614 206.05360617559418301
15.009497869018190385759 1001.97218455144195559 15.009497869018190385759 206.95888125801164392
16.009497869018190385759 1013.55226362034875365 16.009497869018190385759 207.81337711684187752
17.009497869018204596614 1024.38082388999100658 17.009497869018204596614 208.60541834529928451
18.009497869018190385759 1034.54169507771371173 18.009497869018190385759 209.34398681726824520
19.009497869018204596614 1044.10443483779931739 19.009497869018204596614 210.00707802494136445
20.009497869018190385759 1053.12870057899635867 20.009497869018190385759 210.63335009048850566
21.009497869018190385759 1061.66530011627219210 21.009497869018190385759 211.22651043411440241
22.009497869018204596614 1069.75772358388257999 22.009497869018204596614 211.79826730230178100
23.009497869018190385759 1077.44780205631332137 23.009497869018190385759 212.36073717305941955
24.009497869018204596614 1084.77065594066311860 24.009497869018204596614 212.89446950474521714
25.009497869018204596614 1091.75636667798653434 25.009497869018204596614 213.40947094183181321
26.009497869018190385759 1098.43130860107930857 26.009497869018190385759 213.88740794076431939
27.009497869018204596614 1104.81953679233220100 27.009497869018204596614 214.32675791747368521
28.009497869018190385759 1110.94022057437905460 28.009497869018190385759 214.73469535958400911
29.009497869018190385759 1116.80910110959939630 29.009497869018190385759 215.12206471969579979
30.009497869018190385759 1122.44302251496787903 30.009497869018190385759 215.48724617493087408
31.009497869018218807469 1127.85857457857059671 31.009497869018218807469 215.82290586061455429
32.009497869018190385759 1133.07011889002319549 32.009497869018190385759 216.13797842542064132
33.009497869018190385759 1138.09063989118726568 33.009497869018190385759 216.45992851566609261
34.009497869018218807469 1142.93236764764264990 34.009497869018218807469 216.76226131311858580
35.009497869018190385759 1147.60566677716406048 35.009497869018190385759 217.05471353349321362
36.009497869018190385759 1152.12016181513513402 36.009497869018190385759 217.34051062484161321
37.009497869018190385759 1156.48478969692109786 37.009497869018190385759 217.61611655260483644
38.009497869018218807469 1160.70744838983637237 38.009497869018218807469 217.88154442519538634
39.009497869018190385759 1164.79554531953135665 39.009497869018190385759 218.13232381283219752
40.009497869018190385759 1168.75595673778411765 40.009497869018190385759 218.36711752355626004
41.009497869018218807469 1172.59514550886433426 41.009497869018218807469 218.60061591015445970
42.009497869018190385759 1176.31903808121592192 42.009497869018190385759 218.82157096397136797
43.009497869018190385759 1179.93313476254957095 43.009497869018190385759 219.03376960900436643
44.009497869018218807469 1183.44281587998830219 44.009497869018218807469 219.23540010377413978
46.009497869018190385759 1190.16835460599281760 46.009497869018190385759 219.61749020577002511
48.009497869018218807469 1196.53102425014685650 48.009497869018218807469 219.97555473335984288
50.009497869018190385759 1202.56149243397612736 50.009497869018190385759 220.31108931032966325
52.009497869018190385759 1208.28708371790003184 52.009497869018190385759 220.62690970647324207
54.009497869018218807469 1213.73206644199012771 54.009497869018218807469 220.92512868296060446
56.009497869018190385759 1218.91817602443211399 56.009497869018190385759 221.20469295025870338
58.009497869018218807469 1223.86464511707777092 58.009497869018218807469 221.46298307656579141
60.009497869018190385759 1228.58879937014853567 60.009497869018190385759 221.71124495335288884
62.009497869018190385759 1233.10624304706720977 62.009497869018190385759 221.94616275772864356
64.009497869018218807469 1237.43106914251143280 64.009497869018218807469 222.16791598137075425
66.009497869018190385759 1241.57601212495615073 66.009497869018190385759 222.37167855593631316
68.009497869018190385759 1245.55259617830665775 68.009497869018190385759 222.56274976115386721
70.009497869018190385759 1249.37148668594795708 70.009497869018190385759 222.74774241325346225
72.009497869018190385759 1253.04241459015179316 72.009497869018190385759 222.92236488196857636
74.009497869018218807469 1256.57427726144601365 74.009497869018218807469 223.08930508242363544
76.009497869018190385759 1259.97506947458577997 76.009497869018190385759 223.24799715642348019
78.009497869018190385759 1263.25211819695505255 78.009497869018190385759 223.39572300248838133
80.009497869018218807469 1266.41231862756148985 80.009497869018218807469 223.54219416233596007
82.009497869018190385759 1269.46230057681327708 82.009497869018190385759 223.68651157176915945
84.009497869018218807469 1272.40809493887445569 84.009497869018218807469 223.82090924411656374
86.009497869018190385759 1275.25526143814863644 86.009497869018190385759 223.95058388263151983
88.009497869018190385759 1278.00880021987541113 88.009497869018190385759 224.07594143938567299
91.009497869018218807469 1281.97370307311280158 91.009497869018218807469 224.25915848708999079
94.009497869018218807469 1285.75304388429299252 94.009497869018218807469 224.44296604148934193
97.009497869018218807469 1289.36045412682005917 97.009497869018218807469 224.64237825713831853
99.504748934509137825444 1292.23914736531241942 99.504748934509137825444 224.71574186395326933
nan nan nan nan

