Time Pressure difference Time.1 Pressure.1 difference.1
(hr) (psi) (hr) (psi)
0.000200000000020850166 0.50749496207254907 0.000200000000020850166 0.40515708725017846
0.000399999999999067768 1.01356061205378389 0.000399999999999067768 1.05504393339560121
0.000600000000019917934 1.51841215976192689 0.000600000000019917934 1.54107728506869357
0.000799999999998135536 2.02215710722545161 0.000799999999998135536 2.03437279122740966
0.001007140329434719206 2.54279777519312900 0.001007140329434719206 2.55064266139250728
0.001267914553977789183 3.19675921594048784 0.001267914553977789183 3.20301202987449196
0.001596209851982166583 4.01781996801114794 0.001596209851982166583 4.02028374337194006
0.002009509145224797066 5.04813771314409010 0.002009509145224797066 5.04317205257613121
0.002529822128153114136 6.34023822660305658 0.002529822128153114136 6.32195933806796262
0.003184857364431081805 7.95943136226135195 0.003184857364431081805 7.91850257962486737
0.004009497869034817086 9.98672325599897093 0.004009497869034817086 9.90854439029611278
0.005047658755856332391 12.52229540131529006 0.005047658755856332391 12.38430549896071753
0.006354625877790454069 15.68960891393877866 0.006354625877790454069 15.45730764672546265
0.008000000000009777068 19.64018080020374057 0.008000000000009777068 19.26130179879338300
0.010071403294361402914 24.55903243636873867 0.010071403294361402914 23.95503571524110598
0.012679145539692626699 30.67073386800919366 0.012679145539692626699 29.72447559931765682
0.015962098519750611558 38.24586565436041496 0.015962098519750611558 36.78396654139195476
0.020095091452091651263 47.60758308400909300 0.020095091452091651263 45.37525091892576512
0.025298221281360611101 59.13760473550122754 0.025298221281360611101 55.76332906155072067
0.031848573644296607199 73.28083979798617520 0.031848573644296607199 68.22765189004699948
0.040094978690191851456 90.54727732809587337 0.040094978690191851456 83.04638052017214989
0.050476587558435426217 111.50930511517516663 0.050476587558435426217 100.47188477433822129
0.063546258777947173257 136.79223593513992796 0.063546258777947173257 120.69547901470366469
0.080000000000012505552 167.05528503098204851 0.080000000000012505552 143.80056286152637313
0.100714032943542974863 202.96039462089342464 0.100714032943542974863 169.70272249798310327
0.126791455396883634421 245.12549373279293263 0.126791455396883634421 198.08840641198841581
0.159620985197506115583 294.06495294436865606 0.159620985197506115583 228.34995304253945392
0.200950914520774404082 350.11284018134364260 0.200950914520774404082 259.55416738570346524
0.252982212813464002465 413.34889344161376812 0.252982212813464002465 290.44769801369830020
0.318485736442809752589 483.52438273278346514 0.318485736442809752589 319.53345884664224741
0.400949786901833249431 560.02354172260311316 0.400949786901833249431 345.25106090331729547
0.504765875584169521062 641.87286546692814682 0.504765875584169521062 366.19937598785526234
0.635462587779443310865 727.80537353840043124 0.635462587779443310865 381.41050813250319607
0.800000000000011368684 816.39607166386826975 0.800000000000011368684 390.57493191230275897
1.007140329435344483500 906.22933959847443930 1.007140329435344483500 394.10883447781060340
1.267914553968907398485 996.06419204735607309 1.267914553968907398485 393.09549770445255490
1.596209851975117999245 1084.97258148013588652 1.596209851975117999245 389.03535083337334299
2.009509145207687197399 1172.38729252527241442 2.009509145207687197399 383.52856741261456364
2.529822128134725289783 1258.09169031798342075 2.529822128134725289783 378.06240050276983311
3.184857364427983839050 1342.16688181493327647 3.184857364427983839050 373.72898679941442879
4.009497869018204596614 1424.85094799775129104 4.009497869018204596614 371.16780453227875114
5.009497869018190385759 1503.78725914678716435 5.009497869018190385759 370.60105136561696781
6.009497869018190385759 1567.75185546134389369 6.009497869018190385759 371.53300763961607345
7.009497869018204596614 1621.54656324814391155 7.009497869018204596614 373.23465774028238684
8.009497869018190385759 1667.96155633854368716 8.009497869018190385759 375.27473768208102456
9.009497869018204596614 1708.76292522959579401 9.009497869018204596614 377.46551556176495978
10.009497869018190385759 1745.14138655596548233 10.009497869018190385759 379.67391727353123088
11.009497869018190385759 1777.93956913054785218 11.009497869018190385759 381.73172686220328842
12.009497869018204596614 1807.77632950153997626 12.009497869018204596614 383.70975214089139627
13.009497869018190385759 1835.11823760538618444 13.009497869018190385759 385.59437210882919089
14.009497869018204596614 1860.33238170062350036 14.009497869018204596614 387.38077961011708794
15.009497869018190385759 1883.70770695671058093 15.009497869018190385759 389.08269676506193946
16.009497869018190385759 1905.47825560625574326 16.009497869018190385759 390.68914897966266153
17.009497869018204596614 1925.83594891318307418 17.009497869018204596614 392.17818648916266966
18.009497869018190385759 1944.93838674610151429 18.009497869018190385759 393.56669521646432486
19.009497869018204596614 1962.91633749506263484 19.009497869018204596614 394.81330668688974583
20.009497869018190385759 1979.88195708851344534 20.009497869018190385759 395.99069817011837813
21.009497869018190385759 1995.93076421859177572 21.009497869018190385759 397.10583961613508563
22.009497869018204596614 2011.14452033769907757 22.009497869018204596614 398.18074252832741422
23.009497869018190385759 2025.60186786586928065 23.009497869018190385759 399.23818588535164054
24.009497869018204596614 2039.36883316844637193 24.009497869018204596614 400.24160266892096161
25.009497869018204596614 2052.50196935461462999 25.009497869018204596614 401.20980537064377813
26.009497869018190385759 2065.05086017002940935 26.009497869018190385759 402.10832692863692728
27.009497869018204596614 2077.06072916958419228 27.009497869018204596614 402.93430488485051910
28.009497869018190385759 2088.56761467983233160 28.009497869018190385759 403.70122727601790302
29.009497869018190385759 2099.60111008604690142 29.009497869018190385759 404.42948167302807860
30.009497869018190385759 2110.19288232813960349 30.009497869018190385759 405.11602280887001371
31.009497869018218807469 2120.37412020771307652 31.009497869018218807469 405.74706301795538366
32.009497869018190385759 2130.17182351324345291 32.009497869018190385759 406.33939943979078180
33.009497869018190385759 2139.61040299543219589 33.009497869018190385759 406.94466560945227229
34.009497869018218807469 2148.71285117756860927 34.009497869018218807469 407.51305126866293449
35.009497869018190385759 2157.49865354106805171 35.009497869018190385759 408.06286144296723251
36.009497869018190385759 2165.98590421245444304 36.009497869018190385759 408.60015997470225102
37.009497869018190385759 2174.19140463021176402 37.009497869018190385759 409.11829911889708455
38.009497869018218807469 2182.13000297289181617 38.009497869018218807469 409.61730351936733996
39.009497869018190385759 2189.81562520071884137 39.009497869018190385759 410.08876876812450973
40.009497869018190385759 2197.26119866703402295 40.009497869018190385759 410.53018094428574614
41.009497869018218807469 2204.47887355666489384 41.009497869018218807469 410.96915791109034899
42.009497869018190385759 2211.47979159268606963 42.009497869018190385759 411.38455341226620021
43.009497869018190385759 2218.27429335359329343 43.009497869018190385759 411.78348686492819297
44.009497869018218807469 2224.87249385437780802 44.009497869018218807469 412.16255219509542940
46.009497869018190385759 2237.51650665926626971 46.009497869018190385759 412.88088158684763584
48.009497869018218807469 2249.47832559027619936 48.009497869018218807469 413.55404289871654555
50.009497869018190385759 2260.81560577587515581 50.009497869018190385759 414.18484790341977941
52.009497869018190385759 2271.57971738965215991 52.009497869018190385759 414.77859024816967803
54.009497869018218807469 2281.81628491094124911 54.009497869018218807469 415.33924192396591479
56.009497869018190385759 2291.56617092593251073 56.009497869018190385759 415.86482274648636803
58.009497869018218807469 2300.86553282010618204 58.009497869018218807469 416.35040818394367079
60.009497869018190385759 2309.74694281587972000 60.009497869018190385759 416.81714051230346740
62.009497869018190385759 2318.23973692848676365 62.009497869018190385759 417.25878598452987944
64.009497869018218807469 2326.37040998792144819 64.009497869018218807469 417.67568204497706574
66.009497869018190385759 2334.16290279491749970 66.009497869018190385759 418.05875568516029261
68.009497869018190385759 2341.63888081521645290 68.009497869018190385759 418.41796955096924648
70.009497869018190385759 2348.81839496958218660 70.009497869018190385759 418.76575573691650334
72.009497869018190385759 2355.71973942948488911 72.009497869018190385759 419.09404597810089399
74.009497869018218807469 2362.35964125151849657 74.009497869018218807469 419.40789355495644486
76.009497869018190385759 2368.75313061222141187 76.009497869018190385759 419.70623465407612684
78.009497869018190385759 2374.91398221027566251 78.009497869018190385759 419.98395924467808982
80.009497869018218807469 2380.85515901981534626 80.009497869018218807469 420.25932502519162881
82.009497869018190385759 2386.58912508440926104 82.009497869018190385759 420.53064175492602317
84.009497869018218807469 2392.12721848508363109 84.009497869018218807469 420.78330937893917962
86.009497869018190385759 2397.47989150371950018 86.009497869018190385759 421.02709769934728001
88.009497869018190385759 2402.65654441336528180 88.009497869018190385759 421.26276990604509365
91.009497869018218807469 2410.11056177745194873 91.009497869018218807469 421.60721795572919746
94.009497869018218807469 2417.21572250247118063 94.009497869018218807469 421.95277615799994919
97.009497869018218807469 2423.99765375842162030 97.009497869018218807469 422.32767112342003202
99.504748934509137825444 2429.40959704678743947 99.504748934509137825444 422.46559470423221683
nan nan nan nan

