Time Pressure difference Time.1 Pressure.1 difference.1
(hr) (psi) (hr) (psi)
0.000200000000020850166 0.47759345857891278 0.000200000000020850166 0.38128531124198461
0.000399999999999067768 0.95384181985421546 0.000399999999999067768 0.99288095204987015
0.000600000000019917934 1.42894761352390831 0.000600000000019917934 1.45027731409901617
0.000799999999998135536 1.90301200761806055 0.000799999999998135536 1.91450794591777496
0.001007140329434719206 2.39297662968256830 0.001007140329434719206 2.40035929672780979
0.001267914553977789183 3.00840679077869133 0.001267914553977789183 3.01429119014375235
0.001596209851982166583 3.78109080459314306 0.001596209851982166583 3.78340941479356063
0.002009509145224797066 4.75070243053658192 0.002009509145224797066 4.74602934571403523
0.002529822128153114136 5.96667263551024174 0.002529822128153114136 5.94947073549767413
0.003184857364431081805 7.49046322962402122 0.003184857364431081805 7.45194596282209254
0.004009497869034817086 9.39830748314142106 0.004009497869034817086 9.32473490085149770
0.005047658755856332391 11.78448421564041304 0.005047658755856332391 11.65462465123144398
0.006354625877790454069 14.76518023815842540 0.006354625877790454069 14.54656611598550064
0.008000000000009777068 18.48298520477438700 0.008000000000009777068 18.12642967971554597
0.010071403294361402914 23.11201906859578514 0.010071403294361402914 22.54360971565243332
0.012679145539692626699 28.86362025221814065 0.012679145539692626699 27.97311533487341251
0.015962098519750611558 35.99242676146847231 0.015962098519750611558 34.61666245712008561
0.020095091452091651263 44.80255363879742703 0.020095091452091651263 42.70175004645223993
0.025298221281360611101 55.65322867907234894 0.025298221281360611101 52.47776466512546989
0.031848573644296607199 68.96314710939778081 0.031848573644296607199 64.20769204055159207
0.040094978690191851456 85.21224953135046576 0.040094978690191851456 78.15330409017835223
0.050476587558435426217 104.93919875814357567 0.050476587558435426217 94.55210105604660953
0.063546258777947173257 128.73246425974707563 0.063546258777947173257 113.58412509567038740
0.080000000000012505552 157.21242044650523439 0.080000000000012505552 135.32786194006163782
0.100714032943542974863 191.00200803111900427 0.100714032943542974863 159.70387141790553187
0.126791455396883634421 230.68274778454329521 0.126791455396883634421 186.41707641062740208
0.159620985197506115583 276.73870367105075729 0.159620985197506115583 214.89561865705431387
0.200950914520774404082 329.48426039979148072 0.200950914520774404082 244.26128681960642552
0.252982212813464002465 388.99445782148598028 0.252982212813464002465 273.33457669046896399
0.318485736442809752589 455.03522106604009423 0.318485736442809752589 300.70661020756023163
0.400949786901833249431 527.02706463256436109 0.400949786901833249431 324.90893620197618930
0.504765875584169521062 604.05384229702735865 0.504765875584169521062 344.62298067596850615
0.635462587779443310865 684.92322387001684092 0.635462587779443310865 358.93787590211024963
0.800000000000011368684 768.29417546108720671 0.800000000000011368684 367.56233363269080883
1.007140329435344483500 852.83448489218130817 1.007140329435344483500 370.88801935309510327
1.267914553968907398485 937.37628547828103365 1.267914553968907398485 369.93438818340462149
1.596209851975117999245 1021.04621006723095888 1.596209851975117999245 366.11346436855922093
2.009509145207687197399 1103.31046350578003512 2.009509145207687197399 360.93113954542292277
2.529822128134725289783 1183.96517501283233287 2.529822128134725289783 355.78703811635460852
3.184857364427983839050 1263.08667273909441064 3.184857364427983839050 351.70894829732128528
4.009497869018204596614 1340.89900998151711065 4.009497869018204596614 349.29867038635075005
5.009497869018190385759 1415.18440918069154577 5.009497869018190385759 348.76531020495866642
6.009497869018190385759 1475.38022404299954360 6.009497869018190385759 349.64235579832939038
7.009497869018204596614 1526.00535821224684696 7.009497869018204596614 351.24374500926739984
8.009497869018190385759 1569.68558902563449919 8.009497869018190385759 353.16362384156565213
9.009497869018204596614 1608.08294927498786819 9.009497869018204596614 355.22532151884593077
10.009497869018190385759 1642.31799880471385222 10.009497869018190385759 357.30360463548356620
11.009497869018190385759 1673.18371890354342213 11.009497869018190385759 359.24016848734351015
12.009497869018204596614 1701.26250321339693983 12.009497869018204596614 361.10164890509418001
13.009497869018190385759 1726.99343146169735519 13.009497869018190385759 362.87522743465922304
14.009497869018204596614 1750.72196313888457553 14.009497869018204596614 364.55638015682046671
15.009497869018190385759 1772.72001882178187770 15.009497869018190385759 366.15802068725139407
16.009497869018190385759 1793.20785102061722682 16.009497869018190385759 367.66982105287399918
17.009497869018204596614 1812.36607303613800468 17.009497869018204596614 369.07112476476032725
18.009497869018190385759 1830.34299898364724868 18.009497869018190385759 370.37782283055150856
19.009497869018204596614 1847.26169240533727134 19.009497869018204596614 371.55098419797315046
20.009497869018190385759 1863.22770102437834794 20.009497869018190385759 372.65900400624889244
21.009497869018190385759 1878.33091559032777695 21.009497869018190385759 373.70844153727932735
22.009497869018204596614 1892.64828018686898758 22.009497869018204596614 374.72001138099545869
23.009497869018190385759 1906.25380363809290429 23.009497869018190385759 375.71515038310514001
24.009497869018204596614 1919.20962204886541258 24.009497869018204596614 376.65944604685688546
25.009497869018204596614 1931.56895643028383347 25.009497869018204596614 377.57060243554855106
26.009497869018190385759 1943.37846906344816489 26.009497869018190385759 378.41618327981376524
27.009497869018204596614 1954.68071894028003044 27.009497869018204596614 379.19349477706884954
28.009497869018190385759 1965.50962101620916656 28.009497869018190385759 379.91523025157169968
29.009497869018190385759 1975.89302504006036543 29.009497869018190385759 380.60057604253870522
30.009497869018190385759 1985.86073214186626501 30.009497869018190385759 381.24666630949303681
31.009497869018218807469 1995.44209348516346836 31.009497869018218807469 381.84052575339501345
32.009497869018190385759 2004.66251803619479688 32.009497869018190385759 382.39796182959037196
33.009497869018190385759 2013.54497826902365887 33.009497869018190385759 382.96756583540928887
34.009497869018218807469 2022.11111199198307986 34.009497869018218807469 383.50246232320984063
35.009497869018190385759 2030.37925660575183429 35.009497869018190385759 384.01987779002644174
36.009497869018190385759 2038.36644013447016732 36.009497869018190385759 384.52551879779673527
37.009497869018190385759 2046.08847407916800876 37.009497869018190385759 385.01312928537777225
38.009497869018218807469 2053.55933176663302220 38.009497869018218807469 385.48273244457647024
39.009497869018190385759 2060.79211864224771489 39.009497869018190385759 385.92641905347232978
40.009497869018190385759 2067.79900038223377123 40.009497869018190385759 386.34182331090721618
41.009497869018218807469 2074.59141128491410200 41.009497869018218807469 386.75493584104248157
42.009497869018190385759 2081.17983660522850187 42.009497869018190385759 387.14585632087243994
43.009497869018190385759 2087.57400765681859411 43.009497869018190385759 387.52128469285389656
44.009497869018218807469 2093.78344347997881414 44.009497869018218807469 387.87801556821580107
46.009497869018190385759 2105.68247353367951291 46.009497869018190385759 388.55402113328540281
48.009497869018218807469 2116.93950444256734045 48.009497869018218807469 389.18751991286740122
50.009497869018190385759 2127.60879430626573594 50.009497869018190385759 389.78115801058328316
52.009497869018190385759 2137.73868657782304581 52.009497869018190385759 390.33991717299119273
54.009497869018218807469 2147.37211755121325041 54.009497869018218807469 390.86753536216099292
56.009497869018190385759 2156.54754219707228913 56.009497869018190385759 391.36214906584228856
58.009497869018218807469 2165.29898751483005981 58.009497869018218807469 391.81912390469329921
60.009497869018190385759 2173.65710657795534644 60.009497869018190385759 392.25835645593207346
62.009497869018190385759 2181.64950692942647947 62.009497869018190385759 392.67398026367374086
64.009497869018218807469 2189.30112232905867131 64.009497869018218807469 393.06631289011750141
66.009497869018190385759 2196.63448299030687849 66.009497869018190385759 393.42681590665654312
68.009497869018190385759 2203.66997785392686637 68.009497869018190385759 393.76486496204142895
70.009497869018190385759 2210.42647644436965493 70.009497869018190385759 394.09215965421770989
72.009497869018190385759 2216.92119504411448361 72.009497869018190385759 394.40110709886744189
74.009497869018218807469 2223.16987515486607663 74.009497869018218807469 394.69646283813415266
76.009497869018190385759 2229.18666137811305816 76.009497869018190385759 394.97722573828770010
78.009497869018190385759 2234.98451680999733071 78.009497869018190385759 395.23858685055631668
80.009497869018218807469 2240.57564064876260090 80.009497869018218807469 395.49772813336363697
82.009497869018190385759 2245.97176255897738884 82.009497869018190385759 395.75305893466850193
84.009497869018218807469 2251.18355258416249853 84.009497869018218807469 395.99083943189856427
86.009497869018190385759 2256.22084715980190595 86.009497869018190385759 396.22026379234802107
88.009497869018190385759 2261.09249269670226568 88.009497869018190385759 396.44205023891311157
91.009497869018218807469 2268.10732082166123291 91.009497869018218807469 396.76620347715919479
94.009497869018218807469 2274.79384687221090644 94.009497869018218807469 397.09140145801961808
97.009497869018218807469 2281.17618807052804186 97.009497869018218807469 397.44420768570626024
99.504748934509137825444 2286.26926072324522465 99.504748934509137825444 397.57400483622507181
nan nan nan nan

