Time Pressure difference Time.1 Pressure.1 difference.1
(hr) (psi) (hr) (psi)
0.000200000000020850166 0.36047923656217068 0.000200000000020850166 0.28778752187655887
0.000399999999999067768 0.71994321707257314 0.000399999999999067768 0.74940927511242383
0.000600000000019917934 1.07854480742500214 0.000600000000019917934 1.09464409446777933
0.000799999999998135536 1.43636036748910989 0.000799999999998135536 1.44503730178837286
0.001007140329434719206 1.80617714309953836 0.001007140329434719206 1.81174945179107705
0.001267914553977789183 2.27069312556165581 0.001267914553977789183 2.27513456786502388
0.001596209851982166583 2.85390158120595494 0.001596209851982166583 2.85565162786157423
0.002009509145224797066 3.58574757365717689 0.002009509145224797066 3.58222041050415863
0.002529822128153114136 4.50354073706338198 0.002529822128153114136 4.49055704209737439
0.003184857364431081805 5.65367137679447840 0.003184857364431081805 5.62459921367789217
0.004009497869034817086 7.09367903944935119 0.004009497869034817086 7.03814773386008596
0.005047658755856332391 8.89472373841380737 0.005047658755856332391 8.79670799762512523
0.006354625877790454069 11.14450125801870861 0.006354625877790454069 10.97949512058731614
0.008000000000009777068 13.95063578934275483 0.008000000000009777068 13.68151387999399304
0.010071403294361402914 17.44455004481838500 0.010071403294361402914 17.01552455059679403
0.012679145539692626699 21.78575859036986628 0.012679145539692626699 21.11362096580010572
0.015962098519750611558 27.16645776430837955 0.015962098519750611558 26.12805479372194384
0.020095091452091651263 33.81618831171840611 0.020095091452091651263 32.23053829593090569
0.025298221281360611101 42.00608912472591072 0.025298221281360611101 39.60930411245992389
0.031848573644296607199 52.05218407909328704 0.031848573644296607199 48.46284929669459274
0.040094978690191851456 64.31672399409755769 0.040094978690191851456 58.98875473936941205
0.050476587558435426217 79.20628219310314932 0.050476587558435426217 71.36628149273778376
0.063546258777947173257 97.16502519779170655 0.063546258777947173257 85.73132224612338348
0.080000000000012505552 118.66120082397088709 0.080000000000012505552 102.14311666432477921
0.100714032943542974863 144.16499388783591940 0.100714032943542974863 120.54170468760173662
0.126791455396883634421 174.11532615389876355 0.126791455396883634421 140.70436723863005568
0.159620985197506115583 208.87756068388873132 0.159620985197506115583 162.19947564723750588
0.200950914520774404082 248.68898958871216109 0.200950914520774404082 184.36417126905945452
0.252982212813464002465 293.60625164265206877 0.252982212813464002465 206.30818484115394540
0.318485736442809752589 343.45267120462852972 0.318485736442809752589 226.96811970448894158
0.400949786901833249431 397.79086269657898356 0.400949786901833249431 245.23561445505680467
0.504765875584169521062 455.92933488158234923 0.504765875584169521062 260.11543237107883897
0.635462587779443310865 516.96813766884747565 0.635462587779443310865 270.92006633307101993
0.800000000000011368684 579.89508200019452033 0.800000000000011368684 277.42965703754401829
1.007140329435344483500 643.70463729253344809 1.007140329435344483500 279.93982678129265196
1.267914553968907398485 707.51531808273739443 1.267914553968907398485 279.22004255930016825
1.596209851975117999245 770.66792203335353406 1.596209851975117999245 276.33607571470378161
2.009509145207687197399 832.75954984610189058 2.009509145207687197399 272.42454706558874022
2.529822128134725289783 893.63632340099002249 2.529822128134725289783 268.54186876956151764
3.184857364427983839050 953.35585385872502684 3.184857364427983839050 265.46379749745642584
4.009497869018204596614 1012.08725275126676024 4.009497869018204596614 263.64456164813253736
5.009497869018190385759 1068.15658014681775967 5.009497869018190385759 263.24199065904707595
6.009497869018190385759 1113.59133432115095275 6.009497869018190385759 263.90396941995641100
7.009497869018204596614 1151.80230515498260502 7.009497869018204596614 265.11267014612531057
8.009497869018190385759 1184.77138371673959227 8.009497869018190385759 266.56176129954690168
9.009497869018204596614 1213.75304345277345419 9.009497869018204596614 268.11789485074632466
10.009497869018190385759 1239.59306344564470237 10.009497869018190385759 269.68654680313022709
11.009497869018190385759 1262.88997218110944232 11.009497869018190385759 271.14823151914271193
12.009497869018204596614 1284.08335025150313413 12.009497869018204596614 272.55324456488853002
13.009497869018190385759 1303.50460739891582307 13.009497869018190385759 273.89191079416019647
14.009497869018204596614 1321.41449043874081326 14.009497869018204596614 275.16081563140886601
15.009497869018190385759 1338.01824029331010024 15.009497869018190385759 276.36970604916018601
16.009497869018190385759 1353.48209972686572655 16.009497869018190385759 277.51078667295189462
17.009497869018204596614 1367.94239251771091403 17.009497869018204596614 278.56846634418428721
18.009497869018190385759 1381.51106358070069291 18.009497869018190385759 279.55473931905976315
19.009497869018204596614 1394.28099913724599901 19.009497869018204596614 280.44022111638321348
20.009497869018190385759 1406.33186477318281504 20.009497869018190385759 281.27653519776004032
21.009497869018190385759 1417.73150846296039163 21.009497869018190385759 282.06863239509431196
22.009497869018204596614 1428.53800626278462005 22.009497869018204596614 282.83214772061228359
23.009497869018190385759 1438.80721874596929410 23.009497869018190385759 283.58326133263932434
24.009497869018204596614 1448.58604516383934424 24.009497869018204596614 284.29599927710592056
25.009497869018204596614 1457.91465580998806217 25.009497869018204596614 284.98372427309232080
26.009497869018190385759 1466.82827056267205990 26.009497869018190385759 285.62195398858989392
27.009497869018204596614 1475.35901220883738461 27.009497869018204596614 286.20865518825718254
28.009497869018190385759 1483.53247916701684517 28.009497869018190385759 286.75340857249057080
29.009497869018190385759 1491.36969194328048616 29.009497869018190385759 287.27069565645535931
30.009497869018190385759 1498.89314391229549983 30.009497869018190385759 287.75835335360000045
31.009497869018218807469 1506.12498882184513604 31.009497869018218807469 288.20658813386683050
32.009497869018190385759 1513.08440491775400005 32.009497869018190385759 288.62733118963865309
33.009497869018190385759 1519.78873142392376394 33.009497869018190385759 289.05725838707411413
34.009497869018218807469 1526.25430018177530656 34.009497869018218807469 289.46098895351838109
35.009497869018190385759 1532.49495194242831531 35.009497869018190385759 289.85152514934173951
36.009497869018190385759 1538.52353916236506848 36.009497869018190385759 290.23317418825007508
37.009497869018190385759 1544.35199608758080103 37.009497869018190385759 290.60121410409385589
38.009497869018218807469 1549.99086954211975353 38.009497869018218807469 290.95566240164549754
39.009497869018190385759 1555.45005128823549967 39.009497869018190385759 291.29054933775125846
40.009497869018190385759 1560.73872376676399654 40.009497869018190385759 291.60408924684122667
41.009497869018218807469 1565.86551738722187110 41.009497869018218807469 291.91589940002165804
42.009497869018190385759 1570.83834623768530037 42.009497869018190385759 292.21095937958023114
43.009497869018190385759 1575.66455534445071862 43.009497869018190385759 292.49432618556272701
44.009497869018218807469 1580.35132951358423270 44.009497869018218807469 292.76358044627068011
46.009497869018190385759 1589.33251045846418492 46.009497869018190385759 293.27381769016676571
48.009497869018218807469 1597.82912161404237850 48.009497869018218807469 293.75197155162510398
50.009497869018190385759 1605.88211605029437123 50.009497869018190385759 294.20003926364029212
52.009497869018190385759 1613.52798256482651595 52.009497869018190385759 294.62178096187506071
54.009497869018218807469 1620.79912872561135373 54.009497869018218807469 295.02001799509201874
56.009497869018190385759 1627.72457967570312576 56.009497869018190385759 295.39334381665321416
58.009497869018218807469 1634.33001840249767156 58.009497869018218807469 295.73826047762935332
60.009497869018190385759 1640.63858131275242158 60.009497869018190385759 296.06978556847741402
62.009497869018190385759 1646.67110609977612512 62.009497869018190385759 296.38349119032073986
64.009497869018218807469 1652.44641233184620432 64.009497869018218807469 296.67961703358434988
66.009497869018190385759 1657.98150542224902892 66.009497869018190385759 296.95171844085035673
68.009497869018190385759 1663.29177458887693319 68.009497869018190385759 297.20687198874082924
70.009497869018190385759 1668.39146222062004199 70.009497869018190385759 297.45390833031387956
72.009497869018190385759 1673.29356286807956167 72.009497869018190385759 297.68709648853649696
74.009497869018218807469 1678.00995794297705288 74.009497869018218807469 297.91002586391340401
76.009497869018190385759 1682.55132354452371146 76.009497869018190385759 298.12194081811628621
78.009497869018190385759 1686.92744399224125118 78.009497869018190385759 298.31921164024601012
80.009497869018218807469 1691.14752702880491597 80.009497869018218807469 298.51480697370402595
82.009497869018190385759 1695.22042600103691257 82.009497869018190385759 298.70752622199330517
84.009497869018218807469 1699.15419447221984228 84.009497869018218807469 298.88699880598949221
86.009497869018190385759 1702.95625681278943375 86.009497869018190385759 299.06016432326794074
88.009497869018190385759 1706.63329013977204340 88.009497869018190385759 299.22756487597968089
91.009497869018218807469 1711.92796041147994401 91.009497869018218807469 299.47223010276019295
94.009497869018218807469 1716.97483398702524937 94.009497869018218807469 299.71768388309652664
97.009497869018218807469 1721.79211412627660138 97.009497869018218807469 299.98397588799394953
99.504748934509137825444 1725.63627678937109522 99.504748934509137825444 300.08194451986378226
nan nan nan nan

