Time Pressure difference Time.1 Pressure.1 difference.1
(hr) (psi) (hr) (psi)
0.000200000000020850166 0.87628017182739637 0.000200000000020850166 0.69957565801790222
0.000399999999999067768 1.75009238251512578 0.000399999999999067768 1.82172070332628344
0.000600000000019917934 2.62180823003082297 0.000600000000019917934 2.66094359369471700
0.000799999999998135536 3.49161333571661547 0.000799999999998135536 3.51270588337956946
0.001007140329434719206 4.39059190315671177 0.001007140329434719206 4.40413749225711104
0.001267914553977789183 5.51977245960264273 0.001267914553977789183 5.53056905322027603
0.001596209851982166583 6.93747965016654877 0.001596209851982166583 6.94173379583862005
0.002009509145224797066 8.71650619863668652 0.002009509145224797066 8.70793210387531680
0.002529822128153114136 10.94754718341444466 0.002529822128153114136 10.91598543643486252
0.003184857364431081805 13.74337166478842143 0.003184857364431081805 13.67270085352575215
0.004009497869034817086 17.24385112124208774 0.004009497869034817086 17.10886142677970057
0.005047658755856332391 21.62196669130545246 0.005047658755856332391 21.38370262095508778
0.006354625877790454069 27.09089591522980811 0.006354625877790454069 26.68978652585165534
0.008000000000009777068 33.91225981049909421 0.008000000000009777068 33.25805793408677857
0.010071403294361402914 42.40553063890182983 0.010071403294361402914 41.36262304350142216
0.012679145539692626699 52.95846846276545961 0.012679145539692626699 51.32458552746338398
0.015962098519750611558 66.03827866669432467 0.015962098519750611558 63.51405024741163174
0.020095091452091651263 82.20294624161962815 0.020095091452091651263 78.34842834609932538
0.025298221281360611101 102.11157609812406122 0.025298221281360611101 96.28528995079543051
0.031848573644296607199 126.53238295724290197 0.031848573644296607199 117.80715670049032440
0.040094978690191851456 156.34595348795608061 0.040094978690191851456 143.39432315676205576
0.050476587558435426217 192.54061685189822128 0.050476587558435426217 173.48255063326811864
0.063546258777947173257 236.19608659831854425 0.063546258777947173257 208.40217734944738481
0.080000000000012505552 288.45061490619650613 0.080000000000012505552 248.29720755959132816
0.100714032943542974863 350.44716256144442923 0.100714032943542974863 293.02188581893972241
0.126791455396883634421 423.25269376120547804 0.126791455396883634421 342.03480976210761355
0.159620985197506115583 507.75536064862359353 0.159620985197506115583 394.28674379685617168
0.200950914520774404082 604.53199082048695345 0.200950914520774404082 448.16636103423434179
0.252982212813464002465 713.72026608985686380 0.252982212813464002465 501.50952766686043560
0.318485736442809752589 834.89070995595182012 0.318485736442809752589 551.73125872865398378
0.400949786901833249431 966.98009249974847990 0.400949786901833249431 596.13726555319112776
0.504765875584169521062 1108.30748456237188293 0.504765875584169521062 632.30825150112480060
0.635462587779443310865 1256.68521944846543192 0.635462587779443310865 658.57297230735014182
0.800000000000011368684 1409.65279149816865356 0.800000000000011368684 674.39697736085008728
1.007140329435344483500 1564.76588097608919270 1.007140329435344483500 680.49888768263531347
1.267914553968907398485 1719.88170639928080163 1.267914553968907398485 678.74918179737721857
1.596209851975117999245 1873.39782890596302423 1.596209851975117999245 671.73861723274774249
2.009509145207687197399 2024.33485043234441036 2.009509145207687197399 662.23017777464554001
2.529822128134725289783 2172.31871241484896018 2.529822128134725289783 652.79186993522455396
3.184857364427983839050 2317.48946041694671294 3.184857364427983839050 645.30946165856346397
4.009497869018204596614 2460.25818353130534888 4.009497869018204596614 640.88712566539140880
5.009497869018190385759 2596.55574206196479281 5.009497869018190385759 639.90852568040247661
6.009497869018190385759 2707.00197628759042345 6.009497869018190385759 641.51771368215213442
7.009497869018204596614 2799.88809202420907241 7.009497869018204596614 644.45591475613412058
8.009497869018190385759 2880.03181986442450579 8.009497869018190385759 647.97847504843787192
9.009497869018204596614 2950.48262866976028818 9.009497869018204596614 651.76124209109980256
10.009497869018190385759 3013.29650215473566277 10.009497869018190385759 655.57443980945254225
11.009497869018190385759 3069.92838859693620179 11.009497869018190385759 659.12761348547371654
12.009497869018204596614 3121.44685372197182005 12.009497869018204596614 662.54302538239016940
13.009497869018190385759 3168.65751337754909400 13.009497869018190385759 665.79715642359212779
14.009497869018204596614 3212.19421062873607298 14.009497869018204596614 668.88170620077494277
15.009497869018190385759 3252.55586062083466459 15.009497869018190385759 671.82036839139175299
16.009497869018190385759 3290.14657882913252251 16.009497869018190385759 674.59419341005582282
17.009497869018204596614 3325.29775139674029560 17.009497869018204596614 677.16528109012551795
18.009497869018190385759 3358.28150248303973058 18.009497869018190385759 679.56278797605534692
19.009497869018204596614 3389.32362693501045214 19.009497869018204596614 681.71528405019421371
20.009497869018190385759 3418.61778187951131258 20.009497869018190385759 683.74825952450885325
21.009497869018190385759 3446.32889730051419974 21.009497869018190385759 685.67374925535591501
22.009497869018204596614 3472.59814886460299022 22.009497869018204596614 687.52976001208742218
23.009497869018190385759 3497.56132667510973988 23.009497869018190385759 689.35562374639289374
24.009497869018204596614 3521.33243697661418992 24.009497869018204596614 691.08820100771129091
25.009497869018204596614 3544.00912875469475694 25.009497869018204596614 692.75997490348481733
26.009497869018190385759 3565.67701715119574146 26.009497869018190385759 694.31143193078878539
27.009497869018204596614 3586.41418866433969015 27.009497869018204596614 695.73762954749156506
28.009497869018190385759 3606.28286986452258134 28.009497869018190385759 697.06185724418799055
29.009497869018190385759 3625.33415898654584453 29.009497869018190385759 698.31931778239709274
30.009497869018190385759 3643.62273462551092962 30.009497869018190385759 699.50475296785259616
31.009497869018218807469 3661.20244978582195472 31.009497869018218807469 700.59435594753335863
32.009497869018190385759 3678.11992439684445344 32.009497869018190385759 701.61712996559629119
33.009497869018190385759 3694.41730795446892444 33.009497869018190385759 702.66222948931601877
34.009497869018218807469 3710.13430113311687819 34.009497869018218807469 703.64364826258497487
35.009497869018190385759 3725.30454907664034181 35.009497869018190385759 704.59299316257033752
36.009497869018190385759 3739.95929450759240353 36.009497869018190385759 705.52073448987050597
37.009497869018190385759 3754.12754809308262338 37.009497869018190385759 706.41539373230193632
38.009497869018218807469 3767.83494785008360850 38.009497869018218807469 707.27701344178808540
39.009497869018190385759 3781.10553942186288623 39.009497869018190385759 708.09108191550137690
40.009497869018190385759 3793.96164417957606929 40.009497869018190385759 708.85325842262102469
41.009497869018218807469 3806.42424157492860104 41.009497869018218807469 709.61123010834751312
42.009497869018190385759 3818.51256977133152759 42.009497869018190385759 710.32848420612253904
43.009497869018190385759 3830.24448361381428185 43.009497869018190385759 711.01731365384500805
44.009497869018218807469 3841.63744847196176124 44.009497869018218807469 711.67183725994368615
46.009497869018190385759 3863.46958187483824076 46.009497869018190385759 712.91216051411493027
48.009497869018218807469 3884.12378641201576102 48.009497869018218807469 714.07449305752197688
50.009497869018190385759 3903.69961390106118415 50.009497869018190385759 715.16368991507022201
52.009497869018190385759 3922.28576406887577832 52.009497869018190385759 716.18889150870552385
54.009497869018218807469 3939.96101568092217349 54.009497869018218807469 717.15695618622601160
56.009497869018190385759 3956.79592524854115254 56.009497869018190385759 718.06446480776298813
58.009497869018218807469 3972.85292491851350860 58.009497869018218807469 718.90291429469812101
60.009497869018190385759 3988.18825641694411388 60.009497869018190385759 719.70881054088397377
62.009497869018190385759 4002.85257358355693214 62.009497869018190385759 720.47138987508844821
64.009497869018218807469 4016.89162444722887813 64.009497869018218807469 721.19123495491123776
66.009497869018190385759 4030.34674705178031218 66.009497869018190385759 721.85267962003945286
68.009497869018190385759 4043.25535067111786702 68.009497869018190385759 722.47292614774562480
70.009497869018190385759 4055.65205678053962401 70.009497869018190385759 723.07344075686899032
72.009497869018190385759 4067.56845351572292202 72.009497869018190385759 723.64029215531331829
74.009497869018218807469 4079.03342311023197908 74.009497869018218807469 724.18220572909820021
76.009497869018190385759 4090.07291783288610532 76.009497869018190385759 724.69734461546693183
78.009497869018190385759 4100.71072214703872305 78.009497869018190385759 725.17688543884685259
80.009497869018218807469 4110.96921892946920707 80.009497869018218807469 725.65235335773672887
82.009497869018190385759 4120.86992956473204686 82.009497869018190385759 726.12082987143526225
84.009497869018218807469 4130.43243126311517699 84.009497869018218807469 726.55710539243989388
86.009497869018190385759 4139.67477174537543760 86.009497869018190385759 726.97804921900387853
88.009497869018190385759 4148.61318225221111788 88.009497869018190385759 727.38497913400578909
91.009497869018218807469 4161.48386689887411194 91.009497869018218807469 727.97972985809212787
94.009497869018218807469 4173.75218860901259177 94.009497869018218807469 728.57639745775770734
97.009497869018218807469 4185.46239724244696845 97.009497869018218807469 729.22372018855674014
99.504748934509137825444 4194.80707837047611974 99.504748934509137825444 729.46186974298677796
nan nan nan nan

