Time Pressure difference Time.1 Pressure.1 difference.1
(hr) (psi) (hr) (psi)
0.000200000000020850166 0.11628362469747440 0.000200000000020850166 0.09283468447630930
0.000399999999999067768 0.23223974744276552 0.000399999999999067768 0.24174492745562054
0.000600000000019917934 0.34791767981451682 0.000600000000019917934 0.35311099821541264
0.000799999999998135536 0.46334205402874512 0.000799999999998135536 0.46614106509302344
0.001007140329434719206 0.58263778809662525 0.001007140329434719206 0.58443530702937962
0.001267914553977789183 0.73248165340698568 0.001267914553977789183 0.73391437673065274
0.001596209851982166583 0.92061341329224344 0.001596209851982166583 0.92117794447147561
0.002009509145224797066 1.15669276569586343 0.002009509145224797066 1.15555497113037386
0.002529822128153114136 1.45275507647205870 0.002529822128153114136 1.44856678777334658
0.003184857364431081805 1.82376496025628332 0.003184857364431081805 1.81438684312190079
0.004009497869034817086 2.28828356111269393 0.004009497869034817086 2.27037023672906013
0.005047658755856332391 2.86926572206896990 0.005047658755856332391 2.83764774116939522
0.006354625877790454069 3.59500040581248648 0.006354625877790454069 3.54177261954429579
0.008000000000009777068 4.50020509333637175 0.008000000000009777068 4.41339157419161054
0.010071403294361402914 5.62727420800593059 0.010071403294361402914 5.48887888728928797
0.012679145539692626699 7.02766406140963440 0.012679145539692626699 6.81084547283874286
0.015962098519750611558 8.76337347235754116 0.015962098519750611558 8.42840477216836881
0.020095091452091651263 10.90844784248980837 0.020095091452091651263 10.39694783739706629
0.025298221281360611101 13.55035133055674557 0.025298221281360611101 12.77719487498707096
0.031848573644296607199 16.79102712228815619 0.031848573644296607199 15.63317719248212789
0.040094978690191851456 20.74733032067663530 0.040094978690191851456 19.02863056108690643
0.050476587558435426217 25.55041361067843297 0.050476587558435426217 23.02138112668961156
0.063546258777947173257 31.34355651541667953 0.063546258777947173257 27.65526524068496173
0.080000000000012505552 38.27780671740996610 0.080000000000012505552 32.94939247236283109
0.100714032943542974863 46.50483673801158346 0.100714032943542974863 38.88442086696829847
0.126791455396883634421 56.16623424319314495 0.126791455396883634421 45.38850556084840804
0.159620985197506115583 67.37985828512539399 0.159620985197506115583 52.32241149910888112
0.200950914520774404082 80.22225470603618191 0.200950914520774404082 59.47231331259982312
0.252982212813464002465 94.71169407827484577 0.252982212813464002465 66.55102736811417685
0.318485736442809752589 110.79118425955758198 0.318485736442809752589 73.21552248531901341
0.400949786901833249431 128.31963312792871079 0.400949786901833249431 79.10826272743767618
0.504765875584169521062 147.07397899405881958 0.504765875584169521062 83.90820399067060009
0.635462587779443310865 166.76391537704756729 0.635462587779443310865 87.39356978486162575
0.800000000000011368684 187.06292967748208866 0.800000000000011368684 89.49343775404645385
1.007140329435344483500 207.64665719113980913 1.007140329435344483500 90.30316992944923982
1.267914553968907398485 228.23074776862495128 1.267914553968907398485 90.07098147074199801
1.596209851975117999245 248.60255549463013836 1.596209851975117999245 89.14066958538832353
2.009509145207687197399 268.63211285358124769 2.009509145207687197399 87.87888615018991345
2.529822128134725289783 288.26978174225484963 2.529822128134725289783 86.62640928050372224
3.184857364427983839050 307.53414640604034958 3.184857364427983839050 85.63348306369560703
4.009497869018204596614 326.47975895202154106 4.009497869018204596614 85.04663278972019214
5.009497869018190385759 344.56663875703799249 5.009497869018190385759 84.91677118033776139
6.009497869018190385759 359.22301107133898768 6.009497869018190385759 85.13031271611498596
7.009497869018204596614 371.54913069515572488 7.009497869018204596614 85.52021617616945548
8.009497869018190385759 382.18431732798052280 8.009497869018190385759 85.98766493533771893
9.009497869018204596614 391.53323982347535548 9.009497869018204596614 86.48964350024073156
10.009497869018190385759 399.86873014375640878 10.009497869018190385759 86.99566025907427047
11.009497869018190385759 407.38386199390623688 11.009497869018190385759 87.46717145778798397
12.009497869018204596614 414.22043556500102568 12.009497869018204596614 87.92040147254466831
13.009497869018190385759 420.48535722545670978 13.009497869018190385759 88.35222928843876389
14.009497869018204596614 426.26273885120667728 14.009497869018204596614 88.76155342948672455
15.009497869018190385759 431.61878719139036775 15.009497869018190385759 89.15151808037425951
16.009497869018190385759 436.60712894415024721 16.009497869018190385759 89.51960860417801769
17.009497869018204596614 441.27173952184227801 17.009497869018204596614 89.86079559489816404
18.009497869018190385759 445.64873018732282617 18.009497869018190385759 90.17894816743861952
19.009497869018204596614 449.76806423782124966 19.009497869018204596614 90.46458745689781722
20.009497869018190385759 453.65544024941385715 20.009497869018190385759 90.73436619282581717
21.009497869018190385759 457.33274466547112524 21.009497869018190385759 90.98988141777235228
22.009497869018204596614 460.81871169767242691 22.009497869018204596614 91.23617668406846803
23.009497869018190385759 464.13136088579653915 23.009497869018190385759 91.47847139762559721
24.009497869018204596614 467.28582102059328918 24.009497869018204596614 91.70838686358254677
25.009497869018204596614 470.29505026128646250 25.009497869018204596614 91.93023363648138968
26.009497869018190385759 473.17040985892646177 26.009497869018190385759 92.13611418986771184
27.009497869018204596614 475.92226200285074356 27.009497869018204596614 92.32537264137327782
28.009497869018190385759 478.55886424742476493 28.009497869018190385759 92.50109953951310615
29.009497869018190385759 481.08699740105817000 29.009497869018190385759 92.66796634079204864
30.009497869018190385759 483.51391739106304613 30.009497869018190385759 92.82527527535484069
31.009497869018218807469 485.84677058769199220 31.009497869018218807469 92.96986713995704577
32.009497869018190385759 488.09174352185607404 32.009497869018190385759 93.10559070633503609
33.009497869018190385759 490.25442949158832562 33.009497869018190385759 93.24427689905616035
34.009497869018218807469 492.34009683283068171 34.009497869018218807469 93.37451256565107371
35.009497869018190385759 494.35321030400905329 35.009497869018190385759 93.50049198365860548
36.009497869018190385759 496.29791585882742311 36.009497869018190385759 93.62360457685485926
37.009497869018190385759 498.17806325405837242 37.009497869018190385759 93.74232713035284803
38.009497869018218807469 499.99705469100638311 38.009497869018218807469 93.85666529085339960
39.009497869018190385759 501.75808106072116743 39.009497869018190385759 93.96469333475847918
40.009497869018190385759 503.46410444089161729 40.009497869018190385759 94.06583524091654169
41.009497869018218807469 505.11790883458775170 41.009497869018218807469 94.16641916129729850
42.009497869018190385759 506.72204717344686742 42.009497869018190385759 94.26159979986459803
43.009497869018190385759 508.27888882079054156 43.009497869018190385759 94.35300844695574085
44.009497869018218807469 509.79075145599489360 44.009497869018218807469 94.43986466008732350
46.009497869018190385759 512.68790659950457211 46.009497869018190385759 94.60445731940862402
48.009497869018218807469 515.42874890775556196 48.009497869018218807469 94.75870050052424176
50.009497869018190385759 518.02648904848206257 50.009497869018190385759 94.90323847214202146
52.009497869018190385759 520.49289760155693330 52.009497869018190385759 95.03928418125002509
54.009497869018218807469 522.83842862116489414 54.009497869018218807469 95.16774774035224027
56.009497869018190385759 525.07244505667847534 56.009497869018190385759 95.28817542472681623
58.009497869018218807469 527.20323174274119538 58.009497869018218807469 95.39943886375141346
60.009497869018190385759 529.23825203637181858 60.009497869018190385759 95.50638244144431610
62.009497869018190385759 531.18422777412126834 62.009497869018190385759 95.60757780332926359
64.009497869018218807469 533.04722978446648085 64.009497869018218807469 95.70310226889817784
66.009497869018190385759 534.83274368459649395 66.009497869018190385759 95.79087691640333446
68.009497869018190385759 536.54573373834739414 68.009497869018190385759 95.87318451249704765
70.009497869018190385759 538.19079426471603256 70.009497869018190385759 95.95287365493994969
72.009497869018190385759 539.77211705421916577 72.009497869018190385759 96.02809564146338062
74.009497869018218807469 541.29353482031524436 74.009497869018218807469 96.10000834319788510
76.009497869018190385759 542.75849146597533945 76.009497869018190385759 96.16836800584395917
78.009497869018190385759 544.17014322330373943 78.009497869018190385759 96.23200375491806824
80.009497869018218807469 545.53146033187260855 80.009497869018218807469 96.29509902377549224
82.009497869018190385759 546.84529871001188894 82.009497869018190385759 96.35726652322364316
84.009497869018218807469 548.11425628136123578 84.009497869018218807469 96.41516090515790438
86.009497869018190385759 549.34072800412559445 86.009497869018190385759 96.47102074944126571
88.009497869018190385759 550.52686778702320680 88.009497869018190385759 96.52502092773536901
91.009497869018218807469 552.23482593918708972 91.009497869018218807469 96.60394519443876504
94.009497869018218807469 553.86284967323399542 94.009497869018218807469 96.68312383325694270
97.009497869018218807469 555.41681100847631569 97.009497869018218807469 96.76902447999803769
99.504748934509137825444 556.65686348044232545 99.504748934509137825444 96.80062726447218324
nan nan nan nan

