Time Pressure difference Time.1 Pressure.1 difference.1
(hr) (psi) (hr) (psi)
0.000200000000020850166 0.20100455126277719 0.000200000000020850166 0.16047138316619181
0.000399999999999067768 0.40144299200820899 0.000399999999999067768 0.41787337460185836
0.000600000000019917934 0.60140056082223625 0.000600000000019917934 0.61037758262949904
0.000799999999998135536 0.80091983624968799 0.000799999999998135536 0.80575812680365477
0.001007140329434719206 1.00713103370988089 0.001007140329434719206 1.01023817357935641
0.001267914553977789183 1.26614685803207516 0.001267914553977789183 1.26862342263441397
0.001596209851982166583 1.59134604297659221 0.001596209851982166583 1.59232187544355064
0.002009509145224797066 1.99942606641713549 0.002009509145224797066 1.99745930723964626
0.002529822128153114136 2.51119091790170179 0.002529822128153114136 2.50395116172249921
0.003184857364431081805 3.15250800272871867 0.003184857364431081805 3.13629725739642851
0.004009497869034817086 3.95546158420908478 0.004009497869034817086 3.92449712348880420
0.005047658755856332391 4.95973074814779036 0.005047658755856332391 4.90507680973566895
0.006354625877790454069 6.21421498719015464 0.006354625877790454069 6.12220695664085390
0.008000000000009777068 7.77892594705287088 0.008000000000009777068 7.62886257824549840
0.010071403294361402914 9.72714541669596500 0.010071403294361402914 9.48791921945719885
0.012679145539692626699 12.14781930615093941 0.012679145539692626699 11.77303288876411358
0.015962098519750611558 15.14811700221803648 0.015962098519750611558 14.56909967760532254
0.020095091452091651263 18.85603127058952566 0.020095091452091651263 17.97186697607207151
0.025298221281360611101 23.42275015710523078 0.025298221281360611101 22.08629399819194106
0.031848573644296607199 29.02448973995524284 0.031848573644296607199 27.02306343271910549
0.040094978690191851456 35.86324241145531744 0.040094978690191851456 32.89234711273593348
0.050476587558435426217 44.16571495560129534 0.050476587558435426217 39.79410166184918296
0.063546258777947173257 54.17957626236311341 0.063546258777947173257 47.80410134461257599
0.080000000000012505552 66.16592304009436987 0.080000000000012505552 56.95537841651290023
0.100714032943542974863 80.38693207570572952 0.100714032943542974863 67.21449892718806041
0.126791455396883634421 97.08734776323386484 0.126791455396883634421 78.45727389803796825
0.159620985197506115583 116.47089789285962524 0.159620985197506115583 90.44302559131676844
0.200950914520774404082 138.66989742043395495 0.200950914520774404082 102.80214158320826812
0.252982212813464002465 163.71592833530368694 0.252982212813464002465 115.03820445059736244
0.318485736442809752589 191.51047564866382800 0.318485736442809752589 126.55826029605142935
0.400949786901833249431 221.80965154970530762 0.400949786901833249431 136.74428271457082928
0.504765875584169521062 254.22787797544452815 0.504765875584169521062 145.04132404101633824
0.635462587779443310865 288.26333943746794830 0.635462587779443310865 151.06602777097506873
0.800000000000011368684 323.35163558536186201 0.800000000000011368684 154.69579954628031260
1.007140329435344483500 358.93207885897021470 1.007140329435344483500 156.09547944947655651
1.267914553968907398485 394.51314971433743040 1.267914553968907398485 155.69412511371118057
1.596209851975117999245 429.72727449786071929 1.596209851975117999245 154.08601456902837867
2.009509145207687197399 464.34979507547615185 2.009509145207687197399 151.90493177389970469
2.529822128134725289783 498.29490844018334883 2.529822128134725289783 149.73993604201356789
3.184857364427983839050 531.59473878758399223 3.184857364427983839050 148.02359215295956574
4.009497869018204596614 564.34358333135151042 4.009497869018204596614 147.00917953651631365
5.009497869018190385759 595.60804699430855180 5.009497869018190385759 146.78470446886956324
6.009497869018190385759 620.94263342331464628 6.009497869018190385759 147.15382626642733044
7.009497869018204596614 642.24921163019780579 7.009497869018204596614 147.82780224737862795
8.009497869018190385759 660.63289138122343047 8.009497869018190385759 148.63582081679805924
9.009497869018204596614 676.79317169486455441 9.009497869018204596614 149.50352662184471342
10.009497869018190385759 691.20166210563604636 10.009497869018190385759 150.37821273354268214
11.009497869018190385759 704.19210430375221677 11.009497869018190385759 151.19325351989064643
12.009497869018204596614 716.00961004807311383 12.009497869018204596614 151.97669397397007174
13.009497869018190385759 726.83897463257528671 13.009497869018190385759 152.72313919858700615
14.009497869018204596614 736.82559144280014607 14.009497869018204596614 153.43068521382704716
15.009497869018190385759 746.08390357368909918 15.009497869018190385759 154.10476696750404813
16.009497869018190385759 754.70660860345981291 16.009497869018190385759 154.74103773007917084
17.009497869018204596614 762.76972117347031599 17.009497869018204596614 155.33080381403826209
18.009497869018190385759 770.33566218094358646 18.009497869018190385759 155.88075326085819938
19.009497869018204596614 777.45622532537674942 19.009497869018204596614 156.37450117549477113
20.009497869018190385759 784.17583243112972013 20.009497869018190385759 156.84083299045607873
21.009497869018190385759 790.53231577888584525 21.009497869018190385759 157.28250930786364847
22.009497869018204596614 796.55805879169099626 22.009497869018204596614 157.70824826817548114
23.009497869018190385759 802.28420953116267356 23.009497869018190385759 158.12707198732422853
24.009497869018204596614 807.73691919273983331 24.009497869018204596614 158.52449729276409585
25.009497869018204596614 812.93858688022373826 25.009497869018204596614 158.90797528591784271
26.009497869018190385759 817.90885132757296105 26.009497869018190385759 159.26385452819988586
27.009497869018204596614 822.66562431921340703 27.009497869018204596614 159.59100128008807928
28.009497869018190385759 827.22317962769136557 28.009497869018190385759 159.89475777544404878
29.009497869018190385759 831.59323836468627178 29.009497869018190385759 160.18319896051195883
30.009497869018190385759 835.78834291883754304 30.009497869018190385759 160.45511869025622786
31.009497869018218807469 839.82084630158180971 31.009497869018218807469 160.70505605621144696
32.009497869018190385759 843.70144237349416017 32.009497869018190385759 160.93966393523626834
33.009497869018190385759 847.43979954974554403 33.009497869018190385759 161.17939292551136532
34.009497869018218807469 851.04502452532165080 34.009497869018218807469 161.40451457776831035
35.009497869018190385759 854.52483495407284408 35.009497869018190385759 161.62227900032419825
36.009497869018190385759 857.88639741311601483 36.009497869018190385759 161.83508791142051564
37.009497869018190385759 861.13636648201509161 37.009497869018190385759 162.04030832532421869
38.009497869018218807469 864.28062310873963270 38.009497869018218807469 162.23795000276086853
39.009497869018190385759 867.32468297638945387 39.009497869018190385759 162.42468419293965098
40.009497869018190385759 870.27366624782689541 40.009497869018190385759 162.59951520215571463
41.009497869018218807469 873.13238527121586685 41.009497869018218807469 162.77338169309962268
42.009497869018190385759 875.90525297124383997 42.009497869018190385759 162.93790822548021424
43.009497869018190385759 878.59636496165228436 43.009497869018190385759 163.09591460116632788
44.009497869018218807469 881.20972751679119028 44.009497869018218807469 163.24605176957953745
46.009497869018190385759 886.21766712200076199 46.009497869018190385759 163.53056193783490357
48.009497869018218807469 890.95540882626335133 48.009497869018218807469 163.79718229376334193
50.009497869018190385759 895.44578821237610100 50.009497869018190385759 164.04702650184549384
52.009497869018190385759 899.70915156840555937 52.009497869018190385759 164.28219122758932258
54.009497869018218807469 903.76356947372801187 54.009497869018218807469 164.50424966546603400
56.009497869018190385759 907.62522645511569408 56.009497869018190385759 164.71241751988495139
58.009497869018218807469 911.30844344102399646 58.009497869018218807469 164.90474432162744733
60.009497869018190385759 914.82612137715682366 60.009497869018190385759 165.08960393449660842
62.009497869018190385759 918.18987943812396679 62.009497869018190385759 165.26452734575485692
64.009497869018218807469 921.41021148457775780 64.009497869018218807469 165.42964820766684397
66.009497869018190385759 924.49659979765965545 66.009497869018190385759 165.58137295549721557
68.009497869018190385759 927.45762546200057841 68.009497869018190385759 165.72364751445920206
70.009497869018190385759 930.30123008615203162 70.009497869018190385759 165.86139588925334465
72.009497869018190385759 933.03465947943607262 72.009497869018190385759 165.99142246595812367
74.009497869018218807469 935.66453876083062369 74.009497869018218807469 166.11572870752775088
76.009497869018190385759 938.19682096261465176 76.009497869018190385759 166.23389326724455373
78.009497869018190385759 940.63696185742492162 78.009497869018190385759 166.34389220492980144
80.009497869018218807469 942.99009571652266004 80.009497869018218807469 166.45295688395478351
82.009497869018190385759 945.26115919873484472 82.009497869018190385759 166.56041784728657262
84.009497869018218807469 947.45464300063872543 84.009497869018218807469 166.66049242177294332
86.009497869018190385759 949.57468697856006656 86.009497869018190385759 166.75705015260561481
88.009497869018190385759 951.62501431756868442 88.009497869018190385759 166.85039331794254736
91.009497869018218807469 954.57734198059483788 91.009497869018218807469 166.98681955038699698
94.009497869018218807469 957.39149729230439334 94.009497869018218807469 167.12368548320128525
97.009497869018218807469 960.07763045750903075 97.009497869018218807469 167.27217088685375757
99.504748934509137825444 962.22114973047882813 99.504748934509137825444 167.32679855715906569
nan nan nan nan

