Time Pressure difference Time.1 Pressure.1 difference.1
(hr) (psi) (hr) (psi)
0.000200000000020850166 0.17940902096181766 0.000200000000020850166 0.14323065604916291
0.000399999999999067768 0.35831275319740963 0.000399999999999067768 0.37297788807438603
0.000600000000019917934 0.53678727742811161 0.000600000000019917934 0.54479982581806530
0.000799999999998135536 0.71487059764434968 0.000799999999998135536 0.71918907185780756
0.001007140329434719206 0.89892687306336472 0.001007140329434719206 0.90170018798818585
0.001267914553977789183 1.13011455097077795 0.001267914553977789183 1.13232503838443566
0.001596209851982166583 1.42037498050803279 0.001596209851982166583 1.42124597147027676
0.002009509145224797066 1.78461169564504663 0.002009509145224797066 1.78285624117257679
0.002529822128153114136 2.24139354655689083 0.002529822128153114136 2.23493161542173491
0.003184857364431081805 2.81380879582398036 0.003184857364431081805 2.79933970081664674
0.004009497869034817086 3.53049463714529921 0.004009497869034817086 3.50285693666769271
0.005047658755856332391 4.42686711404926747 0.005047658755856332391 4.37808508637563776
0.006354625877790454069 5.54657205468212222 0.006354625877790454069 5.46444918443977024
0.008000000000009777068 6.94317357257611789 0.008000000000009777068 6.80923271446705591
0.010071403294361402914 8.68208020663772118 0.010071403294361402914 8.46855599753204302
0.012679145539692626699 10.84268169474629318 0.012679145539692626699 10.50816158666548894
0.015962098519750611558 13.52063335735163641 0.015962098519750611558 13.00382450563119718
0.020095091452091651263 16.83017667126999228 0.020095091452091651263 16.04100523484118668
0.025298221281360611101 20.90625633857326804 0.025298221281360611101 19.71338637855148335
0.031848573644296607199 25.90615613153029884 0.031848573644296607199 24.11975909697242315
0.040094978690191851456 32.01016678047251673 0.040094978690191851456 29.35845857996265451
0.050476587558435426217 39.42063814218958129 0.050476587558435426217 35.51870230974968479
0.063546258777947173257 48.35863005235716372 0.063546258777947173257 42.66812351419965665
0.080000000000012505552 59.05718750686109075 0.080000000000012505552 50.83620552878836918
0.100714032943542974863 71.75031953864643697 0.100714032943542974863 59.99310648046537864
0.126791455396883634421 86.65647568949799506 0.126791455396883634421 70.02798000816611079
0.159620985197506115583 103.95749563990776210 0.159620985197506115583 80.72600631291084028
0.200950914520774404082 123.77147868931297126 0.200950914520774404082 91.75728339658257937
0.252982212813464002465 146.12661372076689759 0.252982212813464002465 102.67872793937614517
0.318485736442809752589 170.93497000046025391 0.318485736442809752589 112.96109183449217994
0.400949786901833249431 197.97886254023285346 0.400949786901833249431 122.05274820804670810
0.504765875584169521062 226.91413901940504161 0.504765875584169521062 129.45837187132033819
0.635462587779443310865 257.29289801030193985 0.635462587779443310865 134.83579338235793443
0.800000000000011368684 288.61137721668666245 0.800000000000011368684 138.07558967767167246
1.007140329435344483500 320.36912823775855941 1.007140329435344483500 139.32489074829311448
1.267914553968907398485 352.12743941444989559 1.267914553968907398485 138.96665712628765732
1.596209851975117999245 383.55822847742939530 1.596209851975117999245 137.53131878888484607
2.009509145207687197399 414.46097411695387791 2.009509145207687197399 135.58456720315015787
2.529822128134725289783 444.75909183090743682 2.529822128134725289783 133.65217431849146124
3.184857364427983839050 474.48125445503364972 3.184857364427983839050 132.12023101255894630
4.009497869018204596614 503.71162809740474131 4.009497869018204596614 131.21480487556829075
5.009497869018190385759 531.61709979657280201 5.009497869018190385759 131.01444696394969469
6.009497869018190385759 554.22978851006587320 6.009497869018190385759 131.34391104772024050
7.009497869018204596614 573.24723021538318335 7.009497869018204596614 131.94547638609000728
8.009497869018190385759 589.65580387745569624 8.009497869018190385759 132.66668304309249038
9.009497869018204596614 604.07985572764766857 9.009497869018204596614 133.44116425751428778
10.009497869018190385759 616.94032650750989433 10.009497869018190385759 134.22187582828601649
11.009497869018190385759 628.53510136202680769 11.009497869018190385759 134.94935024915861277
12.009497869018204596614 639.08295772885867336 12.009497869018204596614 135.64861941478321228
13.009497869018190385759 648.74883686213320289 13.009497869018190385759 136.31486804501980714
14.009497869018204596614 657.66251137043320796 14.009497869018204596614 136.94639671977950002
15.009497869018190385759 665.92612880957369725 15.009497869018190385759 137.54805646686313025
16.009497869018190385759 673.62242751383189443 16.009497869018190385759 138.11596756073180359
17.009497869018204596614 680.81925526227098544 17.009497869018204596614 138.64237034641431023
18.009497869018190385759 687.57232657472661685 18.009497869018190385759 139.13323431547672726
19.009497869018204596614 693.92787053835286315 19.009497869018204596614 139.57393493349945857
20.009497869018190385759 699.92553638480990230 20.009497869018190385759 139.99016498321699942
21.009497869018190385759 705.59909176958399257 21.009497869018190385759 140.38438847313449287
22.009497869018204596614 710.97744090498042624 22.009497869018204596614 140.76438688399133525
23.009497869018190385759 716.08838536665746233 23.009497869018190385759 141.13821301347945791
24.009497869018204596614 720.95526671748689296 24.009497869018204596614 141.49293973238448530
25.009497869018204596614 725.59807754598489282 25.009497869018204596614 141.83521761057130561
26.009497869018190385759 730.03434663948655725 26.009497869018190385759 142.15286189293874486
27.009497869018204596614 734.28006137582690371 27.009497869018204596614 142.44486064669018788
28.009497869018190385759 738.34796198174103665 28.009497869018190385759 142.71598214667733373
29.009497869018190385759 742.24851027591842012 29.009497869018190385759 142.97343378293626870
30.009497869018190385759 745.99290111764014455 30.009497869018190385759 143.21613899626174771
31.009497869018218807469 749.59216033529617107 31.009497869018218807469 143.43922358736227807
32.009497869018190385759 753.05583286229227724 32.009497869018190385759 143.64862566120262954
33.009497869018190385759 756.39254835845054004 33.009497869018190385759 143.86259864425807109
34.009497869018218807469 759.61043511351022062 34.009497869018218807469 144.06353367271881893
35.009497869018190385759 762.71638161189980565 35.009497869018190385759 144.25790191764471615
36.009497869018190385759 765.71678446790519956 36.009497869018190385759 144.44784706143320818
37.009497869018190385759 768.61758330626150837 37.009497869018190385759 144.63101900111584541
38.009497869018218807469 771.42402723755265015 38.009497869018218807469 144.80742644874524672
39.009497869018190385759 774.14103935082698627 39.009497869018190385759 144.97409828791307973
40.009497869018190385759 776.77318970880423876 40.009497869018190385759 145.13014580027120815
41.009497869018218807469 779.32477363050668373 41.009497869018218807469 145.28533242028726136
42.009497869018190385759 781.79972992474654347 42.009497869018190385759 145.43218254836253323
43.009497869018190385759 784.20171418064819591 43.009497869018190385759 145.57321303244600585
44.009497869018218807469 786.53430224639214430 44.009497869018218807469 145.70721976127759945
46.009497869018190385759 791.00419875352133658 46.009497869018190385759 145.96116272137331293
48.009497869018218807469 795.23292688625144820 48.009497869018218807469 146.19913791509452494
50.009497869018190385759 799.24086881765799717 50.009497869018190385759 146.42213935701911964
52.009497869018190385759 803.04618487097354773 52.009497869018190385759 146.63203845107145185
54.009497869018218807469 806.66500415836878801 54.009497869018218807469 146.83023937082919019
56.009497869018190385759 810.11177237316110222 56.009497869018190385759 147.01604208386424943
58.009497869018218807469 813.39927183165775659 58.009497869018218807469 147.18770567550217265
60.009497869018190385759 816.53901742754499082 60.009497869018190385759 147.35270433822839209
62.009497869018190385759 819.54137999435852180 62.009497869018190385759 147.50883432513657567
64.009497869018218807469 822.41572595317688865 64.009497869018218807469 147.65621492915718704
66.009497869018190385759 825.17051882766315885 66.009497869018190385759 147.79163867102229801
68.009497869018190385759 827.81341776773604124 68.009497869018190385759 147.91862753356687676
70.009497869018190385759 830.35151115127632693 70.009497869018190385759 148.04157649619310178
72.009497869018190385759 832.79126631222391097 72.009497869018190385759 148.15763327540065575
74.009497869018218807469 835.13859657991486074 74.009497869018218807469 148.26858430093386687
76.009497869018190385759 837.39881540464773479 76.009497869018190385759 148.37405349473067417
78.009497869018190385759 839.57679240166851287 78.009497869018190385759 148.47223436473072411
80.009497869018218807469 841.67711022631772266 80.009497869018218807469 148.56958135096789420
82.009497869018190385759 843.70417515258975527 82.009497869018190385759 148.66549692154504214
84.009497869018218807469 845.66199540552884173 84.009497869018218807469 148.75481968224360685
86.009497869018190385759 847.55426606350806651 86.009497869018190385759 148.84100344199509891
88.009497869018190385759 849.38431029997866517 88.009497869018190385759 148.92431800279172194
91.009497869018218807469 852.01944573474577282 91.009497869018218807469 149.04608687141981704
94.009497869018218807469 854.53125378156096303 94.009497869018218807469 149.16824819988212880
97.009497869018218807469 856.92879412736351696 97.009497869018218807469 149.30078062628271596
99.504748934509137825444 858.84201794125385732 99.504748934509137825444 149.34953920804278482
nan nan nan nan

