Time Pressure difference Time.1 Pressure.1 difference.1
(hr) (psi) (hr) (psi)
0.000200000000020850166 0.23755083331055485 0.000200000000020850166 0.18964799828731757
0.000399999999999067768 0.47443262691879234 0.000399999999999067768 0.49385035180219627
0.000600000000019917934 0.71074611733537008 0.000600000000019917934 0.72135532492577159
0.000799999999998135536 0.94654162465872216 0.000799999999998135536 0.95225960440431934
0.001007140329434719206 1.19024576711167729 0.001007140329434719206 1.19391784150287572
0.001267914553977789183 1.49635537767427085 0.001267914553977789183 1.49928222674976208
0.001596209851982166583 1.88068168715415451 0.001596209851982166583 1.88183494370601467
0.002009509145224797066 2.36295807849297823 0.002009509145224797066 2.36063372673776328
0.002529822128153114136 2.96777108479292062 0.002529822128153114136 2.95921500930840820
0.003184857364431081805 3.72569127595212191 0.003184857364431081805 3.70653312237759724
0.004009497869034817086 4.67463641770164617 0.004009497869034817086 4.63804205503222278
0.005047658755856332391 5.86149997508375264 0.005047658755856332391 5.79690895696033603
0.006354625877790454069 7.34407225758836457 0.006354625877790454069 7.23533549421191857
0.008000000000009777068 9.19327611924430244 0.008000000000009777068 9.01592850156286119
0.010071403294361402914 11.49571731064068558 0.010071403294361402914 11.21299544117668923
0.012679145539692626699 14.35651372545111037 0.012679145539692626699 13.91358432308486215
0.015962098519750611558 17.90232009353040610 0.015962098519750611558 17.21802689171538248
0.020095091452091651263 22.28440059251489558 0.020095091452091651263 21.23947915353972249
0.025298221281360611101 27.68143200385163993 0.025298221281360611101 26.10198381604501705
0.031848573644296607199 34.30166969267437338 0.031848573644296607199 31.93634769321348799
0.040094978690191851456 42.38383194081083616 0.040094978690191851456 38.87277386050610772
0.050476587558435426217 52.19584494752879777 0.050476587558435426217 47.02939287309448702
0.063546258777947173257 64.03040831006549638 0.063546258777947173257 56.49575613454213396
0.080000000000012505552 78.19609086556607735 0.080000000000012505552 67.31090176496979893
0.100714032943542974863 95.00273790765223225 0.100714032943542974863 79.43531691394953498
0.126791455396883634421 114.73959281109456754 0.126791455396883634421 92.72223278859031836
0.159620985197506115583 137.64742478247046620 0.159620985197506115583 106.88721206246528084
0.200950914520774404082 163.88260604233104800 0.200950914520774404082 121.49344005288249093
0.252982212813464002465 193.48246075990431336 0.252982212813464002465 135.95424162343323360
0.318485736442809752589 226.33056213023908754 0.318485736442809752589 149.56885307715168665
0.400949786901833249431 262.13867910419719465 0.400949786901833249431 161.60687957176554619
0.504765875584169521062 300.45112851643443719 0.504765875584169521062 171.41247386665565955
0.635462587779443310865 340.67485569882569507 0.635462587779443310865 178.53257827478876152
0.800000000000011368684 382.14284205542770678 0.800000000000011368684 182.82230855469489939
1.007140329435344483500 424.19245683332849239 1.007140329435344483500 184.47647571301772018
1.267914553968907398485 466.24281329876237123 1.267914553968907398485 184.00214786165864211
1.596209851975117999245 507.85950622474450711 1.596209851975117999245 182.10165358157900073
2.009509145207687197399 548.77703054374455860 2.009509145207687197399 179.52401027824512880
2.529822128134725289783 588.89398270203480479 2.529822128134725289783 176.96537895874331525
3.184857364427983839050 628.24832765805376766 3.184857364427983839050 174.93697254440675692
4.009497869018204596614 666.95150757341548342 4.009497869018204596614 173.73812127042839393
5.009497869018190385759 703.90041917509188352 5.009497869018190385759 173.47283255411858249
6.009497869018190385759 733.84129404573548072 6.009497869018190385759 173.90906740577776191
7.009497869018204596614 759.02179556296096052 7.009497869018204596614 174.70558447417474213
8.009497869018190385759 780.74796254144598606 8.009497869018190385759 175.66051551076134274
9.009497869018204596614 799.84647563938528947 9.009497869018204596614 176.68598600763468198
10.009497869018190385759 816.87469157938801345 10.009497869018190385759 177.71970595782315172
11.009497869018190385759 832.22703235897984086 11.009497869018190385759 178.68293597805259765
12.009497869018204596614 846.19317551135918620 12.009497869018204596614 179.60882015105553933
13.009497869018190385759 858.99151547486155778 13.009497869018190385759 180.49098268923918909
14.009497869018204596614 870.79388079603654660 14.009497869018204596614 181.32717343452290493
15.009497869018190385759 881.73552240526885271 15.009497869018190385759 182.12381550705026712
16.009497869018190385759 891.92599198590687593 16.009497869018190385759 182.87577186282084085
17.009497869018204596614 901.45512502319206760 17.009497869018204596614 183.57276814386338515
18.009497869018190385759 910.39669166838802994 18.009497869018190385759 184.22270839919605123
19.009497869018204596614 918.81190265726343114 19.009497869018204596614 184.80622866194840981
20.009497869018190385759 926.75325650951685930 20.009497869018190385759 185.35734807962990089
21.009497869018190385759 934.26546410231958362 21.009497869018190385759 185.87932918202065480
22.009497869018204596614 941.38679675381661127 22.009497869018204596614 186.38247522602557638
23.009497869018190385759 948.15406580955584559 23.009497869018190385759 186.87744871229227783
24.009497869018204596614 954.59817722778348070 24.009497869018204596614 187.34713316417580131
25.009497869018204596614 960.74560267662809565 25.009497869018204596614 187.80033442881199335
26.009497869018190385759 966.61955156894987340 26.009497869018190385759 188.22091898787260789
27.009497869018204596614 972.24119237725221865 27.009497869018204596614 188.60754696737683389
28.009497869018190385759 977.62739410545350438 28.009497869018190385759 188.96653191643392233
29.009497869018190385759 982.79200897644750512 29.009497869018190385759 189.30741695333227881
30.009497869018190385759 987.74985981317149708 30.009497869018190385759 189.62877663393916805
31.009497869018218807469 992.51554562914213875 31.009497869018218807469 189.92415715734080095
32.009497869018190385759 997.10170462322037110 32.009497869018190385759 190.20142101437016890
33.009497869018190385759 1001.51976310424481653 33.009497869018190385759 190.48473709378617968
34.009497869018218807469 1005.78048352992561831 34.009497869018218807469 190.75078995554434869
35.009497869018190385759 1009.89298676390421861 35.009497869018190385759 191.00814790947404731
36.009497869018190385759 1013.86574239731896796 36.009497869018190385759 191.25964934986063781
37.009497869018190385759 1017.70661493329055247 37.009497869018190385759 191.50218256629224811
38.009497869018218807469 1021.42255458305589855 38.009497869018218807469 191.73575909417192520
39.009497869018190385759 1025.02007988118771209 39.009497869018190385759 191.95644495529234064
40.009497869018190385759 1028.50524192925013267 40.009497869018190385759 192.16306342072948610
41.009497869018218807469 1031.88372804780055958 41.009497869018218807469 192.36854200093591771
42.009497869018190385759 1035.16075351146992034 42.009497869018190385759 192.56298244829483224
43.009497869018190385759 1038.34115859104349511 43.009497869018190385759 192.74971725592385496
44.009497869018218807469 1041.42967797438950583 44.009497869018218807469 192.92715209132126120
46.009497869018190385759 1047.34815205327367948 46.009497869018190385759 193.26339138107761073
48.009497869018218807469 1052.94730134012934286 48.009497869018218807469 193.57848816535667424
50.009497869018190385759 1058.25411334189902846 50.009497869018190385759 193.87375859309011616
52.009497869018190385759 1063.29263367175212807 52.009497869018190385759 194.15168054169646439
54.009497869018218807469 1068.08421846895134877 54.009497869018218807469 194.41411324100533875
56.009497869018190385759 1072.64799490150039674 56.009497869018190385759 194.66012979622766466
58.009497869018218807469 1077.00088770302841112 58.009497869018218807469 194.88742510737790781
60.009497869018190385759 1081.15814344573095696 60.009497869018190385759 195.10589555895055014
62.009497869018190385759 1085.13349388141932650 62.009497869018190385759 195.31262322680123589
64.009497869018218807469 1088.93934084541001539 64.009497869018218807469 195.50776606360625465
66.009497869018190385759 1092.58689066996157635 66.009497869018190385759 195.68707712922397945
68.009497869018190385759 1096.08628463690979515 68.009497869018190385759 195.85521978981540769
70.009497869018190385759 1099.44690828363445689 70.009497869018190385759 196.01801332366306951
72.009497869018190385759 1102.67732483933332333 72.009497869018190385759 196.17168109613234606
74.009497869018218807469 1105.78536399007248292 74.009497869018218807469 196.31858847253280942
76.009497869018190385759 1108.77806113763540452 76.009497869018190385759 196.45823749765264665
78.009497869018190385759 1111.66186401332038258 78.009497869018190385759 196.58823624218976533
80.009497869018218807469 1114.44284039225408378 80.009497869018218807469 196.71713086285564032
82.009497869018190385759 1117.12682450759575659 82.009497869018190385759 196.84413018315686372
84.009497869018218807469 1119.71912354620940278 84.009497869018218807469 196.96240013482255904
86.009497869018190385759 1122.22463006557109111 86.009497869018190385759 197.07651381671573176
88.009497869018190385759 1124.64774419349032542 88.009497869018190385759 197.18682846665939223
91.009497869018218807469 1128.13685870433937453 91.009497869018218807469 197.34805946863920667
94.009497869018218807469 1131.46267861817796074 94.009497869018218807469 197.50981011651063568
97.009497869018218807469 1134.63719963160156112 97.009497869018218807469 197.68529286628174191
99.504748934509137825444 1137.17044968147502004 99.504748934509137825444 197.74985284027889065
nan nan nan nan

