Time Pressure difference Time.1 Pressure.1 difference.1
(hr) (psi) (hr) (psi)
0.000200000000020850166 0.73424803023262408 0.000200000000020850166 0.58618472197898164
0.000399999999999067768 1.46642811956717667 0.000399999999999067768 1.52644654193406137
0.000600000000019917934 2.19685163540023476 0.000600000000019917934 2.22964373158874851
0.000799999999998135536 2.92567411258150489 0.000799999999998135536 2.94334786815880545
0.001007140329434719206 3.67894146198154814 0.001007140329434719206 3.69029151009979728
0.001267914553977789183 4.62509844008410997 0.001267914553977789183 4.63414506449926478
0.001596209851982166583 5.81301612393102296 0.001596209851982166583 5.81658073509131768
0.002009509145224797066 7.30368860625102378 0.002009509145224797066 7.29650424628036021
0.002529822128153114136 9.17311062572357194 0.002529822128153114136 9.14666457422598889
0.003184857364431081805 11.51577303476110359 0.003184857364431081805 11.45655692371257395
0.004009497869034817086 14.44887620016872454 0.004009497869034817086 14.33576635191777804
0.005047658755856332391 18.11736355934977993 0.005047658755856332391 17.91771859424103752
0.006354625877790454069 22.69985970527312702 0.006354625877790454069 22.36376425483684116
0.008000000000009777068 28.41558073220966207 0.008000000000009777068 27.86741536846702871
0.010071403294361402914 35.53221714198030412 0.010071403294361402914 34.65834954545522351
0.012679145539692626699 44.37467878775798624 0.012679145539692626699 43.00562427135321286
0.015962098519750611558 55.33444392545762014 0.015962098519750611558 53.21935584712026923
0.020095091452091651263 68.87905637686421301 0.020095091452091651263 65.64929920185005585
0.025298221281360611101 85.56078983008687544 0.025298221281360611101 80.67885906777551952
0.031848573644296607199 106.02334268644807480 0.031848573644296607199 98.71234741538714275
0.040094978690191851456 131.00457145341533760 0.040094978690191851456 120.15221011429160569
0.050476587558435426217 161.33261165599810738 0.050476587558435426217 145.36357797138296633
0.063546258777947173257 197.91217114020244594 0.063546258777947173257 174.62324623403935675
0.080000000000012505552 241.69700812993147565 0.080000000000012505552 208.05187818263391364
0.100714032943542974863 293.64482626001597509 0.100714032943542974863 245.52734318857125118
0.126791455396883634421 354.64965050701960081 0.126791455396883634421 286.59599225564278413
0.159620985197506115583 425.45567660036323332 0.159620985197506115583 330.37865546580178489
0.200950914520774404082 506.54623685811424139 0.200950914520774404082 375.52517834527316154
0.252982212813464002465 598.03669689424975786 0.252982212813464002465 420.22220138152090385
0.318485736442809752589 699.56719203892077985 0.318485736442809752589 462.30372769301436620
0.400949786901833249431 810.24682632206418020 0.400949786901833249431 499.51217322182083080
0.504765875584169521062 928.66712450534294021 0.504765875584169521062 529.82037376966297870
0.635462587779443310865 1052.99500852364326420 0.635462587779443310865 551.82796921298336201
0.800000000000011368684 1181.16878453495837675 0.800000000000011368684 565.08713553269330987
1.007140329435344483500 1311.14032112119707563 1.007140329435344483500 570.20001584023657415
1.267914553968907398485 1441.11415019617447797 1.267914553968907398485 568.73391157239950644
1.596209851975117999245 1569.74756469466456110 1.596209851975117999245 562.85965652488062005
2.009509145207687197399 1696.21991258975572237 2.009509145207687197399 554.89239540548487639
2.529822128134725289783 1820.21776471538032638 2.529822128134725289783 546.98389859975202398
3.184857364427983839050 1941.85846730671187288 3.184857364427983839050 540.71427877362089021
4.009497869018204596614 2061.48647795419310569 4.009497869018204596614 537.00873847223317625
5.009497869018190385759 2175.69220472301140035 5.009497869018190385759 536.18875516727553077
6.009497869018190385759 2268.23672705045510156 6.009497869018190385759 537.53711743604037565
7.009497869018204596614 2346.06736810369739032 7.009497869018204596614 539.99907928381276179
8.009497869018190385759 2413.22097512810569242 8.009497869018190385759 542.95068430598962550
9.009497869018204596614 2472.25274288537275424 9.009497869018204596614 546.12032038723441474
10.009497869018190385759 2524.88541033629053345 10.009497869018190385759 549.31545477872612082
11.009497869018190385759 2572.33810001866550010 11.009497869018190385759 552.29271120488976976
12.009497869018204596614 2615.50617885329211276 12.009497869018204596614 555.15453501235356271
13.009497869018190385759 2655.06468419502652978 13.009497869018190385759 557.88121922128470942
14.009497869018204596614 2691.54472246047635053 14.009497869018204596614 560.46580879761620508
15.009497869018190385759 2725.36434197992184636 15.009497869018190385759 562.92815702179166237
16.009497869018190385759 2756.86215704734877363 16.009497869018190385759 565.25238575780986139
17.009497869018204596614 2786.31584098077564704 17.009497869018204596614 567.40673789921413572
18.009497869018190385759 2813.95341061138105943 18.009497869018190385759 569.41564414296954055
19.009497869018204596614 2839.96406275881417969 19.009497869018204596614 571.21925222784045673
20.009497869018190385759 2864.51006557487016835 20.009497869018190385759 572.92271224612875358
21.009497869018190385759 2887.72961631626048984 21.009497869018190385759 574.53610838079112000
22.009497869018204596614 2909.74100814816029015 22.009497869018204596614 576.09128706226090344
23.009497869018190385759 2930.65802159317217956 23.009497869018190385759 577.62120511072157569
24.009497869018204596614 2950.57618415860360983 24.009497869018204596614 579.07295705290687238
25.009497869018204596614 2969.57731736412324608 25.009497869018204596614 580.47376096178254556
26.009497869018190385759 2987.73315939493568294 26.009497869018190385759 581.77374959887890782
27.009497869018204596614 3005.10914007514338664 27.009497869018204596614 582.96878153552836466
28.009497869018190385759 3021.75739996231095574 28.009497869018190385759 584.07837137806836836
29.009497869018190385759 3037.72075501811059439 29.009497869018190385759 585.13201603757261182
30.009497869018190385759 3053.04502124071223079 30.009497869018190385759 586.12530959581204115
31.009497869018218807469 3067.77532285371216858 31.009497869018218807469 587.03830394087162858
32.009497869018190385759 3081.95072338086265518 32.009497869018190385759 587.89530131714423078
33.009497869018190385759 3095.60654050402945359 33.009497869018190385759 588.77100556261177644
34.009497869018218807469 3108.77604000158817144 34.009497869018218807469 589.59335077168259431
35.009497869018190385759 3121.48741363388580794 35.009497869018190385759 590.38882081110148192
36.009497869018190385759 3133.76684013716749178 36.009497869018190385759 591.16618889956930616
37.009497869018190385759 3145.63862797562569540 37.009497869018190385759 591.91583702308514603
38.009497869018218807469 3157.12425962035422344 38.009497869018218807469 592.63780083653136899
39.009497869018190385759 3168.24388326912503544 39.009497869018190385759 593.31992077090353632
40.009497869018190385759 3179.01620232677305466 40.009497869018190385759 593.95855966407305004
41.009497869018218807469 3189.45879578411131661 41.009497869018218807469 594.59367527562017131
42.009497869018190385759 3199.58778358090739857 42.009497869018190385759 595.19467302200212089
43.009497869018190385759 3209.41812655413468747 43.009497869018190385759 595.77185333649185850
44.009497869018218807469 3218.96445919356756349 44.009497869018218807469 596.32028828226566475
46.009497869018190385759 3237.25792452830046386 46.009497869018190385759 597.35957335969442283
48.009497869018218807469 3254.56438596039970435 48.009497869018218807469 598.33350887473875446
50.009497869018190385759 3270.96725942041484814 50.009497869018190385759 599.24616292409677953
52.009497869018190385759 3286.54086771268794109 52.009497869018190385759 600.10519440160726390
54.009497869018218807469 3301.35122072221338385 54.009497869018218807469 600.91635001765280322
56.009497869018190385759 3315.45743878645544100 56.009497869018190385759 601.67676482470369592
58.009497869018218807469 3328.91183471845124586 58.009497869018218807469 602.37931396825888442
60.009497869018190385759 3341.76153428680436264 60.009497869018190385759 603.05458627311986675
62.009497869018190385759 3354.04898108802308343 62.009497869018190385759 603.69356270102196049
64.009497869018218807469 3365.81250806763091532 64.009497869018218807469 604.29673146932850614
66.009497869018190385759 3377.08675297988065722 66.009497869018190385759 604.85096567214668539
68.009497869018190385759 3387.90306160499403632 68.009497869018190385759 605.37067935033849153
70.009497869018190385759 3398.29044378577873431 70.009497869018190385759 605.87385936404950826
72.009497869018190385759 3408.27536768521258637 72.009497869018190385759 606.34883247895447766
74.009497869018218807469 3417.88203415113321171 74.009497869018218807469 606.80290982419228385
76.009497869018190385759 3427.13218897087335790 76.009497869018190385759 607.23455226547184793
78.009497869018190385759 3436.04576149571721544 78.009497869018190385759 607.63636656676840175
80.009497869018218807469 3444.64150666696696135 80.009497869018218807469 608.03476812155383868
82.009497869018190385759 3452.93745756893213184 82.009497869018190385759 608.42731147521215007
84.009497869018218807469 3460.95001823373831940 84.009497869018218807469 608.79287314399698516
86.009497869018190385759 3468.69431111176436389 86.009497869018190385759 609.14558816075771119
88.009497869018190385759 3476.18393659806088181 88.009497869018190385759 609.48656071512903054
91.009497869018218807469 3486.96847235886662020 91.009497869018218807469 609.98491108488485679
94.009497869018218807469 3497.24827936527708516 94.009497869018218807469 610.48486763285097823
97.009497869018218807469 3507.06043522495065190 97.009497869018218807469 611.02726885941626733
99.504748934509137825444 3514.89048083364968988 99.504748934509137825444 611.22681786995292441
nan nan nan nan

