Time Pressure difference Time.1 Pressure.1 difference.1
(hr) (psi) (hr) (psi)
0.000200000000020850166 0.04069926864411604 0.000200000000020850166 0.03249213956670825
0.000399999999999067768 0.08128391160496794 0.000399999999999067768 0.08461072460946720
0.000600000000019917934 0.12177118793508089 0.000600000000019917934 0.12358884937539442
0.000799999999998135536 0.16216971891006079 0.000799999999998135536 0.16314937278255820
0.001007140329434719206 0.20392322583381883 0.001007140329434719206 0.20455235746028291
0.001267914553977789183 0.25636857869244500 0.001267914553977789183 0.25687003185572849
0.001596209851982166583 0.32221469465228519 0.001596209851982166583 0.32241228056501647
0.002009509145224797066 0.40484246799355222 0.002009509145224797066 0.40444423989563077
0.002529822128153114136 0.50846427676522066 0.002529822128153114136 0.50699837572067130
0.003184857364431081805 0.63831773608969922 0.003184857364431081805 0.63503539509266527
0.004009497869034817086 0.80089924638944288 0.004009497869034817086 0.79462958285517094
0.005047658755856332391 1.00424300272413958 0.005047658755856332391 0.99317670940928848
0.006354625877790454069 1.25825014203437013 0.006354625877790454069 1.23962041684050361
0.008000000000009777068 1.57507178266773029 0.008000000000009777068 1.54468705096706382
0.010071403294361402914 1.96954597280207544 0.010071403294361402914 1.92110761055125079
0.012679145539692626699 2.45968242149337257 0.012679145539692626699 2.38379591549356018
0.015962098519750611558 3.06718071532513958 0.015962098519750611558 2.94994167025892917
0.020095091452091651263 3.81795674487143266 0.020095091452091651263 3.63893174308897294
0.025298221281360611101 4.74262296569486086 0.025298221281360611101 4.47201820624547519
0.031848573644296607199 5.87685949280085485 0.031848573644296607199 5.47161201736874414
0.040094978690191851456 7.26156561223682129 0.040094978690191851456 6.66002069638041672
0.050476587558435426217 8.94264476373745154 0.050476587558435426217 8.05748339434136263
0.063546258777947173257 10.97024478039583784 0.063546258777947173257 9.67934283423973696
0.080000000000012505552 13.39723235109348920 0.080000000000012505552 11.53228736532699195
0.100714032943542974863 16.27669285830405599 0.100714032943542974863 13.60954730343890695
0.126791455396883634421 19.65818198511760073 0.126791455396883634421 15.88597694629694423
0.159620985197506115583 23.58295039979388719 0.159620985197506115583 18.31284402468810768
0.200950914520774404082 28.07778914711266438 0.200950914520774404082 20.81530965940993738
0.252982212813464002465 33.14909292739619673 0.252982212813464002465 23.29285957883995906
0.318485736442809752589 38.77691449084515796 0.318485736442809752589 25.62543286986165114
0.400949786901833249431 44.91187159477504309 0.400949786901833249431 27.68789195460318808
0.504765875584169521062 51.47589264792058827 0.504765875584169521062 29.36787139673471003
0.635462587779443310865 58.36737038196664429 0.635462587779443310865 30.58774942470157043
0.800000000000011368684 65.47202538711873387 0.800000000000011368684 31.32270321391625956
1.007140329435344483500 72.67633001689893035 1.007140329435344483500 31.60610947530723180
1.267914553968907398485 79.88076171901872158 1.267914553968907398485 31.52484351475969504
1.596209851975117999245 87.01089442312056121 1.596209851975117999245 31.19923435488591323
2.009509145207687197399 94.02123949875344522 2.009509145207687197399 30.75761015256647113
2.529822128134725289783 100.89442360978918600 2.529822128134725289783 30.31924324817630279
3.184857364427983839050 107.63695124211410814 3.184857364427983839050 29.97171907229346743
4.009497869018204596614 114.26791563320755074 4.009497869018204596614 29.76632147640206227
5.009497869018190385759 120.59832356496329453 5.009497869018190385759 29.72086991311821791
6.009497869018190385759 125.72805387496865137 6.009497869018190385759 29.79560945064024224
7.009497869018204596614 130.04219574330451792 7.009497869018204596614 29.93207566165930800
8.009497869018190385759 133.76451106479319719 8.009497869018190385759 30.09568272736820305
9.009497869018204596614 137.03663393821636873 9.009497869018204596614 30.27137522508425960
10.009497869018190385759 139.95405555031473455 10.009497869018190385759 30.44848109067599395
11.009497869018190385759 142.58435169786719143 11.009497869018190385759 30.61351001022579155
12.009497869018204596614 144.97715244775034193 12.009497869018204596614 30.77214051539063533
13.009497869018190385759 147.16987502890984274 13.009497869018190385759 30.92328025095357091
14.009497869018204596614 149.19195859792233705 14.009497869018204596614 31.06654370032035573
15.009497869018190385759 151.06657551698663156 15.009497869018190385759 31.20303132813099012
16.009497869018190385759 152.81249513045258936 16.009497869018190385759 31.33186301146231045
17.009497869018204596614 154.44510883264479162 17.009497869018204596614 31.45127845821435741
18.009497869018190385759 155.97705556556297779 18.009497869018190385759 31.56263185860352039
19.009497869018204596614 157.41882248323744875 19.009497869018204596614 31.66260560991423745
20.009497869018190385759 158.77940408729486421 20.009497869018190385759 31.75702816748903956
21.009497869018190385759 160.06646063291486826 21.009497869018190385759 31.84645849622032188
22.009497869018204596614 161.28654909418534658 22.009497869018204596614 31.93266183942396452
23.009497869018190385759 162.44597631002881144 23.009497869018190385759 32.01746498916895689
24.009497869018204596614 163.55003735720765690 24.009497869018204596614 32.09793540225388853
25.009497869018204596614 164.60326759145027609 25.009497869018204596614 32.17558177276848852
26.009497869018190385759 165.60964345062427583 26.009497869018190385759 32.24763996645369701
27.009497869018204596614 166.57279170099775456 27.009497869018204596614 32.31388042448065079
28.009497869018190385759 167.49560248659867057 28.009497869018190385759 32.37538483882958218
29.009497869018190385759 168.38044909037037655 29.009497869018190385759 32.43378821927721134
30.009497869018190385759 169.22987108687206614 30.009497869018190385759 32.48884634637418856
31.009497869018218807469 170.04636970569220011 31.009497869018218807469 32.53945349898496175
32.009497869018190385759 170.83211023264965434 32.009497869018190385759 32.58695674721726476
33.009497869018190385759 171.58905032205592534 33.009497869018190385759 32.63549691466965896
34.009497869018218807469 172.31903389149076133 34.009497869018218807469 32.68107939797788219
35.009497869018190385759 173.02362360640319139 35.009497869018190385759 32.72517219428051760
36.009497869018190385759 173.70427055058959809 36.009497869018190385759 32.76826160189919790
37.009497869018190385759 174.36232213892043319 37.009497869018190385759 32.80981449562349894
38.009497869018218807469 174.99896914185222840 38.009497869018218807469 32.84983285179868773
39.009497869018190385759 175.61532837125241713 39.009497869018190385759 32.88764266716546558
40.009497869018190385759 176.21243655431206321 40.009497869018190385759 32.92304233432079030
41.009497869018218807469 176.79126809210569604 41.009497869018218807469 32.95824670645405519
42.009497869018190385759 177.35271651070641497 42.009497869018190385759 32.99155992995260789
43.009497869018190385759 177.89761108727671512 43.009497869018190385759 33.02355295643450006
44.009497869018218807469 178.42676300959823266 44.009497869018218807469 33.05395263103056180
46.009497869018190385759 179.44076730982661161 46.009497869018190385759 33.11156006179301414
48.009497869018218807469 180.40006211771444100 48.009497869018218807469 33.16554517518348888
50.009497869018190385759 181.30927116696872758 50.009497869018190385759 33.21613346524970467
52.009497869018190385759 182.17251416054492097 52.009497869018190385759 33.26374946343750594
54.009497869018218807469 182.99345001740772432 54.009497869018218807469 33.30871170912328694
56.009497869018190385759 183.77535576983746068 56.009497869018190385759 33.35086139865438781
58.009497869018218807469 184.52113110995941270 58.009497869018218807469 33.38980360231299471
60.009497869018190385759 185.23338821273009103 60.009497869018190385759 33.42723385450550921
62.009497869018190385759 185.91447972094246666 62.009497869018190385759 33.46265223116524368
64.009497869018218807469 186.56653042456326830 64.009497869018218807469 33.49608579411435727
66.009497869018190385759 187.19146028960878425 66.009497869018190385759 33.52680692074117275
68.009497869018190385759 187.79100680842159932 68.009497869018190385759 33.55561457937396597
70.009497869018190385759 188.36677799265063982 70.009497869018190385759 33.58350577922898594
72.009497869018190385759 188.92024096897671370 72.009497869018190385759 33.60983347451218606
74.009497869018218807469 189.45273718711032984 74.009497869018218807469 33.63500292011925552
76.009497869018190385759 189.96547201309138586 76.009497869018190385759 33.65892880204538073
78.009497869018190385759 190.45955012815628038 78.009497869018190385759 33.68120131422132602
80.009497869018218807469 190.93601111615541299 80.009497869018218807469 33.70328465832142228
82.009497869018190385759 191.39585454850416113 82.009497869018190385759 33.72504328312827226
84.009497869018218807469 191.83998969847644389 84.009497869018218807469 33.74530631680526938
86.009497869018190385759 192.26925480144396374 86.009497869018190385759 33.76485726230443873
88.009497869018190385759 192.68440372545811101 88.009497869018190385759 33.78375732470737347
91.009497869018218807469 193.28218907871547572 91.009497869018218807469 33.81138081805357132
94.009497869018218807469 193.85199738563187566 94.009497869018218807469 33.83909334163993066
97.009497869018218807469 194.39588385296670481 97.009497869018218807469 33.86915856799931390
99.504748934509137825444 194.82990221815481391 99.504748934509137825444 33.88021954256526413
nan nan nan nan

