Time Pressure difference Time.1 Pressure.1 difference.1
(hr) (psi) (hr) (psi)
0.000200000000020850166 0.20598813517838324 0.000200000000020850166 0.16445001250089075
0.000399999999999067768 0.41139612404147030 0.000399999999999067768 0.42823387149281356
0.000600000000019917934 0.61631131852857268 0.000600000000019917934 0.62551091112444523
0.000799999999998135536 0.82077735285091991 0.000799999999998135536 0.82573560102192733
0.001007140329434719206 1.03210122462830767 0.001007140329434719206 1.03528540102347266
0.001267914553977789183 1.29753892889237465 0.001267914553977789183 1.30007689592287057
0.001596209851982166583 1.63080090354625984 0.001596209851982166583 1.63180093020661388
0.002009509145224797066 2.04899861351838686 0.002009509145224797066 2.04698309171666182
0.002529822128153114136 2.57345184975050412 0.002529822128153114136 2.56603259548421381
0.003184857364431081805 3.23066935816827350 0.003184857364431081805 3.21405669353022416
0.004009497869034817086 4.05353087968534354 0.004009497869034817086 4.02179870506290627
0.005047658755856332391 5.08269927909360408 0.005047658755856332391 5.02669028435721454
0.006354625877790454069 6.36828643315354714 0.006354625877790454069 6.27399721176418090
0.008000000000009777068 7.97179187962443159 0.008000000000009777068 7.81800793142513939
0.010071403294361402914 9.96831431132479118 0.010071403294361402914 9.72315688605531037
0.012679145539692626699 12.44900490878278099 0.012679145539692626699 12.06492626617148822
0.015962098519750611558 15.52369015103335848 0.015962098519750611558 14.93031702498396740
0.020095091452091651263 19.32353617812480451 0.020095091452091651263 18.41745045481765786
0.025298221281360611101 24.00347949984337959 0.025298221281360611101 22.63388806426281263
0.031848573644296607199 29.74410518805330383 0.031848573644296607199 27.69305674096834124
0.040094978690191851456 36.75241371091289011 0.040094978690191851456 33.70785985106823546
0.050476587558435426217 45.26073268177322717 0.050476587558435426217 40.78073228156445396
0.063546258777947173257 55.52287154159525784 0.063546258777947173257 48.98932699778479360
0.080000000000012505552 67.80640047084051503 0.080000000000012505552 58.36749523675702278
0.100714032943542974863 82.37999650733480905 0.100714032943542974863 68.88097410720099845
0.126791455396883634421 99.49447208794214248 0.126791455396883634421 80.40249556493147054
0.159620985197506115583 119.35860610507928925 0.159620985197506115583 92.68541465556428705
0.200950914520774404082 142.10799405069266754 0.200950914520774404082 105.35095501089109860
0.252982212813464002465 167.77500093865830877 0.252982212813464002465 117.89039133780225654
0.318485736442809752589 196.25866925978772315 0.318485736442809752589 129.69606840256508917
0.400949786901833249431 227.30906439804513752 0.400949786901833249431 140.13463683146102312
0.504765875584169521062 260.53104850376132617 0.504765875584169521062 148.63738992633076919
0.635462587779443310865 295.41036438219850879 0.635462587779443310865 154.81146647604057875
0.800000000000011368684 331.36861828582544831 0.800000000000011368684 158.53123259288230429
1.007140329435344483500 367.83122131001908883 1.007140329435344483500 159.96561530359579706
1.267914553968907398485 404.29446747584995592 1.267914553968907398485 159.55431003388582667
1.596209851975117999245 440.38166973334483600 1.596209851975117999245 157.90632897983076077
2.009509145207687197399 475.86259991205821507 2.009509145207687197399 155.67116975176500659
2.529822128134725289783 510.64932765770851120 2.529822128134725289783 153.45249643974943865
3.184857364427983839050 544.77477363355717443 3.184857364427983839050 151.69359856997508018
4.009497869018204596614 578.33557300072402541 4.009497869018204596614 150.65403522750432330
5.009497869018190385759 610.37518865532445034 5.009497869018190385759 150.42399466231262295
6.009497869018190385759 636.33790532637203796 6.009497869018190385759 150.80226823997512042
7.009497869018204596614 658.17274580284731655 7.009497869018204596614 151.49295436921445912
8.009497869018190385759 677.01221926670837092 8.009497869018190385759 152.32100645688396412
9.009497869018204596614 693.57316768729913292 9.009497869018204596614 153.21022562899790387
10.009497869018190385759 708.33889339751135594 10.009497869018190385759 154.10659817321726450
11.009497869018190385759 721.65141267491958388 11.009497869018190385759 154.94184658236730456
12.009497869018204596614 733.76191442943036236 12.009497869018204596614 155.74471117993627445
13.009497869018190385759 744.85977565652342491 13.009497869018190385759 156.50966331094866746
14.009497869018204596614 755.09399453642333810 14.009497869018204596614 157.23475178937650298
15.009497869018190385759 764.58185159617721638 15.009497869018190385759 157.92554631380582464
16.009497869018190385759 773.41834270106619442 16.009497869018190385759 158.57759238454391948
17.009497869018204596614 781.68136715297782757 17.009497869018204596614 159.18198076810531916
18.009497869018190385759 789.43489347468607775 18.009497869018190385759 159.74556532517698315
19.009497869018204596614 796.73199950699768124 19.009497869018204596614 160.25155492364754650
20.009497869018190385759 803.61820844181886514 20.009497869018190385759 160.72944868443431687
21.009497869018190385759 810.13229055026317837 21.009497869018190385759 161.18207565433959871
22.009497869018204596614 816.30743215016264003 22.009497869018204596614 161.61837012606414987
23.009497869018190385759 822.17555356912532716 23.009497869018190385759 162.04757790436534037
24.009497869018204596614 827.76345437933673566 24.009497869018204596614 162.45485672977480363
25.009497869018204596614 833.09408903427890891 25.009497869018204596614 162.84784244176702828
26.009497869018190385759 838.18758317866968355 26.009497869018190385759 163.21254513633709848
27.009497869018204596614 843.06229269076413857 27.009497869018204596614 163.54780296471835754
28.009497869018190385759 847.73284523829534010 28.009497869018190385759 163.85909061285175881
29.009497869018190385759 852.21125253901743690 29.009497869018190385759 164.15468323226016878
30.009497869018190385759 856.51036794988306156 30.009497869018190385759 164.43334477348571454
31.009497869018218807469 860.64285075534007774 31.009497869018218807469 164.68947893363818480
32.009497869018190385759 864.61965995300226950 32.009497869018190385759 164.92990353693636507
33.009497869018190385759 868.45070367081359564 33.009497869018190385759 165.17557622118519589
34.009497869018218807469 872.14531438958579201 34.009497869018218807469 165.40627940201048318
35.009497869018190385759 875.71140110995895611 35.009497869018190385759 165.62944294248097776
36.009497869018190385759 879.15630809278002289 36.009497869018190385759 165.84752810757146335
37.009497869018190385759 882.48685490718901292 37.009497869018190385759 166.05783663091077074
38.009497869018218807469 885.70906830978276503 38.009497869018218807469 166.26037851522599453
39.009497869018190385759 888.82860073613460372 39.009497869018190385759 166.45174247871503326
40.009497869018190385759 891.85069929529379351 40.009497869018190385759 166.63090814105214577
41.009497869018218807469 894.78029564984115041 41.009497869018218807469 166.80908537144094339
42.009497869018190385759 897.62191213582013916 42.009497869018190385759 166.97769107404585043
43.009497869018190385759 900.37974591111469636 43.009497869018190385759 167.13961496317872957
44.009497869018218807469 903.05790257919090891 44.009497869018218807469 167.29347454072612322
46.009497869018190385759 908.19000597626518356 46.009497869018190385759 167.58503868009529469
48.009497869018218807469 913.04521235088134290 48.009497869018218807469 167.85826945807150423
50.009497869018190385759 917.64692345731100431 50.009497869018190385759 168.11430815065159550
52.009497869018190385759 922.01599003704370716 52.009497869018190385759 168.35530340678576522
54.009497869018218807469 926.17093070034934499 54.009497869018218807469 168.58286742576686379
56.009497869018190385759 930.12833124325902645 56.009497869018190385759 168.79619646665895516
58.009497869018218807469 933.90286765857001683 58.009497869018218807469 168.99329170150249979
60.009497869018190385759 937.50776075014425714 60.009497869018190385759 169.18273461055852636
62.009497869018190385759 940.95491777130064293 62.009497869018190385759 169.36199496589756563
64.009497869018218807469 944.25509276105492518 64.009497869018218807469 169.53120973347674294
66.009497869018190385759 947.41800309842813022 66.009497869018190385759 169.68669625191446926
68.009497869018190385759 950.45244262221547160 68.009497869018190385759 169.83249827928048603
70.009497869018190385759 953.36654984035419602 70.009497869018190385759 169.97366190303651479
72.009497869018190385759 956.16775021033117810 72.009497869018190385759 170.10691227916370849
74.009497869018218807469 958.86283311027261789 74.009497869018218807469 170.23430049366479011
76.009497869018190385759 961.45789916829926369 76.009497869018190385759 170.35539475320931047
78.009497869018190385759 963.95853942413793902 78.009497869018190385759 170.46812093728343029
80.009497869018218807469 966.37001544503141304 80.009497869018218807469 170.57988969925943934
82.009497869018190385759 968.69738628630682342 82.009497869018190385759 170.69001498399615002
84.009497869018218807469 970.94525398412565664 84.009497869018218807469 170.79257074627972202
86.009497869018190385759 973.11786103587962771 86.009497869018190385759 170.89152247043881516
88.009497869018190385759 975.21902293701248254 88.009497869018190385759 170.98717992913122998
91.009497869018218807469 978.24454880655991929 91.009497869018218807469 171.12698863014867356
94.009497869018218807469 981.12847656401447693 94.009497869018218807469 171.26724793319800710
97.009497869018218807469 983.88120807215796049 97.009497869018218807469 171.41941479313939567
99.504748934509137825444 986.07787245106931096 99.504748934509137825444 171.47539686849358986
nan nan nan nan

