Time Pressure difference Time.1 Pressure.1 difference.1
(hr) (psi) (hr) (psi)
0.000200000000020850166 0.66780024469121024 0.000200000000020850166 0.53313633084966194
0.000399999999999067768 1.33371969245702471 0.000399999999999067768 1.38830658338799240
0.000600000000019917934 1.99804153264908235 0.000600000000019917934 2.02786601832279834
0.000799999999998135536 2.66090722456507933 0.000799999999998135536 2.67698154524850596
0.001007140329434719206 3.34600558306919060 0.001007140329434719206 3.35632847751158048
0.001267914553977789183 4.20653749528011822 0.001267914553977789183 4.21476542065317705
0.001596209851982166583 5.28695131633545490 0.001596209851982166583 5.29019333825047422
0.002009509145224797066 6.64272131156767376 0.002009509145224797066 6.63618711992014632
0.002529822128153114136 8.34296486773953738 0.002529822128153114136 8.31891212406979186
0.003184857364431081805 10.47362162890036963 0.003184857364431081805 10.41976444192862949
0.004009497869034817086 13.14128559381861372 0.004009497869034817086 13.03841193092974571
0.005047658755856332391 16.47778314673894329 0.005047658755856332391 16.29620559928709866
0.006354625877790454069 20.64557375909456383 0.006354625877790454069 20.33989418652581449
0.008000000000009777068 25.84403496458887872 0.008000000000009777068 25.34547732607181914
0.010071403294361402914 32.31663188026263356 0.010071403294361402914 31.52184732414704982
0.012679145539692626699 40.35887075266676050 0.012679145539692626699 39.11371257258821288
0.015962098519750611558 50.32680194125331496 0.015962098519750611558 48.40312454873834724
0.020095091452091651263 62.64565760972718067 0.020095091452091651263 59.70818615190886902
0.025298221281360611101 77.81773192691160546 0.025298221281360611101 73.37760485349717499
0.031848573644296607199 96.42847004514055698 0.031848573644296607199 89.77910330539735639
0.040094978690191851456 119.14895412731438284 0.040094978690191851456 109.27870693652765510
0.050476587558435426217 146.73237530703903531 0.050476587558435426217 132.20850304184602919
0.063546258777947173257 180.00156741710719643 0.063546258777947173257 158.82023752507649306
0.080000000000012505552 219.82397571998293984 0.080000000000012505552 189.22365391271227963
0.100714032943542974863 267.07063383829506620 0.100714032943542974863 223.30767412173227626
0.126791455396883634421 322.55465951090917542 0.126791455396883634421 260.65970336372942029
0.159620985197506115583 386.95290043743443675 0.159620985197506115583 300.48013460916814665
0.200950914520774404082 460.70494845466492961 0.200950914520774404082 341.54099930950184216
0.252982212813464002465 543.91572884952131517 0.252982212813464002465 382.19304288545566806
0.318485736442809752589 636.25794389060206413 0.318485736442809752589 420.46628627283200785
0.400949786901833249431 736.92132167753345584 0.400949786901833249431 454.30745166328495088
0.504765875584169521062 844.62485079445207248 0.504765875584169521062 481.87282863213687278
0.635462587779443310865 957.70134259390169973 0.635462587779443310865 501.88878647877675121
0.800000000000011368684 1074.27568186211124157 0.800000000000011368684 513.94802824466682978
1.007140329435344483500 1192.48508844054595102 1.007140329435344483500 518.59820445197999561
1.267914553968907398485 1310.69658004267466822 1.267914553968907398485 517.26477930340399780
1.596209851975117999245 1427.68896155487595934 1.596209851975117999245 511.92213104751579067
2.009509145207687197399 1542.71584810199533422 2.009509145207687197399 504.67588903394783983
2.529822128134725289783 1655.49217514837778253 2.529822128134725289783 497.48309329660713729
3.184857364427983839050 1766.12466936040300425 3.184857364427983839050 491.78085988008058393
4.009497869018204596614 1874.92661569589517967 4.009497869018204596614 488.41066259239300962
5.009497869018190385759 1978.79698257613245005 5.009497869018190385759 487.66488592136829539
6.009497869018190385759 2062.96643500969003071 6.009497869018190385759 488.89122445540311901
7.009497869018204596614 2133.75357913503739837 7.009497869018204596614 491.13038432600171745
8.009497869018190385759 2194.82993665497406255 8.009497869018190385759 493.81487577151091273
9.009497869018204596614 2248.51946298624397969 9.009497869018204596614 496.69766695852536031
10.009497869018190385759 2296.38899311128670888 10.009497869018190385759 499.60364891639790130
11.009497869018190385759 2339.54732173643333226 11.009497869018190385759 502.31147037186815396
12.009497869018204596614 2378.80878710186289027 12.009497869018204596614 504.91430559947082202
13.009497869018190385759 2414.78733720905165683 13.009497869018190385759 507.39423105646261547
14.009497869018204596614 2447.96601454550136623 14.009497869018204596614 509.74492112362383978
15.009497869018190385759 2478.72503501341316223 15.009497869018190385759 511.98443240443498325
16.009497869018190385759 2507.37236907926308049 16.009497869018190385759 514.09832369827950060
17.009497869018204596614 2534.16056125400882593 17.009497869018204596614 516.05771184498655657
18.009497869018190385759 2559.29699336148269140 18.009497869018190385759 517.88481661871890083
19.009497869018204596614 2582.95374033720236184 19.009497869018204596614 519.52520225247030794
20.009497869018190385759 2605.27838543234838653 20.009497869018190385759 521.07450299308538888
21.009497869018190385759 2626.39661936456286639 21.009497869018190385759 522.54189042777841223
22.009497869018204596614 2646.41603003520458515 22.009497869018204596614 523.95632895707888110
23.009497869018190385759 2665.44010108700331330 23.009497869018190385759 525.34779288350694060
24.009497869018204596614 2683.55571500397854834 24.009497869018204596614 526.66816455943114761
25.009497869018204596614 2700.83728864338809217 25.009497869018204596614 527.94219888379313943
26.009497869018190385759 2717.35006804697786720 26.009497869018190385759 529.12454149038319429
27.009497869018204596614 2733.15356178780029950 27.009497869018204596614 530.21142574045791207
28.009497869018190385759 2748.29519182092508345 28.009497869018190385759 531.22060021263234830
29.009497869018190385759 2762.81389936036293875 29.009497869018190385759 532.17889241426291846
30.009497869018190385759 2776.75135416010516565 30.009497869018190385759 533.08229515275206722
31.009497869018218807469 2790.14859680360268612 31.009497869018218807469 533.91266557518190439
32.009497869018190385759 2803.04115565408801558 32.009497869018190385759 534.69210662780983512
33.009497869018190385759 2815.46115222312164406 33.009497869018190385759 535.48856162029403549
34.009497869018218807469 2827.43884181139947032 34.009497869018218807469 536.23648644845332001
35.009497869018190385759 2838.99986488873810231 35.009497869018190385759 536.95996824901101263
36.009497869018190385759 2850.16803107498071768 36.009497869018190385759 537.66698628422352613
37.009497869018190385759 2860.96544897330613821 37.009497869018190385759 538.34879294859774745
38.009497869018218807469 2871.41165693977927731 38.009497869018218807469 539.00542067032949944
39.009497869018190385759 2881.52497980585576443 39.009497869018190385759 539.62581029389866671
40.009497869018190385759 2891.32242836054911095 40.009497869018190385759 540.20665381212063494
41.009497869018218807469 2900.81999073577526360 41.009497869018218807469 540.78429289773600885
42.009497869018190385759 2910.03232805322340937 42.009497869018190385759 541.33090170779382788
43.009497869018190385759 2918.97304722796889109 43.009497869018190385759 541.85584850966006343
44.009497869018218807469 2927.65545836157116355 44.009497869018218807469 542.35465133364436952
46.009497869018190385759 2944.29340647144044851 46.009497869018190385759 543.29988346288951107
48.009497869018218807469 2960.03367229882496758 48.009497869018218807469 544.18568001729636308
50.009497869018190385759 2974.95212282128250081 50.009497869018190385759 545.01574094001568938
52.009497869018190385759 2989.11635479751248567 52.009497869018190385759 545.79703201232155152
54.009497869018218807469 3002.58640436726182088 54.009497869018218807469 546.53477988030863344
56.009497869018190385759 3015.41604161121040306 56.009497869018190385759 547.22637886771690319
58.009497869018218807469 3027.65284515117082265 58.009497869018218807469 547.86534890325810920
60.009497869018190385759 3039.33967598030631052 60.009497869018190385759 548.47951059229455950
62.009497869018190385759 3050.51513664566846273 62.009497869018190385759 549.06066109911955664
64.009497869018218807469 3061.21409104793610823 64.009497869018218807469 549.60924445852947429
66.009497869018190385759 3071.46804230296856986 66.009497869018190385759 550.11332171991637097
68.009497869018190385759 3081.30549946879546042 68.009497869018190385759 550.58600248605443994
70.009497869018190385759 3090.75284706308411842 70.009497869018190385759 551.04364584694098994
72.009497869018190385759 3099.83415793994481646 72.009497869018190385759 551.47563496954683160
74.009497869018218807469 3108.57144282523859147 74.009497869018218807469 551.88861934236490470
76.009497869018190385759 3116.98447956174413775 76.009497869018190385759 552.28119911927524299
78.009497869018190385759 3125.09139393954410480 78.009497869018190385759 552.64665013538660787
80.009497869018218807469 3132.90924362018267857 80.009497869018218807469 553.00899725082501845
82.009497869018190385759 3140.45442973463968883 82.009497869018190385759 553.36601631908433774
84.009497869018218807469 3147.74187178724605474 84.009497869018218807469 553.69849548390675409
86.009497869018190385759 3154.78532368083551773 86.009497869018190385759 554.01929058964844899
88.009497869018190385759 3161.59715500547599731 88.009497869018190385759 554.32940589928023201
91.009497869018218807469 3171.40571467933114036 91.009497869018218807469 554.78265668806261601
94.009497869018218807469 3180.75522240914369831 94.009497869018218807469 555.23736829956135352
97.009497869018218807469 3189.67940036296386097 97.009497869018218807469 555.73068344227453963
99.504748934509137825444 3196.80084455911128316 99.504748934509137825444 555.91217371882601128
nan nan nan nan

