Time Pressure difference Time.1 Pressure.1 difference.1
(hr) (psi) (hr) (psi)
0.000200000000020850166 0.47427106930184199 0.000200000000020850166 0.37863289168551861
0.000399999999999067768 0.94720639849870791 0.000399999999999067768 0.98597395412256683
0.000600000000019917934 1.41900710838635091 0.000600000000019917934 1.44018842843571870
0.000799999999998135536 1.88977366321723905 0.000799999999998135536 1.90118962977225969
0.001007140329434719206 2.37632983573695000 0.001007140329434719206 2.38366114509839866
0.001267914553977789183 2.98747874353849197 0.001267914553977789183 2.99332220795144810
0.001596209851982166583 3.75478756421336435 0.001596209851982166583 3.75709004495151833
0.002009509145224797066 4.71765406580241464 0.002009509145224797066 4.71301348939602427
0.002529822128153114136 5.92516534761104019 0.002529822128153114136 5.90808311298986411
0.003184857364431081805 7.43835565933098408 0.003184857364431081805 7.40010633873289514
0.004009497869034817086 9.33292795282391552 0.004009497869034817086 9.25986717980209484
0.005047658755856332391 11.70250519500986996 0.005047658755856332391 11.57354900148374810
0.006354625877790454069 14.66246594084949706 0.006354625877790454069 14.44537261256994931
0.008000000000009777068 18.35440791639334535 0.008000000000009777068 18.00033277759578354
0.010071403294361402914 22.95123980550990339 0.010071403294361402914 22.38678460458702801
0.012679145539692626699 28.66282985046358434 0.012679145539692626699 27.77851974993516038
0.015962098519750611558 35.74204466225825882 0.015962098519750611558 34.37585089220098666
0.020095091452091651263 44.49088370044057683 0.020095091452091651263 42.40469439395518236
0.025298221281360611101 55.26607578391358544 0.025298221281360611101 52.11270195441155550
0.031848573644296607199 68.48340347733241629 0.031848573644296607199 63.76102983505209920
0.040094978690191851456 84.61946866504541731 0.040094978690191851456 77.60962893129016038
0.050476587558435426217 104.20918694069561639 0.050476587558435426217 93.89434730956976694
0.063546258777947173257 127.83693407359231742 0.063546258777947173257 112.79397466022224705
0.080000000000012505552 156.11876882600776639 0.080000000000012505552 134.38645072656555612
0.100714032943542974863 189.67329841003297020 0.100714032943542974863 158.59288796456357318
0.126791455396883634421 229.07799823473777678 0.126791455396883634421 185.12026196603173389
0.159620985197506115583 274.81356486290428620 0.159620985197506115583 213.40069261422263480
0.200950914520774404082 327.19219597961898671 0.200950914520774404082 242.56207786781783398
0.252982212813464002465 386.28840941924954677 0.252982212813464002465 271.43311876566565388
0.318485736442809752589 451.86975865862410728 0.318485736442809752589 298.61473813655112508
0.400949786901833249431 523.36078940033769413 0.400949786901833249431 322.64870012404935551
0.504765875584169521062 599.85172861148282664 0.504765875584169521062 342.22560341909223780
0.635462587779443310865 680.15854057352964901 0.635462587779443310865 356.44091676539989066
0.800000000000011368684 762.94952032744481585 0.800000000000011368684 365.00537826828951893
1.007140329435344483500 846.90172325814876331 1.007140329435344483500 368.30792878368225729
1.267914553968907398485 930.85540697060594084 1.267914553968907398485 367.36093156995485742
1.596209851975117999245 1013.94327991024147195 1.596209851975117999245 363.56658809469098514
2.009509145207687197399 1095.63526028139199298 2.009509145207687197399 358.42031422684601694
2.529822128134725289783 1175.72889553448203515 2.529822128134725289783 353.31199785119730450
3.184857364427983839050 1254.29998284177872847 3.184857364427983839050 349.26227735264427565
4.009497869018204596614 1331.57101686860232803 4.009497869018204596614 346.86876659235872467
5.009497869018190385759 1405.33964807334768921 5.009497869018190385759 346.33911674266335012
6.009497869018190385759 1465.11670944096113089 6.009497869018190385759 347.21006114929753039
7.009497869018204596614 1515.38966876381368820 7.009497869018204596614 348.80031026137680783
8.009497869018190385759 1558.76603710197764485 8.009497869018190385759 350.70683341484169659
9.009497869018204596614 1596.89628528003140673 9.009497869018204596614 352.75418884741048942
10.009497869018190385759 1630.89317794346357005 10.009497869018190385759 354.81801434236717796
11.009497869018190385759 1661.54417998943176826 11.009497869018190385759 356.74110644569242368
12.009497869018204596614 1689.42763362582559239 12.009497869018204596614 358.58963743445008276
13.009497869018190385759 1714.97956411239852059 13.009497869018190385759 360.35087802641805865
14.009497869018204596614 1738.54302774313578084 14.009497869018204596614 362.02033577312090529
15.009497869018190385759 1760.38805347345646624 15.009497869018190385759 363.61083445638354306
16.009497869018190385759 1780.73336162221266932 16.009497869018190385759 365.11211794989753798
17.009497869018204596614 1799.75830904979966363 17.009497869018204596614 366.50367346204893693
18.009497869018190385759 1817.61017812115210290 18.009497869018190385759 367.80128145433894815
19.009497869018204596614 1834.41117628425672592 19.009497869018204596614 368.96628169920461460
20.009497869018190385759 1850.26611701725232706 20.009497869018190385759 370.06659354359675262
21.009497869018190385759 1865.26426574274273662 21.009497869018190385759 371.10873063962867491
22.009497869018204596614 1879.48203128122122507 22.009497869018204596614 372.11326347573634621
23.009497869018190385759 1892.99290761278462014 23.009497869018190385759 373.10147977174437983
24.009497869018204596614 1905.85859859113406856 24.009497869018204596614 374.03920642218309922
25.009497869018204596614 1918.13195499424705304 25.009497869018204596614 374.94402433164907507
26.009497869018190385759 1929.85931449605004673 26.009497869018190385759 375.78372287438895682
27.009497869018204596614 1941.08294002591287608 27.009497869018204596614 376.55562698731529281
28.009497869018190385759 1951.83651060913939546 28.009497869018190385759 377.27234169329989300
29.009497869018190385759 1962.14768225717307359 29.009497869018190385759 377.95291986137323192
30.009497869018190385759 1972.04604878783561617 30.009497869018190385759 378.59451558734008358
31.009497869018218807469 1981.56075718265788055 31.009497869018218807469 379.18424383511046472
32.009497869018190385759 1990.71703964985590574 32.009497869018190385759 379.73780209512364081
33.009497869018190385759 1999.53770885497806375 33.009497869018190385759 380.30344363829340182
34.009497869018218807469 2008.04425208247403134 34.009497869018218807469 380.83461910704835418
35.009497869018190385759 2016.25487916849442627 35.009497869018190385759 381.34843516192194102
36.009497869018190385759 2024.18649968136037387 36.009497869018190385759 381.85055866702947469
37.009497869018190385759 2031.85481512905221280 37.009497869018190385759 382.33477708165344211
38.009497869018218807469 2039.27370163260457048 38.009497869018218807469 382.80111343626634834
39.009497869018190385759 2046.45617346908397849 39.009497869018190385759 383.24171352962207493
40.009497869018190385759 2053.41431168392227846 40.009497869018190385759 383.65422801830953858
41.009497869018218807469 2060.15947103249663996 41.009497869018218807469 384.06446672214826776
42.009497869018190385759 2066.70206382884407503 42.009497869018190385759 384.45266775516199687
43.009497869018190385759 2073.05175369051039524 43.009497869018190385759 384.82548445151229544
44.009497869018218807469 2079.21799343837938068 44.009497869018218807469 385.17973372078472494
46.009497869018190385759 2091.03424763083694415 46.009497869018190385759 385.85103663844517996
48.009497869018218807469 2102.21296875948883098 48.009497869018218807469 386.48012846999529302
50.009497869018190385759 2112.80803747630898215 50.009497869018190385759 387.06963691137923433
52.009497869018190385759 2122.86746093206420483 52.009497869018190385759 387.62450905352682184
54.009497869018218807469 2132.43387673346569500 54.009497869018218807469 388.14845685529382990
56.009497869018190385759 2141.54547233830999176 56.009497869018190385759 388.63962976799302851
58.009497869018218807469 2150.23603803646574306 58.009497869018218807469 389.09342565144322634
60.009497869018190385759 2158.53601366263046657 60.009497869018190385759 389.52960267189075694
62.009497869018190385759 2166.47281470730922592 62.009497869018190385759 389.94233518357867752
64.009497869018218807469 2174.07120147807381727 64.009497869018218807469 390.33193853957754982
66.009497869018190385759 2181.35354745646145602 66.009497869018190385759 390.68993370904507856
68.009497869018190385759 2188.34009974711716495 68.009497869018190385759 391.02563111882722069
70.009497869018190385759 2195.04959660823487866 70.009497869018190385759 391.35064897836224418
72.009497869018190385759 2201.49913455685145891 72.009497869018190385759 391.65744722339707096
74.009497869018218807469 2207.70434558857141383 74.009497869018218807469 391.95074831404275528
76.009497869018190385759 2213.67927590765657442 76.009497869018190385759 392.22955808097788122
78.009497869018190385759 2219.43679843218887981 78.009497869018190385759 392.48910102898724972
80.009497869018218807469 2224.98902749642320487 80.009497869018218807469 392.74643958982721870
82.009497869018190385759 2230.34761116726303953 82.009497869018190385759 392.99999417686211700
84.009497869018218807469 2235.52314526183772614 84.009497869018218807469 393.23612054889400724
86.009497869018190385759 2240.52539778825530448 86.009497869018190385759 393.46394891379259207
88.009497869018190385759 2245.36315361707329430 88.009497869018190385759 393.68419249812063754
91.009497869018218807469 2252.32918293768443618 91.009497869018218807469 394.00609075731807707
94.009497869018218807469 2258.96919402440425984 94.009497869018218807469 394.32902649135513684
97.009497869018218807469 2265.30713632742845220 97.009497869018218807469 394.67937841484916817
99.504748934509137825444 2270.36477890951846348 99.504748934509137825444 394.80827262866870342
nan nan nan nan

