Time Pressure difference Time.1 Pressure.1 difference.1
(hr) (psi) (hr) (psi)
0.000200000000020850166 0.13455676572136324 0.000200000000020850166 0.10742299203687219
0.000399999999999067768 0.26873456489805725 0.000399999999999067768 0.27973341605578950
0.000600000000019917934 0.40259045807108379 0.000600000000019917934 0.40859986936354892
0.000799999999998135536 0.53615294823326232 0.000799999999998135536 0.53939180389335573
0.001007140329434719206 0.67419515479752345 0.001007140329434719206 0.67627514099113939
0.001267914553977789183 0.84758591322808352 0.001267914553977789183 0.84924377878832680
0.001596209851982166583 1.06528123538102459 0.001596209851982166583 1.06593447860270740
0.002009509145224797066 1.33845877173378480 0.002009509145224797066 1.33714218087943237
0.002529822128153114136 1.68104515991766812 0.002529822128153114136 1.67619871156630107
0.003184857364431081805 2.11035659686798516 0.003184857364431081805 2.09950477561248494
0.004009497869034817086 2.64787097785897441 0.004009497869034817086 2.62714270250076920
0.005047658755856332391 3.32015033553695060 0.005047658755856332391 3.28356381478172921
0.006354625877790454069 4.15992904101159144 0.006354625877790454069 4.09833688832982723
0.008000000000009777068 5.20738017943208753 0.008000000000009777068 5.10692453585029238
0.010071403294361402914 6.51156015497829088 0.010071403294361402914 6.35141699814903316
0.012679145539692626699 8.13201127105972077 0.012679145539692626699 7.88112118999911715
0.015962098519750611558 10.14047501801372597 0.015962098519750611558 9.75286837922339878
0.020095091452091651263 12.62263250345249332 0.020095091452091651263 12.03075392613089178
0.025298221281360611101 15.67969225392994836 0.025298221281360611101 14.78503978391361073
0.031848573644296607199 19.42961709864772146 0.031848573644296607199 18.08981932272931914
0.040094978690191851456 24.00762508535439110 0.040094978690191851456 22.01884393497199000
0.050476587558435426217 29.56547860664219129 0.050476587558435426217 26.63902673231226359
0.063546258777947173257 36.26897253926787101 0.063546258777947173257 32.00109263564974071
0.080000000000012505552 44.29289063014581274 0.080000000000012505552 38.12715414659128044
0.100714032943542974863 53.81273965398482773 0.100714032943542974863 44.99482986034903576
0.126791455396883634421 64.99235676712349630 0.126791455396883634421 52.52098500612458309
0.159620985197506115583 77.96812172993082868 0.159620985197506115583 60.54450473468313021
0.200950914520774404082 92.82860901698472844 0.200950914520774404082 68.81796254743693453
0.252982212813464002465 109.59496029057518740 0.252982212813464002465 77.00904595453212664
0.318485736442809752589 128.20122750034519754 0.318485736442809752589 84.72081887586914206
0.400949786901833249431 148.48414690517464010 0.400949786901833249431 91.53956115603502042
0.504765875584169521062 170.18560426455377410 0.504765875584169521062 97.09377890349026075
0.635462587779443310865 192.96967350772646910 0.635462587779443310865 101.12684503676844372
0.800000000000011368684 216.45853291251501105 0.800000000000011368684 103.55669225825376145
1.007140329435344483500 240.27684617831891956 1.007140329435344483500 104.49366806121983586
1.267914553968907398485 264.09557956083739327 1.267914553968907398485 104.22499284471572878
1.596209851975117999245 287.66867135807200384 1.596209851975117999245 103.14848909166363455
2.009509145207687197399 310.84573058771542264 2.009509145207687197399 101.68842540236262550
2.529822128134725289783 333.56931887318057761 2.529822128134725289783 100.23913073886859593
3.184857364427983839050 355.86094084127523729 3.184857364427983839050 99.09017325941920262
4.009497869018204596614 377.78372107305352756 4.009497869018204596614 98.41110365667620385
5.009497869018190385759 398.71282484742965835 5.009497869018190385759 98.26083522296227102
6.009497869018190385759 415.67234138254940490 6.009497869018190385759 98.50793328579018748
7.009497869018204596614 429.93542266153730225 7.009497869018204596614 98.95910728956751257
8.009497869018190385759 442.24185290809174376 8.009497869018190385759 99.50001228231937489
9.009497869018204596614 453.05989179573577985 9.009497869018204596614 100.08087319313571584
10.009497869018190385759 462.70524488063239232 10.009497869018190385759 100.66640687121450526
11.009497869018190385759 471.40132602152004893 11.009497869018190385759 101.21201268686894537
12.009497869018204596614 479.31221829664400502 12.009497869018204596614 101.73646456108740210
13.009497869018190385759 486.56162764659995901 13.009497869018190385759 102.23615103376485536
14.009497869018204596614 493.24688352782493439 14.009497869018204596614 102.70979753983465343
15.009497869018190385759 499.44459660718030136 15.009497869018190385759 103.16104235014735480
16.009497869018190385759 505.21682063537389240 16.009497869018190385759 103.58697567054886690
17.009497869018204596614 510.61444144670321066 17.009497869018204596614 103.98177775981072557
18.009497869018190385759 515.67924493104499106 18.009497869018190385759 104.34992573660755966
19.009497869018204596614 520.44590290376470421 19.009497869018204596614 104.68045120012460814
20.009497869018190385759 524.94415228860748357 20.009497869018190385759 104.99262373741274246
21.009497869018190385759 529.19931882718799443 21.009497869018190385759 105.28829135485086965
22.009497869018204596614 533.23308067873529126 22.009497869018204596614 105.57329016299351565
23.009497869018190385759 537.06628902499312517 23.009497869018190385759 105.85365976010962186
24.009497869018204596614 540.71645003811522656 24.009497869018204596614 106.11970479928837108
25.009497869018204596614 544.19855815948869804 25.009497869018204596614 106.37641320792847921
26.009497869018190385759 547.52575997961491794 26.009497869018190385759 106.61464641970405864
27.009497869018204596614 550.71004603187020621 27.009497869018204596614 106.83364548501764091
28.009497869018190385759 553.76097148630572065 28.009497869018190385759 107.03698661000802872
29.009497869018190385759 556.68638270693884351 29.009497869018190385759 107.23007533720222284
30.009497869018190385759 559.49467583823002315 30.009497869018190385759 107.41210424719631078
31.009497869018218807469 562.19412025147221357 31.009497869018218807469 107.57941769052172276
32.009497869018190385759 564.79187464671929320 32.009497869018190385759 107.73646924590198637
33.009497869018190385759 567.29441126883796187 33.009497869018190385759 107.89694898319356753
34.009497869018218807469 569.70782633513272231 34.009497869018218807469 108.04765025453910710
35.009497869018190385759 572.03728620892491108 35.009497869018190385759 108.19342643823354422
36.009497869018190385759 574.28758835092889967 36.009497869018190385759 108.33588529607490614
37.009497869018190385759 576.46318747969598917 37.009497869018190385759 108.47326425083687695
38.009497869018218807469 578.56802042816445919 38.009497869018218807469 108.60556983655894214
39.009497869018190385759 580.60577951312018286 39.009497869018190385759 108.73057371593480980
40.009497869018190385759 582.57989228160317907 40.009497869018190385759 108.84760935020342743
41.009497869018218807469 584.49358022288004122 41.009497869018218807469 108.96399931521546023
42.009497869018190385759 586.34979744355996445 42.009497869018190385759 109.07413691127189281
43.009497869018190385759 588.15128563548626062 43.009497869018190385759 109.17990977433447597
44.009497869018218807469 589.90072668479410822 44.009497869018218807469 109.28041482095818537
46.009497869018190385759 593.25314906514097402 46.009497869018190385759 109.47087204102997759
48.009497869018218807469 596.42469516468861457 48.009497869018218807469 109.64935343632090792
50.009497869018190385759 599.43065161324352630 50.009497869018190385759 109.81660451776433263
52.009497869018190385759 602.28463865323010396 52.009497869018190385759 109.97402883830359599
54.009497869018218807469 604.99875311877667627 54.009497869018218807469 110.12267952812189264
56.009497869018190385759 607.58382927987076982 56.009497869018190385759 110.26203156289818708
58.009497869018218807469 610.04945387374334587 58.009497869018218807469 110.39077925662664370
60.009497869018190385759 612.40426307065877154 60.009497869018190385759 110.51452825367128696
62.009497869018190385759 614.65603499576900504 62.009497869018190385759 110.63162574385243886
64.009497869018218807469 616.81179446488272333 64.009497869018218807469 110.74216119686789739
66.009497869018190385759 618.87788912074734071 66.009497869018190385759 110.84372900326671640
68.009497869018190385759 620.86006332580200251 68.009497869018190385759 110.93897065017516468
70.009497869018190385759 622.76363336345718835 70.009497869018190385759 111.03118237214481212
72.009497869018190385759 624.59344973416796165 72.009497869018190385759 111.11822495655047760
74.009497869018218807469 626.35394743493611713 74.009497869018218807469 111.20143822570040015
76.009497869018190385759 628.04911155348577267 76.009497869018190385759 111.28054012104800563
78.009497869018190385759 629.68259430125135623 78.009497869018190385759 111.35417577354805019
80.009497869018218807469 631.25783266973826358 80.009497869018218807469 111.42718601322593486
82.009497869018190385759 632.77813136444240172 82.009497869018190385759 111.49912269115877450
84.009497869018218807469 634.24649655414657445 84.009497869018218807469 111.56611476168272645
86.009497869018190385759 635.66569954763110673 86.009497869018190385759 111.63075258149632418
88.009497869018190385759 637.03823272498391361 88.009497869018190385759 111.69323850209379145
91.009497869018218807469 639.01458430105935804 91.009497869018218807469 111.78456515356485568
94.009497869018218807469 640.89844033617066543 94.009497869018218807469 111.87618614991161792
97.009497869018218807469 642.69659559552269457 97.009497869018218807469 111.97558546971201565
99.504748934509137825444 644.13151345594030772 99.504748934509137825444 112.01215440603209572
nan nan nan nan

