Time Pressure difference Time.1 Pressure.1 difference.1
(hr) (psi) (hr) (psi)
0.000200000000020850166 0.31230459204464556 0.000200000000020850166 0.24932743830780210
0.000399999999999067768 0.62372960741771311 0.000399999999999067768 0.64925780516652376
0.000600000000019917934 0.93440748293041664 0.000600000000019917934 0.94835525234996532
0.000799999999998135536 1.24440437367720125 0.000799999999998135536 1.25192171767840588
0.001007140329434719206 1.56479863088807947 0.001007140329434719206 1.56962625316461990
0.001267914553977789183 1.96723644057876168 0.001267914553977789183 1.97108432607661022
0.001596209851982166583 2.47250459569916847 0.001596209851982166583 2.47402076515196345
0.002009509145224797066 3.10654628501174779 0.002009509145224797066 3.10349049389300369
0.002529822128153114136 3.90168506252495817 0.002529822128153114136 3.89043651573413074
0.003184857364431081805 4.89811160754544606 0.003184857364431081805 4.87292466438453342
0.004009497869034817086 6.14567584984552084 0.004009497869034817086 6.09756577864376137
0.005047658755856332391 7.70602793927094787 0.005047658755856332391 7.62111107628351814
0.006354625877790454069 9.65514394703924950 0.006354625877790454069 9.51218932106182180
0.008000000000009777068 12.08626510781768637 0.008000000000009777068 11.85310879925746796
0.010071403294361402914 15.11325073007306941 0.010071403294361402914 14.74156044014837441
0.012679145539692626699 18.87429776492873401 0.012679145539692626699 18.29198498419548358
0.015962098519750611558 23.53591732576025564 0.015962098519750611558 22.63628710239504827
0.020095091452091651263 29.29697420554405696 0.020095091452091651263 27.92323133472354968
0.025298221281360611101 36.39237214492383288 0.025298221281360611101 34.31589480710813689
0.031848573644296607199 45.09590141414533093 0.031848573644296607199 41.98624731695200296
0.040094978690191851456 55.72140143267439072 0.040094978690191851456 51.10546493549054503
0.050476587558435426217 68.62111084010778939 0.050476587558435426217 61.82885216882351642
0.063546258777947173257 84.17983749854764142 0.063546258777947173257 74.27414093212533430
0.080000000000012505552 102.80325232675818370 0.080000000000012505552 88.49265406863160877
0.100714032943542974863 124.89870438208825476 0.100714032943542974863 104.43244461414344926
0.126791455396883634421 150.84645768171873215 0.126791455396883634421 121.90055779199286690
0.159620985197506115583 180.96304796576535523 0.159620985197506115583 140.52304802617814516
0.200950914520774404082 215.45405549621148111 0.200950914520774404082 159.72564146812524655
0.252982212813464002465 254.36854981022386823 0.252982212813464002465 178.73704493150663097
0.318485736442809752589 297.55346629709748640 0.318485736442809752589 196.63597467485678294
0.400949786901833249431 344.62987182929424534 0.400949786901833249431 212.46219132511834005
0.504765875584169521062 394.99868644118657812 0.504765875584169521062 225.35346214637246476
0.635462587779443310865 447.88022986978489826 0.635462587779443310865 234.71415885077121288
0.800000000000011368684 502.39758256238042122 0.800000000000011368684 240.35380425372477475
1.007140329435344483500 557.67959359906126338 1.007140329435344483500 242.52851352480652736
1.267914553968907398485 612.96257972144985615 1.267914553968907398485 241.90492166427850407
1.596209851975117999245 667.67543475700665567 1.596209851975117999245 239.40636974361436273
2.009509145207687197399 721.46910309247527948 2.009509145207687197399 236.01757994622437309
2.529822128134725289783 774.21027096491297925 2.529822128134725289783 232.65378492478143357
3.184857364427983839050 825.94885034765115961 3.184857364427983839050 229.98706879963964411
4.009497869018204596614 876.83135261400082072 4.009497869018204596614 228.41095663524848192
5.009497869018190385759 925.40754409033058892 5.009497869018190385759 228.06218545576427914
6.009497869018190385759 964.77037259159624227 6.009497869018190385759 228.63569700899452641
7.009497869018204596614 997.87480815270407675 7.009497869018204596614 229.68286630171223806
8.009497869018190385759 1026.43788082371929704 8.009497869018190385759 230.93830011204988750
9.009497869018204596614 1051.54641552590510400 9.009497869018204596614 232.28647111493228294
10.009497869018190385759 1073.93316095751720241 10.009497869018190385759 233.64548755294231341
11.009497869018190385759 1094.11665792649114337 11.009497869018190385759 234.91183191520201490
12.009497869018204596614 1112.47774123171689098 12.009497869018204596614 236.12907824054855155
13.009497869018190385759 1129.30353083408385828 13.009497869018190385759 237.28884437466410873
14.009497869018204596614 1144.81992720038374500 14.009497869018204596614 238.38817206776437274
15.009497869018190385759 1159.20474274259117919 15.009497869018190385759 239.43550570157657376
16.009497869018190385759 1172.60200345000362177 16.009497869018190385759 240.42409167979241147
17.009497869018204596614 1185.12981471580496873 17.009497869018204596614 241.34042245486932643
18.009497869018190385759 1196.88516107452414872 18.009497869018190385759 242.19488936397803514
19.009497869018204596614 1207.94851538157718096 19.009497869018204596614 242.96203488423984140
20.009497869018190385759 1218.38889666985437543 20.009497869018190385759 243.68658348930361512
21.009497869018190385759 1228.26508567297946684 21.009497869018190385759 244.37282437916002209
22.009497869018204596614 1237.62739713089172255 22.009497869018204596614 245.03430309435529466
23.009497869018190385759 1246.52422637899644542 23.009497869018190385759 245.68503746790869968
24.009497869018204596614 1254.99620502673633382 24.009497869018204596614 246.30252471933599168
25.009497869018204596614 1263.07813498745531433 25.009497869018204596614 246.89834176655000419
26.009497869018190385759 1270.80052933540264348 26.009497869018190385759 247.45127810993042772
27.009497869018204596614 1278.19121795051364643 27.009497869018204596614 247.95957223683109305
28.009497869018190385759 1285.27237826451232650 28.009497869018190385759 248.43152447754945911
29.009497869018190385759 1292.06222159141339034 29.009497869018190385759 248.87968102955574068
30.009497869018190385759 1298.58023527885507065 30.009497869018190385759 249.30216788238155345
31.009497869018218807469 1304.84561243551570442 31.009497869018218807469 249.69050031874175488
32.009497869018190385759 1310.87496831584212487 32.009497869018190385759 250.05501503987125034
33.009497869018190385759 1316.68332492026570435 33.009497869018190385759 250.42748652889369509
34.009497869018218807469 1322.28483149388807760 34.009497869018218807469 250.77726231917719701
35.009497869018190385759 1327.69147910219589903 35.009497869018190385759 251.11560704182596737
36.009497869018190385759 1332.91440259227942988 36.009497869018190385759 251.44625229212445561
37.009497869018190385759 1337.96394131089959956 37.009497869018190385759 251.76510715009052888
38.009497869018218807469 1342.84923259870288348 38.009497869018218807469 252.07218678114909949
39.009497869018190385759 1347.57884627736530092 39.009497869018190385759 252.36231924192279052
40.009497869018190385759 1352.16073764125189882 40.009497869018190385759 252.63395750417581098
41.009497869018218807469 1356.60238372717844868 41.009497869018218807469 252.90409717605561468
42.009497869018190385759 1360.91064098011452188 42.009497869018190385759 253.15972517677917608
43.009497869018190385759 1365.09187283298047078 43.009497869018190385759 253.40522268610970968
44.009497869018218807469 1369.15230391038630842 44.009497869018218807469 253.63849365852027518
46.009497869018190385759 1376.93323486724079885 46.009497869018190385759 254.08054251498316489
48.009497869018218807469 1384.29435420940080803 48.009497869018218807469 254.49479562997942139
50.009497869018190385759 1391.27114201592303289 50.009497869018190385759 254.88298332518144207
52.009497869018190385759 1397.89521070132423120 52.009497869018190385759 255.24836322964287660
54.009497869018218807469 1404.19463686827157289 54.009497869018218807469 255.59337964551750133
56.009497869018190385759 1410.19456672365072336 56.009497869018190385759 255.91681399783777806
58.009497869018218807469 1415.91725096621917146 58.009497869018218807469 256.21563580550377992
60.009497869018190385759 1421.38273404054120874 60.009497869018190385759 256.50285569987903500
62.009497869018190385759 1426.60906887906867269 62.009497869018190385759 256.77463752894146864
64.009497869018218807469 1431.61255999256718496 64.009497869018218807469 257.03118895075505179
66.009497869018190385759 1436.40794018148767464 66.009497869018190385759 257.26692657548323950
68.009497869018190385759 1441.00854204013307935 68.009497869018190385759 257.48798126213495152
70.009497869018190385759 1445.42670459666624083 70.009497869018190385759 257.70200353041013841
72.009497869018190385759 1449.67368580276001921 72.009497869018190385759 257.90402829421594788
74.009497869018218807469 1453.75977923170376016 74.009497869018218807469 258.09716526458856833
76.009497869018190385759 1457.69423422290537928 76.009497869018190385759 258.28075978712377037
78.009497869018190385759 1461.48552751401575733 78.009497869018190385759 258.45166722749422661
80.009497869018218807469 1465.14163631988640191 80.009497869018218807469 258.62112309242559149
82.009497869018190385759 1468.67023082117475496 82.009497869018190385759 258.78808723380063839
84.009497869018218807469 1472.07828829851314367 84.009497869018218807469 258.94357500242404058
86.009497869018190385759 1475.37224092536598619 86.009497869018190385759 259.09359858421368017
88.009497869018190385759 1478.55787348514809310 88.009497869018190385759 259.23862763448926216
91.009497869018218807469 1483.14496109381661881 91.009497869018218807469 259.45059566506409965
94.009497869018218807469 1487.51736769382819148 94.009497869018218807469 259.66324686646152031
97.009497869018218807469 1491.69086385133641670 97.009497869018218807469 259.89395146056619978
99.504748934509137825444 1495.02129049033078445 99.504748934509137825444 259.97882751029675319
nan nan nan nan

