Time Pressure difference Time.1 Pressure.1 difference.1
(hr) (psi) (hr) (psi)
0.000200000000020850166 0.89372271553201754 0.000200000000020850166 0.71350086068934859
0.000399999999999067768 1.78492834463154049 0.000399999999999067768 1.85798244244462674
0.000600000000019917934 2.67399588200300098 0.000600000000019917934 2.71391024342702858
0.000799999999998135536 3.56111464382092668 0.000799999999998135536 3.58262704314352298
0.001007140329434719206 4.47798757137120518 0.001007140329434719206 4.49180278831151814
0.001267914553977789183 5.62964470761369018 0.001267914553977789183 5.64065620972987425
0.001596209851982166583 7.07557166216038613 0.001596209851982166583 7.07991048750934127
0.002009509145224797066 8.89001011349106385 0.002009509145224797066 8.88126534954487212
0.002529822128153114136 11.16546044488525347 0.002529822128153114136 11.13327045460086495
0.003184857364431081805 14.01693640882686509 0.003184857364431081805 13.94485887999403673
0.004009497869034817086 17.58709365540898872 0.004009497869034817086 17.44941696228906380
0.005047658755856332391 22.05235654961579783 0.005047658755856332391 21.80934978213049646
0.006354625877790454069 27.63014597610168011 0.006354625877790454069 27.22105241878330162
0.008000000000009777068 34.58729057449954780 0.008000000000009777068 33.92006667021551891
0.010071403294361402914 43.24962177010272057 0.010071403294361402914 42.18595487659481336
0.012679145539692626699 54.01261807197690956 0.012679145539692626699 52.34621234838920145
0.015962098519750611558 67.35278468754796677 0.015962098519750611558 64.77831096323689053
0.020095091452091651263 83.83921341799309346 0.020095091452091651263 79.90797052170887582
0.025298221281360611101 104.14412879770756604 0.025298221281360611101 98.20186918204348103
0.031848573644296607199 129.05103702558611189 0.031848573644296607199 120.15213327936262999
0.040094978690191851456 159.45805303605754943 0.040094978690191851456 146.24861774092508426
0.050476587558435426217 196.37317889349995426 0.050476587558435426217 176.93575780227158134
0.063546258777947173257 240.89762007563101065 0.063546258777947173257 212.55046713555015003
0.080000000000012505552 294.19228591380800708 0.080000000000012505552 253.23961643044577841
0.100714032943542974863 357.42288807214617918 0.100714032943542974863 298.85454894898492739
0.126791455396883634421 431.67762889768442847 0.126791455396883634421 348.84308559623491419
0.159620985197506115583 517.86233939139242466 0.159620985197506115583 402.13510552172249390
0.200950914520774404082 616.56532902639241911 0.200950914520774404082 457.08720803112430531
0.252982212813464002465 727.92702020159811127 0.252982212813464002465 511.49218177207751523
0.318485736442809752589 851.50938759488542473 0.318485736442809752589 562.71358710145182158
0.400949786901833249431 986.22803746893771404 0.400949786901833249431 608.00350496230669251
0.504765875584169521062 1130.36858141148081813 0.504765875584169521062 644.89448209972545101
0.635462587779443310865 1281.69980675502279155 0.635462587779443310865 671.68200777507934163
0.800000000000011368684 1437.71223094979086454 0.800000000000011368684 687.82099302395704399
1.007140329435344483500 1595.91287955476036586 1.007140329435344483500 694.04436317205272644
1.267914553968907398485 1754.11631856457461254 1.267914553968907398485 692.25982901798840885
1.596209851975117999245 1910.68821223015743271 1.596209851975117999245 685.10971767055605142
2.009509145207687197399 2064.62966736038151794 2.009509145207687197399 675.41201069717396877
2.529822128134725289783 2215.55917967618688635 2.529822128134725289783 665.78583132730000216
3.184857364427983839050 2363.61958237785256642 3.184857364427983839050 658.15448411811769347
4.009497869018204596614 2509.23014737410858288 4.009497869018204596614 653.64412058384937154
5.009497869018190385759 2648.24073787552015347 5.009497869018190385759 652.64604135745310032
6.009497869018190385759 2760.88542794829118066 6.009497869018190385759 654.28726058956942779
7.009497869018204596614 2855.62046162848264430 7.009497869018204596614 657.28394718255947282
8.009497869018190385759 2937.35946746362196791 8.009497869018190385759 660.87662478873858163
9.009497869018204596614 3009.21261464328199509 9.009497869018204596614 664.73468861613605441
10.009497869018190385759 3073.27681167629907577 10.009497869018190385759 668.62378884831366577
11.009497869018190385759 3131.03596789602261197 11.009497869018190385759 672.24768920414192053
12.009497869018204596614 3183.57991905672179200 12.009497869018204596614 675.73108560327193572
13.009497869018190385759 3231.73031696136740720 13.009497869018190385759 679.04999081685787132
14.009497869018204596614 3276.13362145641713141 14.009497869018204596614 682.19593921519799551
15.009497869018190385759 3317.29867869954296111 15.009497869018190385759 685.19309610344782868
16.009497869018190385759 3355.63764817075480096 16.009497869018190385759 688.02213470068261358
17.009497869018204596614 3391.48851232501647246 17.009497869018204596614 690.64440042936007558
18.009497869018190385759 3425.12881201113805218 18.009497869018190385759 693.08963020117107590
19.009497869018204596614 3456.78883657068354296 19.009497869018204596614 695.28497216872881381
20.009497869018190385759 3486.66609791692371800 20.009497869018190385759 697.35841445343271516
21.009497869018190385759 3514.92880900033514990 21.009497869018190385759 699.32223146802175506
22.009497869018204596614 3541.72095561925380025 22.009497869018204596614 701.21518651469762062
23.009497869018190385759 3567.18103080797936855 23.009497869018190385759 703.07739445603669992
24.009497869018204596614 3591.42531012970312077 24.009497869018204596614 704.84445903724872551
25.009497869018204596614 3614.55338629388779736 25.009497869018204596614 706.54950994895693839
26.009497869018190385759 3636.65257863003489547 26.009497869018190385759 708.13184905926891588
27.009497869018204596614 3657.80252796476725052 27.009497869018204596614 709.58643544369749634
28.009497869018190385759 3678.06669950163632166 28.009497869018190385759 710.93702217511497565
29.009497869018190385759 3697.49720859670469508 29.009497869018190385759 712.21951273351589862
30.009497869018190385759 3716.14982223417018758 30.009497869018190385759 713.42854425915572847
31.009497869018218807469 3734.07946537397538123 31.009497869018218807469 714.53983601852689844
32.009497869018190385759 3751.33368592512260875 32.009497869018190385759 715.58296857154653026
33.009497869018190385759 3767.95547237820755981 33.009497869018190385759 716.64887102417446840
34.009497869018218807469 3783.98531565804159982 34.009497869018218807469 717.64982514743257980
35.009497869018190385759 3799.45753062224139285 35.009497869018190385759 718.61806696011910844
36.009497869018190385759 3814.40398188641665911 36.009497869018190385759 719.56427517639872349
37.009497869018190385759 3828.85425758119117745 37.009497869018190385759 720.47674280185469797
38.009497869018218807469 3842.83450605373445796 38.009497869018218807469 721.35551323541608326
39.009497869018190385759 3856.36925158097119493 39.009497869018190385759 722.18578591571520064
40.009497869018190385759 3869.48125984570970104 40.009497869018190385759 722.96313370875850524
41.009497869018218807469 3882.19192790011720717 41.009497869018218807469 723.73619298254220666
42.009497869018190385759 3894.52087684734897266 42.009497869018190385759 724.46772417610213779
43.009497869018190385759 3906.48631693693323541 43.009497869018190385759 725.17026492088825762
44.009497869018218807469 3918.10606119036083328 44.009497869018218807469 725.83781695895697794
46.009497869018190385759 3940.37276786476377310 46.009497869018190385759 727.10282911202625655
48.009497869018218807469 3961.43809874817907257 48.009497869018218807469 728.28829813260063020
50.009497869018190385759 3981.40358725833311837 50.009497869018190385759 729.39917568589157781
52.009497869018190385759 4000.35969870910912505 52.009497869018190385759 730.44478413589308730
54.009497869018218807469 4018.38677997409649834 54.009497869018218807469 731.43211834727878795
56.009497869018190385759 4035.55679200704253162 56.009497869018190385759 732.35769112147181659
58.009497869018218807469 4051.93340967992526203 58.009497869018218807469 733.21283012426090409
60.009497869018190385759 4067.57399422239996056 60.009497869018190385759 734.03476790710067235
62.009497869018190385759 4082.53020774967535544 62.009497869018190385759 734.81252654558784343
64.009497869018218807469 4096.84870891490027134 64.009497869018218807469 735.54670029524595520
66.009497869018190385759 4110.57165860447094019 66.009497869018190385759 736.22131115749994024
68.009497869018190385759 4123.73721073187061847 68.009497869018190385759 736.85390382462026082
70.009497869018190385759 4136.38067592024617625 70.009497869018190385759 737.46637180510992948
72.009497869018190385759 4148.53427107385596173 72.009497869018190385759 738.04450650153285096
74.009497869018218807469 4160.22745333328020934 74.009497869018218807469 738.59720698057799382
76.009497869018190385759 4171.48669155278275866 76.009497869018190385759 739.12259981634360884
78.009497869018190385759 4182.33624363053422712 78.009497869018190385759 739.61168600208452517
80.009497869018218807469 4192.79893797924887622 80.009497869018218807469 740.09661821130316639
82.009497869018190385759 4202.89672437123408599 82.009497869018190385759 740.57441984991885420
84.009497869018218807469 4212.64956970531966363 84.009497869018218807469 741.01937952821356248
86.009497869018190385759 4222.07588094599395845 86.009497869018190385759 741.44870233142000870
88.009497869018190385759 4231.19221242026378604 88.009497869018190385759 741.86373227316607881
91.009497869018218807469 4244.31909078975240845 91.009497869018218807469 742.47032163725793907
94.009497869018218807469 4256.83161605999794119 94.009497869018218807469 743.07886603274619119
97.009497869018218807469 4268.77491889371776779 97.009497869018218807469 743.73907386055634561
99.504748934509137825444 4278.30560789254195697 99.504748934509137825444 743.98196383265769782
nan nan nan nan

