Time Pressure difference Time.1 Pressure.1 difference.1
(hr) (psi) (hr) (psi)
0.000200000000020850166 0.56729796905982155 0.000200000000020850166 0.45290063926656604
0.000399999999999067768 1.13299819645292033 0.000399999999999067768 1.17936989608706311
0.000600000000019917934 1.69734125223796428 0.000600000000019917934 1.72267722700804882
0.000799999999998135536 2.26044730644023506 0.000799999999998135536 2.27410248184667863
0.001007140329434719206 2.84244006621425038 0.001007140329434719206 2.85120939072190227
0.001267914553977789183 3.57346406626408042 0.001267914553977789183 3.58045370933597029
0.001596209851982166583 4.49127829484715946 0.001596209851982166583 4.49403240052869890
0.002009509145224797066 5.64300827835910557 0.002009509145224797066 5.63745746630032318
0.002529822128153114136 7.08736940878868715 0.002529822128153114136 7.06693654320854048
0.003184857364431081805 8.89736762753601163 0.003184857364431081805 8.85161581323041524
0.004009497869034817086 11.16355480171407066 0.004009497869034817086 11.07616336918534294
0.005047658755856332391 13.99791777266504589 0.005047658755856332391 13.84366719441926463
0.006354625877790454069 17.53846626549948695 0.006354625877790454069 17.27879070820538487
0.008000000000009777068 21.95457199106244417 0.008000000000009777068 21.53104603694907127
0.010071403294361402914 27.45305917191464573 0.010071403294361402914 26.77788771441845483
0.012679145539692626699 34.28496109959129257 0.012679145539692626699 33.22719612820615964
0.015962098519750611558 42.75274344014429317 0.015962098519750611558 41.11857470993568597
0.020095091452091651263 53.21764197443242495 0.020095091452091651263 50.72225266387282971
0.025298221281360611101 66.10635684835898473 0.025298221281360611101 62.33445785440120801
0.031848573644296607199 81.91622517516292135 0.031848573644296607199 76.26757158903781431
0.040094978690191851456 101.21733292158671702 0.040094978690191851456 92.83253338015970257
0.050476587558435426217 124.64951782923836276 0.050476587558435426217 112.31145221092145903
0.063546258777947173257 152.91177928592563262 0.063546258777947173257 134.91818685277021928
0.080000000000012505552 186.74101419993576201 0.080000000000012505552 160.74596470445584373
0.100714032943542974863 226.87716780044220855 0.100714032943542974863 189.70042465813821764
0.126791455396883634421 274.01098562929229274 0.126791455396883634421 221.43106641471047169
0.159620985197506115583 328.71745149100462413 0.159620985197506115583 255.25862181350973401
0.200950914520774404082 391.36999974444796635 0.200950914520774404082 290.13992851789771521
0.252982212813464002465 462.05776468186945749 0.252982212813464002465 324.67394066015702947
0.318485736442809752589 540.50270606627020697 0.318485736442809752589 357.18715612480627897
0.400949786901833249431 626.01649590268073098 0.400949786901833249431 385.93531030599956466
0.504765875584169521062 717.51091180672983683 0.504765875584169521062 409.35216661162871787
0.635462587779443310865 813.56967287516772558 0.635462587779443310865 426.35577259328920263
0.800000000000011368684 912.59986406943050952 0.800000000000011368684 436.60012847152660243
1.007140329435344483500 1013.01904901106070156 1.007140329435344483500 440.55046472724166051
1.267914553968907398485 1113.44000518550592460 1.267914553968907398485 439.41771674654847857
1.596209851975117999245 1212.82532430594574180 1.596209851975117999245 434.87912376300164397
2.009509145207687197399 1310.54095056425717303 2.009509145207687197399 428.72342314699795907
2.529822128134725289783 1406.34472092828605128 2.529822128134725289783 422.61312527560033914
3.184857364427983839050 1500.32729996661100813 3.184857364427983839050 417.76906380360071580
4.009497869018204596614 1592.75482403021942446 4.009497869018204596614 414.90607282413486701
5.009497869018190385759 1680.99295907897817415 5.009497869018190385759 414.27253368693351376
6.009497869018190385759 1752.49511829803259388 6.009497869018190385759 415.31431132218949642
7.009497869018204596614 1812.62897331993826811 7.009497869018204596614 417.21648320231236085
8.009497869018190385759 1864.51349096436206310 8.009497869018190385759 419.49696536311188311
9.009497869018204596614 1910.12287713881164564 9.009497869018204596614 421.94590364760307466
10.009497869018190385759 1950.78816205846851517 10.009497869018190385759 424.41454254962661707
11.009497869018190385759 1987.45126958455693966 11.009497869018190385759 426.71484361192278811
12.009497869018204596614 2020.80398207782604914 12.009497869018204596614 428.92595861248577194
13.009497869018190385759 2051.36784989276384294 13.009497869018190385759 431.03266145716912661
14.009497869018204596614 2079.55321882410135004 14.009497869018204596614 433.02957851671027356
15.009497869018190385759 2105.68308322656866949 15.009497869018190385759 434.93204892068297340
16.009497869018190385759 2130.01906477753300351 16.009497869018190385759 436.72780483323992939
17.009497869018204596614 2152.77570066727321318 17.009497869018204596614 438.39230993796746816
18.009497869018190385759 2174.12916227101050026 18.009497869018190385759 439.94443998828984377
19.009497869018204596614 2194.22562767451381660 19.009497869018204596614 441.33795166472293658
20.009497869018190385759 2213.19046921678364015 20.009497869018190385759 442.65408649785740636
21.009497869018190385759 2231.13046147511977324 21.009497869018190385759 443.90063577384654536
22.009497869018204596614 2248.13700063935948492 22.009497869018204596614 445.10220482299115474
23.009497869018190385759 2264.29799632142203336 23.009497869018190385759 446.28425688984486897
24.009497869018204596614 2279.68725540760897275 24.009497869018204596614 447.40591591304911390
25.009497869018204596614 2294.36799520327622304 25.009497869018204596614 448.48821124083423229
26.009497869018190385759 2308.39564238319144351 26.009497869018190385759 449.49261422628319451
27.009497869018204596614 2321.82074962819342545 27.009497869018204596614 450.41592510041391506
28.009497869018190385759 2334.68360200707957119 28.009497869018190385759 451.27322132491036655
29.009497869018190385759 2347.01728017801951864 29.009497869018190385759 452.08729293400688221
30.009497869018190385759 2358.85718270068628044 30.009497869018190385759 452.85473580762396750
31.009497869018218807469 2370.23817365281138336 31.009497869018218807469 453.56013754707612406
32.009497869018190385759 2381.19043446734121972 32.009497869018190385759 454.22227466019165831
33.009497869018190385759 2391.74125244824881520 33.009497869018190385759 454.89886515753823915
34.009497869018218807469 2401.91632954873875860 34.009497869018218807469 455.53422915956917905
35.009497869018190385759 2411.73744741170139605 35.009497869018190385759 456.14882874884881403
36.009497869018190385759 2421.22483236842253973 36.009497869018190385759 456.74944232851333936
37.009497869018190385759 2430.39726573229881978 37.009497869018190385759 457.32863878593570917
38.009497869018218807469 2439.27134538540985886 38.009497869018218807469 457.88644566894907939
39.009497869018190385759 2447.86263831766109433 39.009497869018190385759 458.41346819742886964
40.009497869018190385759 2456.18559523663543587 40.009497869018190385759 458.90689621104280604
41.009497869018218807469 2464.25379810016738702 41.009497869018218807469 459.39760205118614067
42.009497869018190385759 2472.07970156760165992 42.009497869018190385759 459.86194759505372076
43.009497869018190385759 2479.67486474714223732 43.009497869018190385759 460.30789120907689949
44.009497869018218807469 2487.05059460317488629 44.009497869018218807469 460.73162544885462921
46.009497869018190385759 2501.18457291044023805 46.009497869018190385759 461.53460249397210191
48.009497869018218807469 2514.55596788569346245 48.009497869018218807469 462.28708887041466369
50.009497869018190385759 2527.22922871509445031 50.009497869018190385759 462.99222768909282877
52.009497869018190385759 2539.26177901330993336 52.009497869018190385759 463.65593639852687602
54.009497869018218807469 2550.70461963039770126 54.009497869018218807469 464.28265504757558801
56.009497869018190385759 2561.60342838365295393 56.009497869018190385759 464.87017010777447013
58.009497869018218807469 2571.99862343065842651 58.009497869018218807469 465.41297674244441396
60.009497869018190385759 2581.92661529172801238 60.009497869018190385759 465.93470862504625529
62.009497869018190385759 2591.42019692660642249 62.009497869018190385759 466.42839742624204291
64.009497869018218807469 2600.50898530564700195 64.009497869018218807469 466.89442035469613757
66.009497869018190385759 2609.21974240413874213 66.009497869018190385759 467.32263524216773476
68.009497869018190385759 2617.57668673779517121 68.009497869018190385759 467.72417872882488155
70.009497869018190385759 2625.60223202000770470 70.009497869018190385759 468.11294790231426077
72.009497869018190385759 2633.31682820022660962 72.009497869018190385759 468.47992373656774134
74.009497869018218807469 2640.73917344482379121 74.009497869018218807469 468.83075498860108610
76.009497869018190385759 2647.88606908043720978 76.009497869018190385759 469.16425248565303718
78.009497869018190385759 2654.77291301083141661 78.009497869018190385759 469.47470403292169294
80.009497869018218807469 2661.41419576192129171 80.009497869018218807469 469.78251880884761249
82.009497869018190385759 2667.82385013527255069 82.009497869018190385759 470.08580739544100879
84.009497869018218807469 2674.01455028692680571 84.009497869018218807469 470.36824927302035348
86.009497869018190385759 2679.99798019155559814 86.009497869018190385759 470.64076551334562737
88.009497869018190385759 2685.78464784669176879 88.009497869018190385759 470.90420924030900096
91.009497869018218807469 2694.11704368903383511 91.009497869018218807469 471.28924691286914594
94.009497869018218807469 2702.05947376299127427 94.009497869018218807469 471.67552555796066827
97.009497869018218807469 2709.64058513420923191 97.009497869018218807469 472.09459799884763243
99.504748934509137825444 2715.69026969387186909 99.504748934509137825444 472.24877444024645001
nan nan nan nan

