Time Pressure difference Time.1 Pressure.1 difference.1
(hr) (psi) (hr) (psi)
0.000200000000020850166 0.26412994752712043 0.000200000000020850166 0.21086735473904542
0.000399999999999067768 0.52751599776285307 0.000399999999999067768 0.54910633522062380
0.000600000000019917934 0.79027015843583104 0.000600000000019917934 0.80206641023215153
0.000799999999998135536 1.05244837986529260 0.000799999999998135536 1.05880613356843889
0.001007140329434719206 1.32342011867662013 0.001007140329434719206 1.32750305453816253
0.001267914553977789183 1.66377975559586755 0.001267914553977789183 1.66703408428819699
0.001596209851982166583 2.09110761019238156 0.001596209851982166583 2.09238990244235179
0.002009509145224797066 2.62734499636631869 0.002009509145224797066 2.62476057728184919
0.002529822128153114136 3.29982938798653391 0.002529822128153114136 3.29031598937088754
0.003184857364431081805 4.14255183829641549 0.003184857364431081805 4.12125011509117467
0.004009497869034817086 5.19767266024169050 0.004009497869034817086 5.15698382342743677
0.005047658755856332391 6.51733214012808926 0.005047658755856332391 6.44551415494191193
0.006354625877790454069 8.16578663605979038 0.006354625877790454069 8.04488352153632924
0.008000000000009777068 10.22189442629261613 0.008000000000009777068 10.02470371852094466
0.010071403294361402914 12.78195141532775558 0.010071403294361402914 12.46759632969995479
0.012679145539692626699 15.96283693948760174 0.012679145539692626699 15.47034900259086143
0.015962098519750611558 19.90537688721213172 0.015962098519750611558 19.14451941106815269
0.020095091452091651263 24.77776009936970780 0.020095091452091651263 23.61592437351619367
0.025298221281360611101 30.77865516512175148 0.025298221281360611101 29.02248550175634634
0.031848573644296607199 38.13961874919738904 0.031848573644296607199 35.50964533720939897
0.040094978690191851456 47.12607887125120953 0.040094978690191851456 43.22217513161168512
0.050476587558435426217 58.03593948711244366 0.050476587558435426217 52.29142284490925618
0.063546258777947173257 71.19464979930359050 0.063546258777947173257 62.81695961812727802
0.080000000000012505552 86.94530382954548031 0.080000000000012505552 74.84219147293843832
0.100714032943542974863 105.63241487634059013 0.100714032943542974863 88.32318454068514768
0.126791455396883634421 127.57758920953872916 0.126791455396883634421 103.09674834535567811
0.159620985197506115583 153.04853524764197914 0.159620985197506115583 118.84662040511872760
0.200950914520774404082 182.21912140371074429 0.200950914520774404082 135.08711166719101016
0.252982212813464002465 215.13084797779572455 0.252982212813464002465 151.16590502185934497
0.318485736442809752589 251.65426138956649993 0.318485736442809752589 166.30382964522462430
0.400949786901833249431 291.46888096200945029 0.400949786901833249431 179.68876819517987542
0.504765875584169521062 334.06803800079075017 0.504765875584169521062 190.59149192166609055
0.635462587779443310865 378.79232207072232086 0.635462587779443310865 198.50825136847140584
0.800000000000011368684 424.90008312456643580 0.800000000000011368684 203.27795146990553121
1.007140329435344483500 471.65454990558902182 1.007140329435344483500 205.11720026832043118
1.267914553968907398485 518.40984136016231787 1.267914553968907398485 204.58980076925681146
1.596209851975117999245 564.68294748065989097 1.596209851975117999245 202.47666377252491543
2.009509145207687197399 610.17865633884878207 2.009509145207687197399 199.61061282685994911
2.529822128134725289783 654.78421852883593601 2.529822128134725289783 196.76570108000132109
3.184857364427983839050 698.54184683657729238 3.184857364427983839050 194.51034010182289080
4.009497869018204596614 741.57545247673465383 4.009497869018204596614 193.17735162236439805
5.009497869018190385759 782.65850803384341816 5.009497869018190385759 192.88238025248148233
6.009497869018190385759 815.94941086204141811 6.009497869018190385759 193.36742459803258498
7.009497869018204596614 843.94731115042509373 7.009497869018204596614 194.25306245729916554
8.009497869018190385759 868.10437793069866075 8.009497869018190385759 195.31483892455281648
9.009497869018204596614 889.33978759903686750 9.009497869018204596614 196.45504737911824122
10.009497869018190385759 908.27325846938947507 10.009497869018190385759 197.60442830275439974
11.009497869018190385759 925.34334367187273074 11.009497869018190385759 198.67543231126126102
12.009497869018204596614 940.87213221193087520 12.009497869018204596614 199.70491191620860150
13.009497869018190385759 955.10245426925177981 13.009497869018190385759 200.68577795516804940
14.009497869018204596614 968.22536396202667675 14.009497869018204596614 201.61552850411985105
15.009497869018190385759 980.39124519187237183 15.009497869018190385759 202.50130535399293308
16.009497869018190385759 991.72190717314128960 16.009497869018190385759 203.33739668663292832
17.009497869018204596614 1002.31723691389890973 17.009497869018204596614 204.11237856555439407
18.009497869018190385759 1012.25925856834749084 18.009497869018190385759 204.83503940889630712
19.009497869018204596614 1021.61603162590824923 19.009497869018204596614 205.48384865209644090
20.009497869018190385759 1030.44592856652570845 20.009497869018190385759 206.09663178084721835
21.009497869018190385759 1038.79866288299876942 21.009497869018190385759 206.67701636322576064
22.009497869018204596614 1046.71678799899905243 22.009497869018204596614 207.23645846809839099
23.009497869018190385759 1054.24123401202359673 23.009497869018190385759 207.78681360317810345
24.009497869018204596614 1061.40636488963355077 24.009497869018204596614 208.30905016156606280
25.009497869018204596614 1068.24161416492211174 25.009497869018204596614 208.81295926000771601
26.009497869018190385759 1074.77278810813299970 26.009497869018190385759 209.28060223127093309
27.009497869018204596614 1081.02342369218945350 27.009497869018204596614 209.71048928540500356
28.009497869018190385759 1087.01227736200780782 28.009497869018190385759 210.10964038260834741
29.009497869018190385759 1092.75475123954652190 29.009497869018190385759 210.48866640265620731
30.009497869018190385759 1098.26732664541464146 30.009497869018190385759 210.84598241116310646
31.009497869018218807469 1103.56623604918604542 31.009497869018218807469 211.17441250361670768
32.009497869018190385759 1108.66553171393024968 32.009497869018190385759 211.48269889010387601
33.009497869018190385759 1113.57791841660787213 33.009497869018190385759 211.79771467071330449
34.009497869018218807469 1118.31536280600130340 34.009497869018218807469 212.09353568483604136
35.009497869018190385759 1122.88800626196348276 35.009497869018190385759 212.37968893431028050
36.009497869018190385759 1127.30526602219356391 36.009497869018190385759 212.65933039599889298
37.009497869018190385759 1131.57588653421817071 37.009497869018190385759 212.92900019608720186
38.009497869018218807469 1135.70759565528578605 38.009497869018218807469 213.18871116065272986
39.009497869018190385759 1139.70764126649532955 39.009497869018190385759 213.43408914609426574
40.009497869018190385759 1143.58275151573957373 40.009497869018190385759 213.66382576151042372
41.009497869018218807469 1147.33925006713479888 41.009497869018218807469 213.89229495208957132
42.009497869018190385759 1150.98293572254351602 42.009497869018190385759 214.10849097397814944
43.009497869018190385759 1154.51919032150999556 43.009497869018190385759 214.31611918665657868
44.009497869018218807469 1157.95327830718838413 44.009497869018218807469 214.51340687076978497
46.009497869018190385759 1164.53395927601764015 46.009497869018190385759 214.88726733979959249
48.009497869018218807469 1170.75958680475923757 48.009497869018218807469 215.23761970833362511
50.009497869018190385759 1176.66016798155214929 50.009497869018190385759 215.56592738672259202
52.009497869018190385759 1182.26243883782217381 52.009497869018190385759 215.87494549741077776
54.009497869018218807469 1187.59014501093179206 54.009497869018218807469 216.16674129594295550
56.009497869018190385759 1192.66455377159832096 56.009497869018190385759 216.44028417902234196
58.009497869018218807469 1197.50448352994067136 58.009497869018218807469 216.69301113337823494
60.009497869018190385759 1202.12688676833022328 60.009497869018190385759 216.93592583128068441
62.009497869018190385759 1206.54703165836122025 62.009497869018190385759 217.16578386756219743
64.009497869018218807469 1210.77870765328816560 64.009497869018218807469 217.38276086792583897
66.009497869018190385759 1214.83437494072632035 66.009497869018190385759 217.58213471011615070
68.009497869018190385759 1218.72530949138922551 68.009497869018190385759 217.76909053552901696
70.009497869018190385759 1222.46194697271221230 70.009497869018190385759 217.95009873050648253
72.009497869018190385759 1226.05380873744070414 72.009497869018190385759 218.12096009989539880
74.009497869018218807469 1229.50960052043024007 74.009497869018218807469 218.28430466526373266
76.009497869018190385759 1232.83714490128704711 76.009497869018190385759 218.43957875613125452
78.009497869018190385759 1236.04361103578980874 78.009497869018190385759 218.58412281474244310
80.009497869018218807469 1239.13574561096788784 80.009497869018218807469 218.72743921114718546
82.009497869018190385759 1242.12003564131282474 82.009497869018190385759 218.86864824560797160
84.009497869018218807469 1245.00238212480621769 84.009497869018218807469 219.00015119885864578
86.009497869018190385759 1247.78822503794253862 86.009497869018190385759 219.12703284515944802
88.009497869018190385759 1250.48245683052414279 88.009497869018190385759 219.24969039299890028
91.009497869018218807469 1254.36196177615352099 91.009497869018218807469 219.42896122736806319
94.009497869018218807469 1258.05990140063136096 94.009497869018218807469 219.60880984982651398
97.009497869018218807469 1261.58961357639623202 97.009497869018218807469 219.80392703313842162
99.504748934509137825444 1264.40630419129024631 99.504748934509137825444 219.87571050072969570
nan nan nan nan

