Time Pressure difference Time.1 Pressure.1 difference.1
(hr) (psi) (hr) (psi)
0.000200000000020850166 0.71597488920873520 0.000200000000020850166 0.57159641441841869
0.000399999999999067768 1.42993330211188496 0.000399999999999067768 1.48845805333389225
0.000600000000019917934 2.14217885714366796 0.000600000000019917934 2.17415486044061224
0.000799999999998135536 2.85286321837698775 0.000799999999998135536 2.87009712935847272
0.001007140329434719206 3.58738409528064972 0.001007140329434719206 3.59845167613803785
0.001267914553977789183 4.50999418026301235 0.001267914553977789183 4.51881566244159050
0.001596209851982166583 5.66834830184224181 0.001596209851982166583 5.67182420096008588
0.002009509145224797066 7.12192260021310286 0.002009509145224797066 7.11491703653130081
0.002529822128153114136 8.94482054227796297 0.002529822128153114136 8.91903265043303328
0.003184857364431081805 11.22918139814940197 0.003184857364431081805 11.17143899122199002
0.004009497869034817086 14.08928878342244317 0.004009497869034817086 13.97899388614606941
0.005047658755856332391 17.66647894588179923 0.005047658755856332391 17.47180252062870665
0.006354625877790454069 22.13493107007402116 0.006354625877790454069 21.80719998605130527
0.008000000000009777068 27.70840564611394896 0.008000000000009777068 27.17388240680834599
0.010071403294361402914 34.64793119500794205 0.010071403294361402914 33.79581143459547121
0.012679145539692626699 43.27033157810789277 0.012679145539692626699 41.93534855419283502
0.015962098519750611558 53.95734237980143888 0.015962098519750611558 51.89489224006523926
0.020095091452091651263 67.16487171590154048 0.020095091452091651263 64.01549311311622148
0.025298221281360611101 83.43144890671368330 0.025298221281360611101 78.67101415884896198
0.031848573644296607199 103.38475271008850598 0.031848573644296607199 96.25570528513995328
0.040094978690191851456 127.74427668873757113 0.040094978690191851456 117.16199674040652212
0.050476587558435426217 157.31754666003436682 0.050476587558435426217 141.74593236576029653
0.063546258777947173257 192.98675511635127577 0.063546258777947173257 170.27741883907455644
0.080000000000012505552 235.68192421719564322 0.080000000000012505552 202.87411650840545008
0.100714032943542974863 286.33692334404270241 0.100714032943542974863 239.41693419519054942
0.126791455396883634421 345.82352798308920683 0.126791455396883634421 279.46351281036658065
0.159620985197506115583 414.86741315555781284 0.159620985197506115583 322.15656223022750737
0.200950914520774404082 493.93988254716572328 0.200950914520774404082 366.17952911043602171
0.252982212813464002465 583.15343068194943044 0.252982212813464002465 409.76418279510295406
0.318485736442809752589 682.15714879813310745 0.318485736442809752589 450.79843130246416649
0.400949786901833249431 790.08231254481813721 0.400949786901833249431 487.08087479322341551
0.504765875584169521062 905.55549923484795727 0.504765875584169521062 516.63479885684330384
0.635462587779443310865 1026.78925039296427713 0.635462587779443310865 538.09469396107647299
0.800000000000011368684 1151.77318129992545437 0.800000000000011368684 551.02388102848613016
1.007140329435344483500 1278.51013213401779467 1.007140329435344483500 556.00951770846597810
1.267914553968907398485 1405.24931840396220650 1.267914553968907398485 554.57990019842577567
1.596209851975117999245 1530.68144883122272404 1.596209851975117999245 548.85183701860535166
2.009509145207687197399 1654.00629485562149057 2.009509145207687197399 541.08285615331215013
2.529822128134725289783 1774.91822758445459840 2.529822128134725289783 533.37117714138730662
3.184857364427983839050 1893.53167287147698516 3.184857364427983839050 527.25758857789730882
4.009497869018204596614 2010.18251583316123288 4.009497869018204596614 523.64426760527715032
5.009497869018190385759 2121.54601863261950712 5.009497869018190385759 522.84469112465114904
6.009497869018190385759 2211.78739673924428644 6.009497869018190385759 524.15949686636508886
7.009497869018204596614 2287.68107613731581296 7.009497869018204596614 526.56018817041478997
8.009497869018190385759 2353.16343954799458515 8.009497869018190385759 529.43833695900787006
9.009497869018204596614 2410.72609091311232987 9.009497869018204596614 532.52909069433940203
10.009497869018190385759 2462.04889559941466359 10.009497869018190385759 535.64470816658592867
11.009497869018190385759 2508.32063599105094909 11.009497869018190385759 538.54786997580879415
12.009497869018204596614 2550.41439612164913342 12.009497869018204596614 541.33847192381074365
13.009497869018190385759 2588.98841377388362162 13.009497869018190385759 543.99729747595870322
14.009497869018204596614 2624.56057778385820711 14.009497869018204596614 546.51756468726830462
15.009497869018190385759 2657.53853256413185591 15.009497869018190385759 548.91863275201865235
16.009497869018190385759 2688.25246535612495791 16.009497869018190385759 551.18501869143904059
17.009497869018204596614 2716.97313905591454386 17.009497869018204596614 553.28575573430146051
18.009497869018190385759 2743.92289586765900822 18.009497869018190385759 555.24466657380060042
19.009497869018204596614 2769.28622409287072514 19.009497869018204596614 557.00338848461365160
20.009497869018190385759 2793.22135353567682614 20.009497869018190385759 558.66445470154189934
21.009497869018190385759 2815.86304215454356381 21.009497869018190385759 560.23769844371258841
22.009497869018204596614 2837.32663916709725527 22.009497869018204596614 561.75417358333584161
23.009497869018190385759 2857.72309345397570723 23.009497869018190385759 563.24601674823759367
24.009497869018204596614 2877.14555514108178613 24.009497869018204596614 564.66163911720116175
25.009497869018204596614 2895.67380946592129476 25.009497869018204596614 566.02758139033539919
26.009497869018190385759 2913.37780927424728361 26.009497869018190385759 567.29521736904257523
27.009497869018204596614 2930.32135604612403768 27.009497869018204596614 568.46050869188400156
28.009497869018190385759 2946.55529272342982949 28.009497869018190385759 569.54248430757343158
29.009497869018190385759 2962.12136971222980719 29.009497869018190385759 570.56990704116242341
30.009497869018190385759 2977.06426279354491271 30.009497869018190385759 571.53848062397048579
31.009497869018218807469 2991.42797318993189037 31.009497869018218807469 572.42875339030683790
32.009497869018190385759 3005.25059225599989077 32.009497869018190385759 573.26442277757723787
33.009497869018190385759 3018.56655872677947627 33.009497869018190385759 574.11833347847436926
34.009497869018218807469 3031.40831049928647190 34.009497869018218807469 574.92021308279447567
35.009497869018190385759 3043.80333772897029121 35.009497869018190385759 575.69588635652655739
36.009497869018190385759 3055.77716764506612890 36.009497869018190385759 576.45390818034923086
37.009497869018190385759 3067.35350374998779444 37.009497869018190385759 577.18489990260115974
38.009497869018218807469 3078.55329388319660211 38.009497869018218807469 577.88889629082586907
39.009497869018190385759 3089.39618481672596317 39.009497869018190385759 578.55404038972710623
40.009497869018190385759 3099.90041448606143604 40.009497869018190385759 579.17678555478607905
41.009497869018218807469 3110.08312439581868603 41.009497869018218807469 579.79609512170202379
42.009497869018190385759 3119.96003331079418786 42.009497869018190385759 580.38213591059479768
43.009497869018190385759 3129.54572973943868419 43.009497869018190385759 580.94495200911319444
44.009497869018218807469 3138.85448396476840571 44.009497869018218807469 581.47973812139480287
46.009497869018190385759 3156.69268206266360721 46.009497869018190385759 582.49315863807305504
48.009497869018218807469 3173.56843970346653805 48.009497869018218807469 583.44285593894210251
50.009497869018190385759 3189.56309685565383916 50.009497869018190385759 584.33279687847436890
52.009497869018190385759 3204.74912666101499781 52.009497869018190385759 585.17044974455359352
54.009497869018218807469 3219.19089622460114697 54.009497869018218807469 585.96141822988317927
56.009497869018190385759 3232.94605456326326021 56.009497869018190385759 586.70290868653228245
58.009497869018218807469 3246.06561258744932275 58.009497869018218807469 587.38797357538373944
60.009497869018190385759 3258.59552325251752336 60.009497869018190385759 588.04644046089288167
62.009497869018190385759 3270.57717386637568779 62.009497869018190385759 588.66951476049871417
64.009497869018218807469 3282.04794338721512759 64.009497869018218807469 589.25767254135871553
66.009497869018190385759 3293.04160754373015152 66.009497869018190385759 589.79811358528343135
68.009497869018190385759 3303.58873201753931426 68.009497869018190385759 590.30489321266043135
70.009497869018190385759 3313.71760468703769220 70.009497869018190385759 590.79555064684461740
72.009497869018190385759 3323.45403500526390417 72.009497869018190385759 591.25870316386738068
74.009497869018218807469 3332.82162153651233893 74.009497869018218807469 591.70147994168974037
76.009497869018190385759 3341.84156888336292468 76.009497869018190385759 592.12238015026775884
78.009497869018190385759 3350.53331041776982602 78.009497869018190385759 592.51419454813833454
80.009497869018218807469 3358.91513432910142001 80.009497869018218807469 592.90268113210345291
82.009497869018190385759 3367.00462491450161906 82.009497869018190385759 593.28545530727694768
84.009497869018218807469 3374.81777796095275335 84.009497869018218807469 593.64191928747220572
86.009497869018190385759 3382.36933956825942005 86.009497869018190385759 593.98585632870265272
88.009497869018190385759 3389.67257166009994762 88.009497869018190385759 594.31834314077059389
91.009497869018218807469 3400.18871399699446556 91.009497869018218807469 594.80429112575870931
94.009497869018218807469 3410.21268870234007409 94.009497869018218807469 595.29180531619624617
97.009497869018218807469 3419.78065063790427303 97.009497869018218807469 595.82070786970234622
99.504748934509137825444 3427.41583085815182130 99.504748934509137825444 596.01529072839298351
nan nan nan nan

