Time Pressure difference Time.1 Pressure.1 difference.1
(hr) (psi) (hr) (psi)
0.000200000000020850166 0.51663153258449346 0.000200000000020850166 0.41245124103045988
0.000399999999999067768 1.03180802078142952 0.000399999999999067768 1.07403817769568577
0.000600000000019917934 1.54574854889021052 0.000600000000019917934 1.56882172064276193
0.000799999999998135536 2.05856255432771063 0.000799999999998135536 2.07099816062757558
0.001007140329434719206 2.58857645854357798 0.001007140329434719206 2.59656257837338700
0.001267914553977789183 3.25431134585103665 0.001267914553977789183 3.26067673090332866
0.001596209851982166583 4.09015387905553851 0.001596209851982166583 4.09266201043755640
0.002009509145224797066 5.13902071616305101 0.002009509145224797066 5.13396565745066003
0.002529822128153114136 6.45438326832586196 0.002529822128153114136 6.43577529996443953
0.003184857364431081805 8.10272718056720187 0.003184857364431081805 8.06106154587015844
0.004009497869034817086 10.16651696437211072 0.004009497869034817086 10.08693062318196709
0.005047658755856332391 12.74773770804928041 0.005047658755856332391 12.60726353576688474
0.006354625877790454069 15.97207323153833336 0.006354625877790454069 15.73558978111823059
0.008000000000009777068 19.99376834325159535 0.008000000000009777068 19.60806827962272791
0.010071403294361402914 25.00117540985491971 0.010071403294361402914 24.38630477067098212
0.012679145539692626699 31.22290747283423684 0.012679145539692626699 30.25961345789784929
0.015962098519750611558 38.93441642718850204 0.015962098519750611558 37.44619834491946619
0.020095091452091651263 48.46467541449043637 0.020095091452091651263 46.19215396329268231
0.025298221281360611101 60.20227519718783071 0.025298221281360611101 56.76725151601399233
0.031848573644296607199 74.60013478616595251 0.031848573644296607199 69.45597295517059422
0.040094978690191851456 92.17742471043476371 0.040094978690191851456 84.54148720711468457
0.050476587558435426217 113.51683761315703691 0.050476587558435426217 102.28070757714954198
0.063546258777947173257 139.25494394706552725 0.063546258777947173257 122.86839271218605063
0.080000000000012505552 170.06282698734997894 0.080000000000012505552 146.38944369864057649
0.100714032943542974863 206.61434607888003256 0.100714032943542974863 172.75792699467348257
0.126791455396883634421 249.53855499475812962 0.126791455396883634421 201.65464613462648913
0.159620985197506115583 299.35908466677142314 0.159620985197506115583 232.46099966032659268
0.200950914520774404082 356.41601733681790165 0.200950914520774404082 264.22699200312206358
0.252982212813464002465 420.79052654776393183 0.252982212813464002465 295.67670730690730352
0.318485736442809752589 492.22940435317730135 0.318485736442809752589 325.28610704191726199
0.400949786901833249431 570.10579861122607781 0.400949786901833249431 351.46671011761594627
0.504765875584169521062 653.42867810217558144 0.504765875584169521062 372.79216344426509977
0.635462587779443310865 740.90825260373981109 0.635462587779443310865 388.27714575845664058
0.800000000000011368684 831.09387328138473094 0.800000000000011368684 397.60655916440640567
1.007140329435344483500 922.54443409206396609 1.007140329435344483500 401.20408354369590143
1.267914553968907398485 1013.99660794346232251 1.267914553968907398485 400.17250339143942028
1.596209851975117999245 1104.50563941185669137 1.596209851975117999245 396.03926058651103403
2.009509145207687197399 1193.49410139233964401 2.009509145207687197399 390.43333703870092677
2.529822128134725289783 1280.74145888344651212 2.529822128134725289783 384.86876123195224864
3.184857364427983839050 1366.33027903255060664 3.184857364427983839050 380.45733189727621948
4.009497869018204596614 1450.50292905826722745 4.009497869018204596614 377.85003996575682095
5.009497869018190385759 1530.86035219198311097 5.009497869018190385759 377.27308338692921552
6.009497869018190385759 1595.97652061694907388 6.009497869018190385759 378.22181792445371684
7.009497869018204596614 1650.73970923133470023 7.009497869018204596614 379.95410329698142959
8.009497869018190385759 1697.99032412859924079 8.009497869018190385759 382.03091135557190228
9.009497869018204596614 1739.52625121572623357 9.009497869018204596614 384.26113040821246614
10.009497869018190385759 1776.55964392440341726 10.009497869018190385759 386.50929057960138380
11.009497869018190385759 1809.94830114435467294 11.009497869018190385759 388.60414747674371938
12.009497869018204596614 1840.32222086736146593 12.009497869018204596614 390.61778368516274895
13.009497869018190385759 1868.15637281595786590 13.009497869018190385759 392.53633298149219399
14.009497869018204596614 1893.82445403893257208 14.009497869018204596614 394.35490166529103817
15.009497869018190385759 1917.62061166460557615 15.009497869018190385759 396.08745889994850131
16.009497869018190385759 1939.78310145186765112 16.009497869018190385759 397.72283251284807193
17.009497869018204596614 1960.50729987561385315 17.009497869018204596614 399.23867757161895042
18.009497869018190385759 1979.95364411796253989 18.009497869018190385759 400.65218400104879493
19.009497869018204596614 1998.25525682803458949 19.009497869018204596614 401.92123855850314840
20.009497869018190385759 2015.52631310811011645 20.009497869018190385759 403.11982694241186209
21.009497869018190385759 2031.86405129945023873 21.009497869018190385759 404.25504458467429458
22.009497869018204596614 2047.35170482823036764 22.009497869018204596614 405.34929926778988829
23.009497869018190385759 2062.06933193546774419 23.009497869018190385759 406.42578006659368839
24.009497869018204596614 2076.08414767720751115 24.009497869018204596614 407.44726163677387376
25.009497869018204596614 2089.45372330371583303 25.009497869018204596614 408.43289515636729448
26.009497869018190385759 2102.22853523037338164 26.009497869018190385759 409.34759304355509357
27.009497869018204596614 2114.45462118409432151 27.009497869018204596614 410.18844130667270065
28.009497869018190385759 2126.16866829927312210 28.009497869018190385759 410.96917081126537141
29.009497869018190385759 2137.40080273898729502 29.009497869018190385759 411.71053617123317281
30.009497869018190385759 2148.18326155172326253 30.009497869018190385759 412.40943729479079138
31.009497869018218807469 2158.54779503960298825 31.009497869018218807469 413.05183829323766531
32.009497869018190385759 2168.52188907567506249 32.009497869018190385759 413.65483870957427825
33.009497869018190385759 2178.13039388405695718 33.009497869018190385759 414.27100165152091904
34.009497869018218807469 2187.39671592871945904 34.009497869018218807469 414.84962011310699381
35.009497869018190385759 2196.34069149352626482 35.009497869018190385759 415.40932867025469477
36.009497869018190385759 2204.98074045850489711 36.009497869018190385759 415.95630033431228867
37.009497869018190385759 2213.33396674303048712 37.009497869018190385759 416.48376767913913454
38.009497869018218807469 2221.41548584147130896 38.009497869018218807469 416.99175579222008992
39.009497869018190385759 2229.23947442691815013 39.009497869018190385759 417.47170895871266794
40.009497869018190385759 2236.81909258738960489 40.009497869018190385759 417.92106799892917479
41.009497869018218807469 2244.16670925081098176 41.009497869018218807469 418.36794798804942275
42.009497869018190385759 2251.29366672774267499 42.009497869018190385759 418.79082196796986182
43.009497869018190385759 2258.21049176094084032 43.009497869018190385759 419.19693752861758185
44.009497869018218807469 2264.92748146877738691 44.009497869018218807469 419.58282727553086033
46.009497869018190385759 2277.79912789208492541 46.009497869018190385759 420.31408894765831974
48.009497869018218807469 2289.97629871874278251 48.009497869018218807469 420.99936936661481468
50.009497869018190385759 2301.51768705825543293 50.009497869018190385759 421.64153092623092789
52.009497869018190385759 2312.47558791548863155 52.009497869018190385759 422.24596257669651322
54.009497869018218807469 2322.89644715974691280 54.009497869018218807469 422.81670781785072677
56.009497869018190385759 2332.82186303752860113 56.009497869018190385759 423.35175081557207477
58.009497869018218807469 2342.28864388560759835 58.009497869018218807469 423.84607838038130012
60.009497869018190385759 2351.32994833302291227 60.009497869018190385759 424.32121341841690310
62.009497869018190385759 2359.97564053931046146 62.009497869018190385759 424.77080995479144576
64.009497869018218807469 2368.25269232812979681 64.009497869018218807469 425.19521150896190420
66.009497869018190385759 2376.18547551299343468 66.009497869018190385759 425.58518172859197648
68.009497869018190385759 2383.79604560894358656 68.009497869018190385759 425.95086261980833342
70.009497869018190385759 2391.10481451895338978 70.009497869018190385759 426.30491009551894876
72.009497869018190385759 2398.13040576945968496 72.009497869018190385759 426.63911063564444248
74.009497869018218807469 2404.88984755882893296 74.009497869018218807469 426.95860849620771660
76.009497869018190385759 2411.39844065597617373 76.009497869018190385759 427.26232071167811455
78.009497869018190385759 2417.67020774924958459 78.009497869018190385759 427.54504525399312342
80.009497869018218807469 2423.71834518874811693 80.009497869018218807469 427.82536851991682170
82.009497869018190385759 2429.55554141162429005 82.009497869018190385759 428.10156983889356752
84.009497869018218807469 2435.19333862147641412 84.009497869018218807469 428.35878630720156934
86.009497869018190385759 2440.64237727547242685 86.009497869018190385759 428.60696361537475241
88.009497869018190385759 2445.91222688234574889 88.009497869018190385759 428.84687869322431197
91.009497869018218807469 2453.50044095838802605 91.009497869018218807469 429.19752793529227120
94.009497869018218807469 2460.73351783393945880 94.009497869018218807469 429.54930731632725838
97.009497869018218807469 2467.63754605194480973 97.009497869018218807469 429.93095161827704942
99.504748934509137825444 2473.14692203453660113 99.504748934509137825444 430.07135827501213043
nan nan nan nan

