Time Pressure difference Time.1 Pressure.1 difference.1
(hr) (psi) (hr) (psi)
0.000200000000020850166 0.63706814387830624 0.000200000000020850166 0.50860144995235168
0.000399999999999067768 1.27234204491857961 0.000399999999999067768 1.32441685256043540
0.000600000000019917934 1.90609186012667431 0.000600000000019917934 1.93454382593729624
0.000799999999998135536 2.53845253885748212 0.000799999999998135536 2.55378712090249271
0.001007140329434719206 3.19202273907222533 0.001007140329434719206 3.20187057493953020
0.001267914553977789183 4.01295305830827154 0.001267914553977789183 4.02080233537436271
0.001596209851982166583 5.04364634282250535 0.001596209851982166583 5.04673916721158466
0.002009509145224797066 6.33702393777662376 0.002009509145224797066 6.33079044897854715
0.002529822128153114136 7.95902245467192326 0.002529822128153114136 7.93607661587254931
0.003184857364431081805 9.99162660368978095 0.003184857364431081805 9.94024791910355709
0.004009497869034817086 12.53652493838168702 0.004009497869034817086 12.43838551122277991
0.005047658755856332391 15.71947720590642739 0.005047658755856332391 15.54625583912090114
0.006354625877790454069 19.69546650898697848 0.006354625877790454069 19.40385427993196288
0.008000000000009777068 24.65469504706426918 0.008000000000009777068 24.17908098146403972
0.010071403294361402914 30.82942369671820515 0.010071403294361402914 30.07121504679203028
0.012679145539692626699 38.50155953643707107 0.012679145539692626699 37.31370341190940110
0.015962098519750611558 48.01076752355881894 0.015962098519750611558 46.17561757323670690
0.020095091452091651263 59.76271067992630748 0.020095091452091651263 56.96042136631106700
0.025298221281360611101 74.23656764669303243 0.025298221281360611101 70.00077477939346693
0.031848573644296607199 91.99084144853583211 0.031848573644296607199 85.64747790452709353
0.040094978690191851456 113.66573111399270601 0.040094978690191851456 104.24971171681183080
0.050476587558435426217 139.97976599564543676 0.050476587558435426217 126.12428088693521033
0.063546258777947173257 171.71791319517564034 0.063546258777947173257 151.51134599718119489
0.080000000000012505552 209.70769823038173740 0.080000000000012505552 180.51560018787353101
0.100714032943542974863 254.78006984324920836 0.100714032943542974863 213.03107717831920809
0.126791455396883634421 307.71072617520815129 0.126791455396883634421 248.66416975121947530
0.159620985197506115583 369.14536646207989179 0.159620985197506115583 286.65206871297505131
0.200950914520774404082 439.50335256806965845 0.200950914520774404082 325.82331650545756929
0.252982212813464002465 518.88478112883433369 0.252982212813464002465 364.60455708102546168
0.318485736442809752589 606.97741662200473911 0.318485736442809752589 401.11646961599774386
0.400949786901833249431 703.00827577943789493 0.400949786901833249431 433.40026794246210784
0.504765875584169521062 805.75529920316523658 0.504765875584169521062 459.69708900603109214
0.635462587779443310865 913.62802210139625458 0.635462587779443310865 478.79191446420617240
0.800000000000011368684 1024.83762187591992188 0.800000000000011368684 490.29619112395448610
1.007140329435344483500 1137.60704332574459841 1.007140329435344483500 494.73236668491119872
1.267914553968907398485 1250.37845384668094084 1.267914553968907398485 493.46030562899358074
1.596209851975117999245 1361.98685760272383050 1.596209851975117999245 488.36352551423459545
2.009509145207687197399 1471.72021827640583069 2.009509145207687197399 481.45075483711190145
2.529822128134725289783 1579.30658997363889284 2.529822128134725289783 474.58897084390258669
3.184857364427983839050 1684.84778781023510419 3.184857364427983839050 469.14915364181814539
4.009497869018204596614 1788.64267940143258784 4.009497869018204596614 465.93405249796700218
5.009497869018190385759 1887.73294233320098101 5.009497869018190385759 465.22259639513617913
6.009497869018190385759 1968.02892494083607744 6.009497869018190385759 466.39249895185849937
7.009497869018204596614 2035.55845173703187356 7.009497869018204596614 468.52861290801405403
8.009497869018190385759 2093.82408136115054731 8.009497869018190385759 471.08956432431449457
9.009497869018204596614 2145.04282103289733641 9.009497869018204596614 473.83968974774751359
10.009497869018190385759 2190.70940014472262192 10.009497869018190385759 476.61193870507116799
11.009497869018190385759 2231.88158678090030662 11.009497869018190385759 479.19514648659560407
12.009497869018204596614 2269.33624341682707382 12.009497869018204596614 481.67819949601260987
13.009497869018190385759 2303.65906422803800524 13.009497869018190385759 484.04399903023238494
14.009497869018204596614 2335.31086213482512903 14.009497869018204596614 486.28651057440231398
15.009497869018190385759 2364.65435554140276508 15.009497869018190385759 488.42295976890750353
16.009497869018190385759 2391.98334214402302678 16.009497869018190385759 490.43956999574675137
17.009497869018204596614 2417.53874438037883010 17.009497869018204596614 492.30878729490632395
18.009497869018190385759 2441.51840038340424144 18.009497869018190385759 494.05180888875310075
19.009497869018204596614 2464.08646621720663461 19.009497869018204596614 495.61670413886162123
20.009497869018190385759 2485.38373336643144285 20.009497869018190385759 497.09470621355285402
21.009497869018190385759 2505.53010827440266439 21.009497869018190385759 498.49456462450996241
22.009497869018204596614 2524.62822765796272506 22.009497869018204596614 499.84391083343223272
23.009497869018190385759 2542.77681285289963853 23.009497869018190385759 501.17133972842020739
24.009497869018204596614 2560.05874801996469614 24.009497869018204596614 502.43094803119873859
25.009497869018204596614 2576.54502536004838475 25.009497869018204596614 503.64635142272305757
26.009497869018190385759 2592.29788829854715004 26.009497869018190385759 504.77428274020377330
27.009497869018204596614 2607.37410682990366695 27.009497869018204596614 505.81114868523792438
28.009497869018190385759 2621.81892055553453247 28.009497869018190385759 506.77388104861819329
29.009497869018190385759 2635.66947861865446612 29.009497869018190385759 507.68807273848204886
30.009497869018190385759 2648.96553313532376706 30.009497869018190385759 508.54990097283683781
31.009497869018218807469 2661.74623600542690838 31.009497869018218807469 509.34205783105034016
32.009497869018190385759 2674.04548058045475045 32.009497869018190385759 510.08562908399272828
33.009497869018190385759 2685.89391014320199247 33.009497869018190385759 510.84543129697203767
34.009497869018218807469 2697.32038764843719036 34.009497869018218807469 511.55893669895982612
35.009497869018190385759 2708.34937359410696445 35.009497869018190385759 512.24912393904389774
36.009497869018190385759 2719.00358188371910728 36.009497869018190385759 512.92360507462626629
37.009497869018190385759 2729.30410368473394556 37.009497869018190385759 513.57403506414743788
38.009497869018218807469 2739.26957820001325672 38.009497869018218807469 514.20044484346101399
39.009497869018190385759 2748.91748695409387437 39.009497869018190385759 514.79228419828393726
40.009497869018190385759 2758.26405790117041761 40.009497869018190385759 515.34639735559278506
41.009497869018218807469 2767.32454340091999256 41.009497869018218807469 515.89745354796457377
42.009497869018190385759 2776.11292987166962121 42.009497869018190385759 516.41890747497245684
43.009497869018190385759 2784.64219803961668731 43.009497869018190385759 516.91969627725029568
44.009497869018218807469 2792.92504547677208393 44.009497869018218807469 517.39554424490700058
46.009497869018190385759 2808.79731687014282215 46.009497869018190385759 518.29727688561729337
48.009497869018218807469 2823.81321723034670867 48.009497869018218807469 519.14230917072927696
50.009497869018190385759 2838.04512214418355143 50.009497869018190385759 519.93417077237802459
52.009497869018190385759 2851.55751757424377502 52.009497869018190385759 520.67950690727684560
54.009497869018218807469 2864.40767680309681964 54.009497869018218807469 521.38330369178697765
56.009497869018190385759 2876.64689541765983449 56.009497869018190385759 522.04307536261046607
58.009497869018218807469 2888.32056247630362122 58.009497869018218807469 522.65264006069526204
60.009497869018190385759 2899.46956651355094436 60.009497869018190385759 523.23853808991282222
62.009497869018190385759 2910.13073359107875149 62.009497869018190385759 523.79294410823956696
64.009497869018218807469 2920.33732317632711784 64.009497869018218807469 524.31628171603495048
66.009497869018190385759 2930.11938861489670671 66.009497869018190385759 524.79716139200979796
68.009497869018190385759 2939.50412698080344853 68.009497869018190385759 525.24808943632319824
70.009497869018190385759 2948.51670857883755161 70.009497869018190385759 525.68467209527818795
72.009497869018190385759 2957.18009843275785897 72.009497869018190385759 526.09678112144581519
74.009497869018218807469 2965.51529433701261951 74.009497869018218807469 526.49075999451974894
76.009497869018190385759 2973.54116396002245892 76.009497869018190385759 526.86527328915940416
78.009497869018190385759 2981.27499894481388765 78.009497869018190385759 527.21390628587255378
80.009497869018218807469 2988.73307196104497052 80.009497869018218807469 527.55957822311290784
82.009497869018190385759 2995.93102936127934299 82.009497869018190385759 527.90016730937520606
84.009497869018218807469 3002.88310405574338802 84.009497869018218807469 528.21734581611508474
86.009497869018190385759 3009.60241699403104576 86.009497869018190385759 528.52337796301037542
88.009497869018190385759 3016.10076851890562466 88.009497869018190385759 528.81922179695015984
91.009497869018218807469 3025.45793925254611167 91.009497869018218807469 529.25161402953244760
94.009497869018218807469 3034.37718356693130772 94.009497869018218807469 529.68539985791483105
97.009497869018218807469 3042.89067173929515775 97.009497869018218807469 530.15601268684645220
99.504748934509137825444 3049.68438778213749174 99.504748934509137825444 530.32915079892973154
nan nan nan nan

