Time Pressure difference Time.1 Pressure.1 difference.1
(hr) (psi) (hr) (psi)
0.000200000000020850166 0.33722251162267575 0.000200000000020850166 0.26922058498129697
0.000399999999999067768 0.67349526758402001 0.000399999999999067768 0.70106028962129963
0.000600000000019917934 1.00896127146209880 0.000600000000019917934 1.02402189482469663
0.000799999999998135536 1.34369195668336072 0.000799999999998135536 1.35180908876976802
0.001007140329434719206 1.68964958548021338 0.001007140329434719206 1.69486239038520115
0.001267914553977789183 2.12419679488025848 0.001267914553977789183 2.12835169251889322
0.001596209851982166583 2.66977889854750616 0.001596209851982166583 2.67141603896727942
0.002009509145224797066 3.35440902051800416 0.002009509145224797066 3.35110941627808412
0.002529822128153114136 4.21298972176897113 0.002529822128153114136 4.20084368454270596
0.003184857364431081805 5.28891838474322196 0.003184857364431081805 5.26172184505351215
0.004009497869034817086 6.63602232722681240 0.004009497869034817086 6.58407368651427394
0.005047658755856332391 8.32087059400001294 0.005047658755856332391 8.22917844939124521
0.006354625877790454069 10.42550117685621025 0.006354625877790454069 10.27114059667845858
0.008000000000009777068 13.05059477067547924 0.008000000000009777068 12.79883556515567022
0.010071403294361402914 16.31909520321719853 0.010071403294361402914 15.91774877313893555
0.012679145539692626699 20.38022577808794011 0.012679145539692626699 19.75145187123235502
0.015962098519750611558 25.41378306983687096 0.015962098519750611558 24.44237383928826901
0.020095091452091651263 31.63449874322044764 0.020095091452091651263 30.15114872845149208
0.025298221281360611101 39.29601885861456623 0.025298221281360611101 37.05386513746250898
0.031848573644296607199 48.69397865463565012 0.031848573644296607199 45.33621385819817107
0.040094978690191851456 60.16725792996223277 0.040094978690191851456 55.18302862715202650
0.050476587558435426217 74.09619947096746273 0.050476587558435426217 66.76200526739987140
0.063546258777947173257 90.89631389470835643 0.063546258777947173257 80.20026919798638687
0.080000000000012505552 111.00563948048889529 0.080000000000012505552 95.55323816985222152
0.100714032943542974863 134.86402654023359560 0.100714032943542974863 112.76482051420808261
0.126791455396883634421 162.88207930526010614 0.126791455396883634421 131.62666612646037834
0.159620985197506115583 195.40158902686363263 0.159620985197506115583 151.73499334741575240
0.200950914520774404082 232.64453864750493040 0.200950914520774404082 172.46970860653948421
0.252982212813464002465 274.66391282699703424 0.252982212813464002465 192.99797936753108729
0.318485736442809752589 321.29443435271701901 0.318485736442809752589 212.32501520742511048
0.400949786901833249431 372.12693607099322435 0.400949786901833249431 229.41396190956925238
0.504765875584169521062 426.51453908277062510 0.504765875584169521062 243.33379157294473316
0.635462587779443310865 483.61535459343792809 0.635462587779443310865 253.44135237609870615
0.800000000000011368684 542.48249606469801165 0.800000000000011368684 259.53096948673470479
1.007140329435344483500 602.17530585430552037 1.007140329435344483500 261.87919279540278694
1.267914553968907398485 661.86916852901231323 1.267914553968907398485 261.20584626515176296
1.596209851975117999245 720.94741093442746660 1.596209851975117999245 258.50794179762613112
2.009509145207687197399 779.03312727538559557 2.009509145207687197399 254.84876983555074048
2.529822128134725289783 835.98236705253896162 2.529822128134725289783 251.21658691346081582
3.184857364427983839050 891.84902457751695692 3.184857364427983839050 248.33710088471730160
4.009497869018204596614 946.79130096086259982 4.009497869018204596614 246.63523509018850177
5.009497869018190385759 999.24325239541008159 5.009497869018190385759 246.25863642297949241
6.009497869018190385759 1041.74673210688320069 6.009497869018190385759 246.87790687673344792
7.009497869018204596614 1077.49247901595163057 7.009497869018204596614 248.00862691089142231
8.009497869018190385759 1108.33452025114343087 8.009497869018190385759 249.36422831247935505
9.009497869018204596614 1135.44639548807845131 9.009497869018204596614 250.81996615069812151
10.009497869018190385759 1159.61931741689363662 10.009497869018190385759 252.28741475131536731
11.009497869018190385759 1181.41319978232786525 11.009497869018190385759 253.65479722758513503
12.009497869018204596614 1201.23926313850301995 12.009497869018204596614 254.96916427037956510
13.009497869018190385759 1219.40753595382443564 13.009497869018190385759 256.22146493647238685
14.009497869018204596614 1236.16194266849947780 14.009497869018204596614 257.40850494551148131
15.009497869018190385759 1251.69448285503199259 15.009497869018190385759 258.53940243308534264
16.009497869018190385759 1266.16067393803587038 16.009497869018190385759 259.60686495211626834
17.009497869018204596614 1279.68804461334252665 17.009497869018204596614 260.59630722520466861
18.009497869018190385759 1292.38131754323603673 18.009497869018190385759 261.51894968557201082
19.009497869018204596614 1304.32738628968172634 19.009497869018204596614 262.34730362500363299
20.009497869018190385759 1315.60077672330021414 20.009497869018190385759 263.12966195919489110
21.009497869018190385759 1326.26495952986624616 21.009497869018190385759 263.87065611153980171
22.009497869018204596614 1336.37426392325005509 22.009497869018204596614 264.58491238379855304
23.009497869018190385759 1345.98094656880994080 23.009497869018190385759 265.28756705311423048
24.009497869018204596614 1355.12888095972061819 24.009497869018204596614 265.95432190438936004
25.009497869018204596614 1363.85564575773082652 25.009497869018204596614 266.59767754579604571
26.009497869018190385759 1372.19418859088682439 26.009497869018190385759 267.19473115061634871
27.009497869018204596614 1380.17455980826730411 27.009497869018204596614 267.74358065998251277
28.009497869018190385759 1387.82070631753185808 28.009497869018190385759 268.25318866458798084
29.009497869018190385759 1395.15229246306898858 29.009497869018190385759 268.73710238829687569
30.009497869018190385759 1402.19036043408277692 30.009497869018190385759 269.19329829852904368
31.009497869018218807469 1408.95563470430670350 31.009497869018218807469 269.61261470587538724
32.009497869018190385759 1415.46605621338289893 32.009497869018190385759 270.00621304837164871
33.009497869018190385759 1421.73784552560618977 33.009497869018190385759 270.40840300726290479
34.009497869018218807469 1427.78628081520901105 34.009497869018218807469 270.78608644038814646
35.009497869018190385759 1433.62430988162623180 35.009497869018190385759 271.15142675260995020
36.009497869018190385759 1439.26395599059947017 36.009497869018190385759 271.50845327287908049
37.009497869018190385759 1444.71638343676909244 37.009497869018190385759 271.85274867802326071
38.009497869018218807469 1449.99145860391854512 38.009497869018218807469 272.18432934347481478
39.009497869018190385759 1455.09843507609139124 39.009497869018190385759 272.49761067079958821
40.009497869018190385759 1460.04590287858559350 40.009497869018190385759 272.79092219865793822
41.009497869018218807469 1464.84193562030441171 41.009497869018218807469 273.08261556776221823
42.009497869018190385759 1469.49393680299590415 42.009497869018190385759 273.35863941960735701
43.009497869018190385759 1474.00877758029264442 43.009497869018190385759 273.62372449617157599
44.009497869018218807469 1478.39317922238524261 44.009497869018218807469 273.87560751425326089
46.009497869018190385759 1486.79492913856324776 46.009497869018190385759 274.35292622628503523
48.009497869018218807469 1494.74337183249122063 48.009497869018218807469 274.80023145152034658
50.009497869018190385759 1502.27681824059777682 50.009497869018190385759 275.21939156921189351
52.009497869018190385759 1509.42940304451485645 52.009497869018190385759 275.61392412562503296
54.009497869018218807469 1516.23144300137846585 54.009497869018218807469 275.98646844702153658
56.009497869018190385759 1522.71009066436749890 56.009497869018190385759 276.33570873170782534
58.009497869018218807469 1528.88937205394927332 58.009497869018218807469 276.65837270487907062
60.009497869018190385759 1534.79093090547803513 60.009497869018190385759 276.96850908018853943
62.009497869018190385759 1540.43426054495171229 62.009497869018190385759 277.26197562965484167
64.009497869018218807469 1545.83696637495290815 64.009497869018218807469 277.53899657980474558
66.009497869018190385759 1551.01495668532993477 66.009497869018190385759 277.79354305756970689
68.009497869018190385759 1555.98262784120765900 68.009497869018190385759 278.03223508624142823
70.009497869018190385759 1560.75330336767660810 70.009497869018190385759 278.26333359932584699
72.009497869018190385759 1565.33913945723566030 72.009497869018190385759 278.48147736024378673
74.009497869018218807469 1569.75125097891418591 74.009497869018218807469 278.69002419527379288
76.009497869018190385759 1573.99962525132855262 76.009497869018190385759 278.88826721694749722
78.009497869018190385759 1578.09341534758073067 78.009497869018190385759 279.07281088926237089
80.009497869018218807469 1582.04123496243050795 80.009497869018218807469 279.25578716894892750
82.009497869018190385759 1585.85136625903464846 82.009497869018190385759 279.43607291734855380
84.009497869018218807469 1589.53134321594757239 84.009497869018218807469 279.60396662495787723
86.009497869018190385759 1593.08811121196436034 86.009497869018190385759 279.76596017337965350
88.009497869018190385759 1596.52791658236719741 88.009497869018190385759 279.92256069043259004
91.009497869018218807469 1601.48099522364259428 91.009497869018218807469 280.15144106387242573
94.009497869018218807469 1606.20226405237826839 94.009497869018218807469 280.38105911644515800
97.009497869018218807469 1610.70875192458129277 97.009497869018218807469 280.63017099199430504
99.504748934509137825444 1614.30490409328263013 99.504748934509137825444 280.72181906696931719
nan nan nan nan

