Time Pressure difference Time.1 Pressure.1 difference.1
(hr) (psi) (hr) (psi)
0.000200000000020850166 0.01993433566242418 0.000200000000020850166 0.01591451733879588
0.000399999999999067768 0.03981252813304552 0.000399999999999067768 0.04144198756382067
0.000600000000019917934 0.05964303082534574 0.000600000000019917934 0.06053331397978502
0.000799999999998135536 0.07943006640492774 0.000799999999998135536 0.07990989687308973
0.001007140329434719206 0.09988076367370718 0.001007140329434719206 0.10018890977646509
0.001267914553977789183 0.12556828344119755 0.001267914553977789183 0.12581389315382621
0.001596209851982166583 0.15781944227867031 0.001596209851982166583 0.15791621905225298
0.002009509145224797066 0.19829018840500517 0.002009509145224797066 0.19809513790806405
0.002529822128153114136 0.24904372739521008 0.002529822128153114136 0.24832573504685942
0.003184857364431081805 0.31264542175822002 0.003184857364431081805 0.31103774453518296
0.004009497869034817086 0.39227718190503325 0.004009497869034817086 0.38920632629641033
0.005047658755856332391 0.49187412378325202 0.005047658755856332391 0.48645389848618209
0.006354625877790454069 0.61628578385356902 0.006354625877790454069 0.60716102049330789
0.008000000000009777068 0.77146373028623527 0.008000000000009777068 0.75658141271856183
0.010071403294361402914 0.96467557851530239 0.010071403294361402914 0.94095066639244940
0.012679145539692626699 1.20474241052736586 0.012679145539692626699 1.16757350962949902
0.015962098519750611558 1.50229259526129288 0.015962098519750611558 1.44486938951457744
0.020095091452091651263 1.87001963014111006 0.020095091452091651263 1.78233391498235405
0.025298221281360611101 2.32291737095258499 0.025298221281360611101 2.19037626428349830
0.031848573644296607199 2.87846179239225552 0.031848573644296607199 2.67997323299693591
0.040094978690191851456 3.55668519783028003 0.040094978690191851456 3.26205095332918393
0.050476587558435426217 4.38007090468773175 0.050476587558435426217 3.94652247886107554
0.063546258777947173257 5.37318111692857325 0.063546258777947173257 4.74090261268885005
0.080000000000012505552 6.56190972298456465 0.080000000000012505552 5.64846728097648576
0.100714032943542974863 7.97225772651627107 0.100714032943542974863 6.66590072005170864
0.126791455396883634421 9.62849729883311056 0.126791455396883634421 7.78088666757401359
0.159620985197506115583 11.55083284887864004 0.159620985197506115583 8.96955625699009396
0.200950914520774404082 13.75238652103477399 0.200950914520774404082 10.19525371073139830
0.252982212813464002465 16.23629041341854418 0.252982212813464002465 11.40874754881957287
0.318485736442809752589 18.99277444449558416 0.318485736442809752589 12.55123242605468725
0.400949786901833249431 21.99765139335920594 0.400949786901833249431 13.56141646756074515
0.504765875584169521062 25.21268211326722763 0.504765875584169521062 14.38426354125781614
0.635462587779443310865 28.58809977892244092 0.635462587779443310865 14.98175482026199212
0.800000000000011368684 32.06793080185406808 0.800000000000011368684 15.34173218640796676
1.007140329435344483500 35.59656980419539707 1.007140329435344483500 15.48054341647701371
1.267914553968907398485 39.12527104604999550 1.267914553968907398485 15.44073968069862701
1.596209851975117999245 42.61758094193660185 1.596209851975117999245 15.28125764320942537
2.009509145207687197399 46.05121934632821024 2.009509145207687197399 15.06495191146112944
2.529822128134725289783 49.41767687010082710 2.529822128134725289783 14.85024159094349550
3.184857364427983839050 52.72013938389262933 3.184857364427983839050 14.68002566806210574
4.009497869018204596614 55.96795867748941333 4.009497869018204596614 14.57942276395203152
5.009497869018190385759 59.06856664406365809 5.009497869018190385759 14.55716077377218909
6.009497869018190385759 61.58108761222954541 6.009497869018190385759 14.59376789419114040
7.009497869018204596614 63.69413669059812833 7.009497869018204596614 14.66060848734333533
8.009497869018190385759 65.51731154193952023 8.009497869018190385759 14.74074256034360886
9.009497869018204596614 67.11998396973862668 9.009497869018204596614 14.82679602861269963
10.009497869018190385759 68.54892516750109621 10.009497869018190385759 14.91354175869844489
11.009497869018190385759 69.83723348466963898 11.009497869018190385759 14.99437224990651174
12.009497869018204596614 71.00921752542873833 12.009497869018204596614 15.07206882386480018
13.009497869018190385759 72.08320409579258126 13.009497869018190385759 15.14609644944664524
14.009497869018204596614 73.07361237449256919 14.009497869018204596614 15.21626630219772558
15.009497869018190385759 73.99179208995262513 15.009497869018190385759 15.28311738520701724
16.009497869018190385759 74.84693639042576763 16.009497869018190385759 15.34621861785909225
17.009497869018204596614 75.64658391803010318 17.009497869018204596614 15.40470781626825669
18.009497869018190385759 76.39692517496962409 18.009497869018190385759 15.45924825727519547
19.009497869018204596614 77.10309672648365620 19.009497869018204596614 15.50821499261105352
20.009497869018190385759 77.76950404275665107 20.009497869018190385759 15.55446277591299875
21.009497869018190385759 78.39989908550933251 21.009497869018190385759 15.59826538590383294
22.009497869018204596614 78.99749343388671718 22.009497869018204596614 15.64048743155459320
23.009497869018190385759 79.56537615185084178 23.009497869018190385759 15.68202366816438875
24.009497869018204596614 80.10614074638743887 24.009497869018204596614 15.72143774804272098
25.009497869018204596614 80.62200861622054049 25.009497869018204596614 15.75946862339681154
26.009497869018190385759 81.11492740438740157 26.009497869018190385759 15.79476243254874923
27.009497869018204596614 81.58667348620298299 27.009497869018204596614 15.82720673852113435
28.009497869018190385759 82.03866244241567074 28.009497869018190385759 15.85733134963081703
29.009497869018190385759 82.47205669732427680 29.009497869018190385759 15.88593708699292151
30.009497869018190385759 82.88810012418223039 30.009497869018190385759 15.91290433291797335
31.009497869018218807469 83.28801781503290158 31.009497869018218807469 15.93769150970692117
32.009497869018190385759 83.67287031803247999 32.009497869018190385759 15.96095840680029276
33.009497869018190385759 84.04361648427229170 33.009497869018190385759 15.98473318269534182
34.009497869018218807469 84.40115945705669276 34.009497869018218807469 16.00705929696875884
35.009497869018190385759 84.74626462354441969 35.009497869018190385759 16.02865576862719266
36.009497869018190385759 85.07964271865613171 36.009497869018190385759 16.04976078460369138
37.009497869018190385759 85.40195370069571368 37.009497869018190385759 16.07011322234620465
38.009497869018218807469 85.71378080417252932 38.009497869018218807469 16.08971404986058218
39.009497869018190385759 86.01567103898078415 39.009497869018190385759 16.10823314310145449
40.009497869018190385759 86.30813218986713764 40.009497869018190385759 16.12557175558569256
41.009497869018218807469 86.59164151450075053 41.009497869018218807469 16.14281471336525442
42.009497869018190385759 86.86663665830518255 42.009497869018190385759 16.15913139426250211
43.009497869018190385759 87.13352379784981849 43.009497869018190385759 16.17480144804955344
44.009497869018218807469 87.39270024959911609 44.009497869018218807469 16.18969108458639639
46.009497869018190385759 87.88935541705792787 46.009497869018190385759 16.21790696904147921
48.009497869018218807469 88.35921409847239261 48.009497869018218807469 16.24434865723272736
50.009497869018190385759 88.80454097973976957 50.009497869018190385759 16.26912659522434623
52.009497869018190385759 89.22735387455260536 52.009497869018190385759 16.29244871678571727
54.009497869018218807469 89.62944490648541773 54.009497869018218807469 16.31447104120324454
56.009497869018190385759 90.01241915257344317 56.009497869018190385759 16.33511578709602929
58.009497869018218807469 90.37769687018420939 58.009497869018218807469 16.35418951950024180
60.009497869018190385759 90.72655749194943553 60.009497869018190385759 16.37252270424759715
62.009497869018190385759 91.06015333270651979 62.009497869018190385759 16.38987048057073181
64.009497869018218807469 91.37952510590852739 64.009497869018218807469 16.40624610323968824
66.009497869018190385759 91.68561320307368590 66.009497869018190385759 16.42129318566914264
68.009497869018190385759 91.97926864085955856 68.009497869018190385759 16.43540305928520695
70.009497869018190385759 92.26127901680847287 70.009497869018190385759 16.44906405513256331
72.009497869018190385759 92.53236292358043613 72.009497869018190385759 16.46195925282229311
74.009497869018218807469 92.79317739776831786 74.009497869018218807469 16.47428714454820664
76.009497869018190385759 93.04431282273864667 76.009497869018190385759 16.48600594385896301
78.009497869018190385759 93.28631026685206962 78.009497869018190385759 16.49691492941452609
80.009497869018218807469 93.51967891403531041 80.009497869018218807469 16.50773126121865531
82.009497869018190385759 93.74490835028775848 82.009497869018190385759 16.51838854683833802
84.009497869018218807469 93.96244393394763961 84.009497869018218807469 16.52831329802707216
86.009497869018190385759 94.17269622927868511 86.009497869018190385759 16.53788927133279074
88.009497869018190385759 94.37603447777539145 88.009497869018190385759 16.54714644475463459
91.009497869018218807469 94.66882730386063827 91.009497869018218807469 16.56067631904664594
94.009497869018218807469 94.94791708684009279 94.009497869018218807469 16.57424979998690517
97.009497869018218807469 95.21431045859593212 97.009497869018218807469 16.58897562514252044
99.504748934509137825444 95.42689088236153339 99.504748934509137825444 16.59439324533808957
nan nan nan nan

