Time Pressure difference Time.1 Pressure.1 difference.1
(hr) (psi) (hr) (psi)
0.000200000000020850166 0.41695985427237253 0.000200000000020850166 0.33287865433648045
0.000399999999999067768 0.83274538011620203 0.000399999999999067768 0.86682823987658231
0.000600000000019917934 1.24753339476348168 0.000600000000019917934 1.26615515074383689
0.000799999999998135536 1.66141222230307184 0.000799999999998135536 1.67144867626212679
0.001007140329434719206 2.08917264017504190 0.001007140329434719206 2.09561802949106157
0.001267914553977789183 2.62646992864504902 0.001267914553977789183 2.63160726513419796
0.001596209851982166583 3.30105666766218731 0.001596209851982166583 3.30308091517629121
0.002009509145224797066 4.14756977413802463 0.002009509145224797066 4.14348996791034008
0.002529822128153114136 5.20916463134981189 0.002529822128153114136 5.19414662473014310
0.003184857364431081805 6.53950007177610182 0.003184857364431081805 6.50587282319424354
0.004009497869034817086 8.20513105484694449 0.004009497869034817086 8.14089899169991504
0.005047658755856332391 10.28836708913302012 0.005047658755856332391 10.17499404333597468
0.006354625877790454069 12.89064431227048679 0.006354625877790454069 12.69978467865168881
0.008000000000009777068 16.13644969182042033 0.008000000000009777068 15.82516121602991710
0.010071403294361402914 20.17779751727841031 0.010071403294361402914 19.68155143870873403
0.012679145539692626699 25.19919542019740533 0.012679145539692626699 24.42174590975034931
0.015962098519750611558 31.42295345088204428 0.015962098519750611558 30.22185139734657966
0.020095091452091651263 39.11457726378488076 0.020095091452091651263 37.28048438838091272
0.025298221281360611101 48.58768834242490442 0.025298221281360611101 45.81537019459649684
0.031848573644296607199 60.20782582420467577 0.031848573644296607199 56.05610679018591469
0.040094978690191851456 74.39399872128335289 0.040094978690191851456 68.23123244046875868
0.050476587558435426217 91.61648308971838617 0.050476587558435426217 82.54809518284416470
0.063546258777947173257 112.38903836242266721 0.063546258777947173257 99.16387964874179772
0.080000000000012505552 137.25327837242716100 0.080000000000012505552 118.14710729375816811
0.100714032943542974863 166.75305744629866922 0.100714032943542974863 139.42842339441492072
0.126791455396883634421 201.39606850059257681 0.126791455396883634421 162.75021279675644337
0.159620985197506115583 241.60492042237819987 0.159620985197506115583 187.61321837537610691
0.200950914520774404082 287.65408473164404768 0.200950914520774404082 213.25072344946508451
0.252982212813464002465 339.60907448067121095 0.252982212813464002465 238.63296956280939298
0.318485736442809752589 397.26553213069928461 0.318485736442809752589 262.52994491164389501
0.400949786901833249431 460.11754164443004811 0.400949786901833249431 283.65962777981224008
0.504765875584169521062 527.36526753583950722 0.504765875584169521062 300.87084573797602616
0.635462587779443310865 597.96775370912769176 0.635462587779443310865 313.36837165714666753
0.800000000000011368684 670.75421927211436923 0.800000000000011368684 320.89789823236657185
1.007140329435344483500 744.56158507108705180 1.007140329435344483500 323.80136646131086309
1.267914553968907398485 818.37025271321238051 1.267914553968907398485 322.96880498794627101
1.596209851975117999245 891.41773470217378872 1.596209851975117999245 319.63297237046384680
2.009509145207687197399 963.23800466069849335 2.009509145207687197399 315.10857748139528667
2.529822128134725289783 1033.65307453294235529 2.529822128134725289783 310.61755327723483333
3.184857364427983839050 1102.72958211308741738 3.184857364427983839050 307.05720355696570323
4.009497869018204596614 1170.66313567082033842 4.009497869018204596614 304.95292614599668468
5.009497869018190385759 1235.51751897166491290 5.009497869018190385759 304.48727951806824876
6.009497869018190385759 1288.07108255580146761 6.009497869018190385759 305.25297845349803083
7.009497869018204596614 1332.26902577834403019 7.009497869018204596614 306.65106086026474941
8.009497869018190385759 1370.40376641890156861 8.009497869018190385759 308.32719855385380470
9.009497869018204596614 1403.92633136703307173 9.009497869018204596614 310.12715026514894134
10.009497869018190385759 1433.81501808689790778 10.009497869018190385759 311.94158178610916821
11.009497869018190385759 1460.76213372100642118 11.009497869018190385759 313.63228622721118199
12.009497869018204596614 1485.27613324021785957 12.009497869018204596614 315.25743956583875161
13.009497869018190385759 1507.74035233699487435 13.009497869018190385759 316.80585073425902465
14.009497869018204596614 1528.45639216646964087 14.009497869018204596614 318.27357015430243337
15.009497869018190385759 1547.66165121484254996 15.009497869018190385759 319.67187197391336895
16.009497869018190385759 1565.54841949973865667 16.009497869018190385759 320.99173942355264444
17.009497869018204596614 1582.27438028546316673 17.009497869018204596614 322.21513849027769538
18.009497869018190385759 1597.96901824311453311 18.009497869018190385759 323.35594271467277849
19.009497869018204596614 1612.73977319561640797 19.009497869018204596614 324.38016359544786837
20.009497869018190385759 1626.67879289432676160 20.009497869018190385759 325.34751306284687189
21.009497869018190385759 1639.86455587190357619 21.009497869018190385759 326.26371765515517609
22.009497869018204596614 1652.36423765879703751 22.009497869018204596614 327.14686211001691163
23.009497869018190385759 1664.24245117621330792 23.009497869018190385759 328.01566172577179259
24.009497869018204596614 1675.55344394527037366 24.009497869018204596614 328.84007289656028661
25.009497869018204596614 1686.34368022261287479 25.009497869018204596614 329.63555203938329896
26.009497869018190385759 1696.65389820843643065 26.009497869018190385759 330.37378088081135274
27.009497869018204596614 1706.52125375307923605 27.009497869018204596614 331.05240761406707861
28.009497869018190385759 1715.97535608719454103 28.009497869018190385759 331.68251406311122764
29.009497869018190385759 1725.04051925236603893 29.009497869018190385759 332.28085073626857593
30.009497869018190385759 1733.74276093081175532 30.009497869018190385759 332.84491563020088734
31.009497869018218807469 1742.10770596443853719 31.009497869018218807469 333.36338074470307902
32.009497869018190385759 1750.15753748551264835 32.009497869018190385759 333.85004667557279845
33.009497869018190385759 1757.91231146269547025 33.009497869018190385759 334.34733573804425077
34.009497869018218807469 1765.39091864343595262 34.009497869018218807469 334.81432362826319604
35.009497869018190385759 1772.60936837580402425 35.009497869018190385759 335.26604982711876346
36.009497869018190385759 1779.58252686522405384 36.009497869018190385759 335.70749641129384599
37.009497869018190385759 1786.32419823955206084 37.009497869018190385759 336.13320156740809352
38.009497869018218807469 1792.84658182060843501 38.009497869018218807469 336.54318554291717192
39.009497869018190385759 1799.16111923201447098 39.009497869018190385759 336.93054324320542037
40.009497869018190385759 1805.27843163805437143 40.009497869018190385759 337.29320922100072266
41.009497869018218807469 1811.20850167830735700 41.009497869018218807469 337.65387442122323591
42.009497869018190385759 1816.96048343621669119 42.009497869018190385759 337.99516499665730862
43.009497869018190385759 1822.54287277169191839 43.009497869018190385759 338.32293028836983240
44.009497869018218807469 1827.96398022078165013 44.009497869018218807469 338.63437185259886064
46.009497869018190385759 1838.35235080679490238 46.009497869018190385759 339.22455410245089524
48.009497869018218807469 1848.18022822638090474 48.009497869018218807469 339.77762608045122761
50.009497869018190385759 1857.49498215955713931 50.009497869018190385759 340.29589795010923581
52.009497869018190385759 1866.33881854272544842 52.009497869018190385759 340.78371899276794466
54.009497869018218807469 1874.74922262732002309 54.009497869018218807469 341.24435261183447210
56.009497869018190385759 1882.75976727466127159 56.009497869018190385759 341.67617188009194251
58.009497869018218807469 1890.40015953468628140 58.009497869018218807469 342.07513078288008046
60.009497869018190385759 1897.69716087327583409 60.009497869018190385759 342.45859989717894223
62.009497869018190385759 1904.67487387577784830 62.009497869018190385759 342.82145755193778314
64.009497869018218807469 1911.35506679858690404 64.009497869018218807469 343.16398099276347011
66.009497869018190385759 1917.75740949762462151 66.009497869018190385759 343.47871580024627747
68.009497869018190385759 1923.89970240464572271 68.009497869018190385759 343.77384732338231288
70.009497869018190385759 1929.79841943491055645 70.009497869018190385759 344.05958981985617129
72.009497869018190385759 1935.46859115155734798 72.009497869018190385759 344.32931437153303023
74.009497869018218807469 1940.92396056998722997 74.009497869018218807469 344.58717277346664787
76.009497869018190385759 1946.17687654228302563 76.009497869018190385759 344.83229099238332083
78.009497869018190385759 1951.23865641498878176 78.009497869018190385759 345.06047060692048944
80.009497869018218807469 1956.11995061857169276 80.009497869018218807469 345.28671221382353451
82.009497869018190385759 1960.83099966018539817 82.009497869018190385759 345.50962710470190586
84.009497869018218807469 1965.38111895173824450 84.009497869018218807469 345.71721981706616589
86.009497869018190385759 1969.77889612907915762 86.009497869018190385759 345.91751725871085910
88.009497869018190385759 1974.03205449346887690 88.009497869018190385759 346.11114646945111417
91.009497869018218807469 1980.15630443908526104 91.009497869018218807469 346.39414634005896687
94.009497869018218807469 1985.99393239973869640 94.009497869018218807469 346.67805831639276448
97.009497869018218807469 1991.56599375896485071 97.009497869018218807469 346.98607349256440102
99.504748934509137825444 1996.01246762272899105 99.504748934509137825444 347.09939204832170390
nan nan nan nan

