Time Pressure difference Time.1 Pressure.1 difference.1
(hr) (psi) (hr) (psi)
0.000200000000020850166 0.51164794866888741 0.000200000000020850166 0.40847261169576093
0.000399999999999067768 1.02185488874816821 0.000399999999999067768 1.06367768080473035
0.000600000000019917934 1.53083779118387397 0.000600000000019917934 1.55368839214781551
0.000799999999998135536 2.03870503772647860 0.000799999999998135536 2.05102068640930302
0.001007140329434719206 2.56360626762515098 0.001007140329434719206 2.57151535092927075
0.001267914553977789183 3.22291927499073694 0.001267914553977789183 3.22922325761487228
0.001596209851982166583 4.05069901848587133 0.001596209851982166583 4.05318295567449294
0.002009509145224797066 5.08944816906180009 0.002009509145224797066 5.08444187297364358
0.002529822128153114136 6.39212233647705919 0.002529822128153114136 6.37369386620272493
0.003184857364431081805 8.02456582512764705 0.003184857364431081805 7.98330210973636323
0.004009497869034817086 10.06844766889585330 0.004009497869034817086 9.98962904160786280
0.005047658755856332391 12.62476917710346669 0.005047658755856332391 12.48565006114533915
0.006354625877790454069 15.81800178557494085 0.006354625877790454069 15.58379952599490181
0.008000000000009777068 19.80090241068003820 0.008000000000009777068 19.41892292644308426
0.010071403294361402914 24.76000651522609175 0.010071403294361402914 24.15106710407286883
0.012679145539692626699 30.92172187020238994 0.012679145539692626699 29.96772008049047287
0.015962098519750611558 38.55884327837318892 0.015962098519750611558 37.08498099754082489
0.020095091452091651263 47.99717050695515752 0.020095091452091651263 45.74657048454709241
0.025298221281360611101 59.62154585444968546 0.025298221281360611101 56.21965744994311365
0.031848573644296607199 73.88051933806789862 0.031848573644296607199 68.78597964692134781
0.040094978690191851456 91.28825341097719104 0.040094978690191851456 83.72597446878238259
0.050476587558435426217 112.42181988698510509 0.050476587558435426217 101.29407695743427098
0.063546258777947173257 137.91164866783338994 0.063546258777947173257 121.68316705901385433
0.080000000000012505552 168.42234955660384799 0.080000000000012505552 144.97732687839646815
0.100714032943542974863 204.62128164725098145 0.100714032943542974863 171.09145181466053032
0.126791455396883634421 247.13143067004980935 0.126791455396883634421 199.70942446773301526
0.159620985197506115583 296.47137645455171651 0.159620985197506115583 230.21861059607905986
0.200950914520774404082 352.97792070655918906 0.200950914520774404082 261.67817857543923310
0.252982212813464002465 416.73145394440933842 0.252982212813464002465 292.82452041970236678
0.318485736442809752589 487.48121074205340619 0.318485736442809752589 322.14829893540365902
0.400949786901833249431 564.60638576288624790 0.400949786901833249431 348.07635600072580928
0.504765875584169521062 647.12550757385884026 0.504765875584169521062 369.19609755895066883
0.635462587779443310865 733.76122765900925060 0.635462587779443310865 384.53170705339113056
0.800000000000011368684 823.07689058092114465 0.800000000000011368684 393.77112611780438556
1.007140329435344483500 913.64529164101509195 1.007140329435344483500 397.33394768957663246
1.267914553968907398485 1004.21529018194974014 1.267914553968907398485 396.31231847126480261
1.596209851975117999245 1093.85124417637280203 1.596209851975117999245 392.21894617570859509
2.009509145207687197399 1181.98129655575735342 2.009509145207687197399 386.66709906083565329
2.529822128134725289783 1268.38703966592106553 2.529822128134725289783 381.15620083421640629
3.184857364427983839050 1353.15024418657731076 3.184857364427983839050 376.78732548026073346
4.009497869018204596614 1436.51093938889493984 4.009497869018204596614 374.20518427476878287
5.009497869018190385759 1516.09321053096709875 5.009497869018190385759 373.63379319348615581
6.009497869018190385759 1580.58124871389168220 6.009497869018190385759 374.57337595090592686
7.009497869018204596614 1634.81617505868530316 7.009497869018204596614 376.28895117514559843
8.009497869018190385759 1681.61099624311418665 8.009497869018190385759 378.34572571548596898
9.009497869018204596614 1722.74625522329142768 9.009497869018204596614 380.55443140105927569
10.009497869018190385759 1759.42241263252822137 10.009497869018190385759 382.78090513992680144
11.009497869018190385759 1792.48899277318741952 11.009497869018190385759 384.85555441426708967
12.009497869018204596614 1822.56991648600433109 12.009497869018204596614 386.84976647919654624
13.009497869018190385759 1850.13557179200961400 13.009497869018190385759 388.74980886913056111
14.009497869018204596614 1875.55605094530938004 14.009497869018204596614 390.55083508974161077
15.009497869018190385759 1899.12266364211745895 15.009497869018190385759 392.26667955364672480
16.009497869018190385759 1921.07136735426115592 16.009497869018190385759 393.88627785838332329
17.009497869018204596614 1941.59565389610588682 17.009497869018204596614 395.38750061755189336
18.009497869018190385759 1960.85441282422038967 18.009497869018190385759 396.78737193672992589
19.009497869018204596614 1978.97948264641377136 19.009497869018204596614 398.04418481035037303
20.009497869018190385759 1996.08393709742108513 20.009497869018190385759 399.23121124843362395
21.009497869018190385759 2012.26407652807301929 21.009497869018190385759 400.35547823819837276
22.009497869018204596614 2027.60233146975861018 22.009497869018204596614 401.43917740990121956
23.009497869018190385759 2042.17798789750463584 23.009497869018190385759 402.50527414955257655
24.009497869018204596614 2056.05761249061060880 24.009497869018204596614 403.51690219976319440
25.009497869018204596614 2069.29822114966054869 25.009497869018204596614 404.49302800051816575
26.009497869018190385759 2081.94980337927654546 26.009497869018190385759 405.39890243541788095
27.009497869018204596614 2094.05795281254358997 27.009497869018204596614 406.23163962204245081
28.009497869018190385759 2105.65900268866880651 28.009497869018190385759 407.00483797385766138
29.009497869018190385759 2116.78278856465612989 29.009497869018190385759 407.73905189948493444
30.009497869018190385759 2127.46123652067717558 30.009497869018190385759 408.43121121156127629
31.009497869018218807469 2137.72579058584460654 31.009497869018218807469 409.06741541581095589
32.009497869018190385759 2147.60367149616695315 32.009497869018190385759 409.66459910787415311
33.009497869018190385759 2157.11948976298845082 33.009497869018190385759 410.27481835584711689
34.009497869018218807469 2166.29642606445531783 34.009497869018218807469 410.84785528886476413
35.009497869018190385759 2175.15412533763992542 35.009497869018190385759 411.40216472809788684
36.009497869018190385759 2183.71082977884088905 36.009497869018190385759 411.94386013816136938
37.009497869018190385759 2191.98347831785667950 37.009497869018190385759 412.46623937355252565
38.009497869018218807469 2199.98704064042794926 38.009497869018218807469 412.96932727975490707
39.009497869018190385759 2207.73555666717311396 39.009497869018190385759 413.44465067293731408
40.009497869018190385759 2215.24205953992350260 40.009497869018190385759 413.88967506003274366
41.009497869018218807469 2222.51879887218592557 41.009497869018218807469 414.33224430970818730
42.009497869018190385759 2229.57700756316580737 42.009497869018190385759 414.75103911940419721
43.009497869018190385759 2236.42711081147854202 43.009497869018190385759 415.15323716660520859
44.009497869018218807469 2243.07930640637778197 44.009497869018218807469 415.53540450438424614
46.009497869018190385759 2255.82678903782016278 46.009497869018190385759 416.25961220539795704
48.009497869018218807469 2267.88649519412456357 48.009497869018218807469 416.93828220230665238
50.009497869018190385759 2279.31655181332052962 50.009497869018190385759 417.57424927742488308
52.009497869018190385759 2290.16874944685059745 52.009497869018190385759 418.17285039750009901
54.009497869018218807469 2300.48908593312580706 54.009497869018218807469 418.73809005754992540
56.009497869018190385759 2310.31875824938515507 56.009497869018190385759 419.26797186879804258
58.009497869018218807469 2319.69421966806112323 58.009497869018218807469 419.75753100050621924
60.009497869018190385759 2328.64830896003559246 60.009497869018190385759 420.22808274235501358
62.009497869018190385759 2337.21060220613389902 62.009497869018190385759 420.67334233464873705
64.009497869018218807469 2345.40781105165251574 64.009497869018218807469 421.09364998315191997
66.009497869018190385759 2353.26407221222461885 66.009497869018190385759 421.47985843217463753
68.009497869018190385759 2360.80122844872857968 68.009497869018190385759 421.84201185498704945
70.009497869018190385759 2368.03949476475099800 70.009497869018190385759 422.19264408173586389
72.009497869018190385759 2374.99731503856446579 72.009497869018190385759 422.52362082243888608
74.009497869018218807469 2381.69155320938716613 74.009497869018218807469 422.84003671007064895
76.009497869018190385759 2388.13736245029167549 76.009497869018190385759 423.14081922571341465
78.009497869018190385759 2394.34863018253599876 78.009497869018190385759 423.42081652163949457
80.009497869018218807469 2400.33842546023970499 80.009497869018218807469 423.69843570461216586
82.009497869018190385759 2406.11931432405253872 82.009497869018190385759 423.97197270218396170
84.009497869018218807469 2411.70272763798948290 84.009497869018218807469 424.22670798269479064
86.009497869018190385759 2417.09920321815297939 86.009497869018190385759 424.47249129754158048
88.009497869018190385759 2422.31821826290206445 88.009497869018190385759 424.71009208203560092
91.009497869018218807469 2429.83323413242305833 91.009497869018218807469 425.05735885553059461
94.009497869018218807469 2436.99653856222948889 94.009497869018218807469 425.40574486633056495
97.009497869018218807469 2443.83396843729587999 97.009497869018218807469 425.78370771199143974
99.504748934509137825444 2449.29019931394623200 99.504748934509137825444 425.92275996367760627
nan nan nan nan

