Time Pressure difference Time.1 Pressure.1 difference.1
(hr) (psi) (hr) (psi)
0.000200000000020850166 0.17525603436547929 0.000200000000020850166 0.13991513160358046
0.000399999999999067768 0.35001847650302514 0.000399999999999067768 0.36434414066525672
0.000600000000019917934 0.52436164600616464 0.000600000000019917934 0.53218871873894336
0.000799999999998135536 0.69832266714332303 0.000799999999998135536 0.70254117667591387
0.001007140329434719206 0.87811838063134229 0.001007140329434719206 0.88082749845142227
0.001267914553977789183 1.10395449192052864 0.001267914553977789183 1.10611381064405534
0.001596209851982166583 1.38749593003330984 0.001596209851982166583 1.38834675916772388
0.002009509145224797066 1.74330123972733730 0.002009509145224797066 1.74158642077506332
0.002529822128153114136 2.18950943668288867 0.002529822128153114136 2.18319708728697215
0.003184857364431081805 2.74867433295768437 0.003184857364431081805 2.73454017070515043
0.004009497869034817086 3.44877022424841728 0.004009497869034817086 3.42177228535594047
0.005047658755856332391 4.32439333826108996 0.005047658755856332391 4.27674052419101702
0.006354625877790454069 5.41817918304596091 0.006354625877790454069 5.33795730517033107
0.008000000000009777068 6.78245196209981849 0.008000000000009777068 6.65161158681735643
0.010071403294361402914 8.48110612778036632 0.010071403294361402914 8.27252460870028372
0.012679145539692626699 10.59169369255309157 0.012679145539692626699 10.26491710549267822
0.015962098519750611558 13.20765573333886778 0.015962098519750611558 12.70281004948232706
0.020095091452091651263 16.44058924832392776 0.020095091452091651263 15.66968566921986472
0.025298221281360611101 20.42231521962481011 0.025298221281360611101 19.25705799015908681
0.031848573644296607199 25.30647659144857897 0.031848573644296607199 23.56143134009806062
0.040094978690191851456 31.26919069759120973 0.040094978690191851456 28.67886463135240760
0.050476587558435426217 38.50812337037964284 0.050476587558435426217 34.69651012665362089
0.063546258777947173257 47.23921731966370174 0.063546258777947173257 41.68043546988948123
0.080000000000012505552 57.69012298123930549 0.080000000000012505552 49.65944151191827416
0.100714032943542974863 70.08943251228888016 0.100714032943542974863 58.60437716378794448
0.126791455396883634421 84.65053875224108992 0.126791455396883634421 68.40696195242152555
0.159620985197506115583 101.55107212972470165 0.159620985197506115583 78.85734875937123434
0.200950914520774404082 120.90639816409738216 0.200950914520774404082 89.63327220684686836
0.252982212813464002465 142.74405321797138413 0.252982212813464002465 100.30190553337207859
0.318485736442809752589 166.97814199119036971 0.318485736442809752589 110.34625174573078255
0.400949786901833249431 193.39601849994969029 0.400949786901833249431 119.22745311063820850
0.504765875584169521062 221.66149691247437659 0.504765875584169521062 126.46165030022497433
0.635462587779443310865 251.33704388969312049 0.635462587779443310865 131.71459446146999994
0.800000000000011368684 281.93055829963373071 0.800000000000011368684 134.87939547217001746
1.007140329435344483500 312.95317619521784991 1.007140329435344483500 136.09977753652708543
1.267914553968907398485 343.97634127985617170 1.267914553968907398485 135.74983635947543803
1.596209851975117999245 374.67956578119259348 1.596209851975117999245 134.34772344654956555
2.009509145207687197399 404.86697008646882523 2.009509145207687197399 132.44603555492909663
2.529822128134725289783 434.46374248296979204 2.529822128134725289783 130.55837398704491648
3.184857364427983839050 463.49789208338938806 3.184857364427983839050 129.06189233171269848
4.009497869018204596614 492.05163670626103567 4.009497869018204596614 128.17742513307825902
5.009497869018190385759 519.31114841239298130 5.009497869018190385759 127.98170513608047827
6.009497869018190385759 541.40039525751808469 6.009497869018190385759 128.30354273643044394
7.009497869018204596614 559.97761840484179174 7.009497869018204596614 128.89118295122682412
8.009497869018190385759 576.00636397288496937 8.009497869018190385759 129.59569500968757438
9.009497869018204596614 590.09652573395214858 9.009497869018204596614 130.35224841821997188
10.009497869018190385759 602.65930043094704160 10.009497869018190385759 131.11488796189050277
11.009497869018190385759 613.98567771938724036 11.009497869018190385759 131.82552269709475468
12.009497869018204596614 624.28937074439443222 12.009497869018204596614 132.50860507647803388
13.009497869018190385759 633.73150267550977333 13.009497869018190385759 133.15943128471840851
14.009497869018204596614 642.43884212574732828 14.009497869018204596614 133.77634124015497719
15.009497869018190385759 650.51117212416693292 15.009497869018190385759 134.36407367827834491
16.009497869018190385759 658.02931576582648177 16.009497869018190385759 134.91883868201117025
17.009497869018204596614 665.05955027934805912 17.009497869018204596614 135.43305621802508654
18.009497869018190385759 671.65630049660796885 18.009497869018190385759 135.91255759521106938
19.009497869018204596614 677.86472538700206769 19.009497869018204596614 136.34305681003883137
20.009497869018190385759 683.72355637590226252 20.009497869018190385759 136.74965190490178202
21.009497869018190385759 689.26577946010286269 21.009497869018190385759 137.13474985107117732
22.009497869018204596614 694.51962977292066626 22.009497869018204596614 137.50595200241747307
23.009497869018190385759 699.51226533502187976 23.009497869018190385759 137.87112474927855033
24.009497869018204596614 704.26648739532288346 24.009497869018204596614 138.21764020154225250
25.009497869018204596614 708.80182575093886044 25.009497869018204596614 138.55199498069694641
26.009497869018190385759 713.13540343023919377 26.009497869018190385759 138.86228638615776276
27.009497869018204596614 717.28283773286796077 27.009497869018204596614 139.14752590949831301
28.009497869018190385759 721.25657397290444806 28.009497869018190385759 139.41237144883760379
29.009497869018190385759 725.06683179730919164 29.009497869018190385759 139.66386355647944129
30.009497869018190385759 728.72454692510211771 30.009497869018190385759 139.90095059357051355
31.009497869018218807469 732.24048995716441368 31.009497869018218807469 140.11887118950667741
32.009497869018190385759 735.62398487936889069 32.009497869018190385759 140.32342599311925824
33.009497869018190385759 738.88346159089383036 33.009497869018190385759 140.53244589786322649
34.009497869018218807469 742.02686022662351206 34.009497869018218807469 140.72872965251698929
35.009497869018190385759 745.06090981532804562 35.009497869018190385759 140.91859863251403340
36.009497869018190385759 747.99185890151852618 36.009497869018190385759 141.10414689797408982
37.009497869018190385759 750.82550961861647920 37.009497869018190385759 141.28307874646037590
38.009497869018218807469 753.56698957001674444 38.009497869018218807469 141.45540268835762276
39.009497869018190385759 756.22110788437259998 39.009497869018190385759 141.61821638310027538
40.009497869018190385759 758.79232883591521386 40.009497869018190385759 141.77065168452421062
41.009497869018218807469 761.28484831498576568 41.009497869018218807469 141.92224602166950831
42.009497869018190385759 763.70251395426635099 42.009497869018190385759 142.06569684122450781
43.009497869018190385759 766.04889672276283363 43.009497869018190385759 142.20346273076899024
44.009497869018218807469 768.32748969439228404 44.009497869018218807469 142.33436745198875428
46.009497869018190385759 772.69391637496767089 46.009497869018190385759 142.58243210282299174
48.009497869018218807469 776.82475728240308399 48.009497869018218807469 142.81489861150441811
50.009497869018190385759 780.73992278021216862 50.009497869018190385759 143.03273798301404440
52.009497869018190385759 784.45715281377499650 52.009497869018190385759 143.23777830174108772
54.009497869018218807469 787.99220313618434375 54.009497869018218807469 143.43139123724517958
56.009497869018190385759 791.35918504970834420 56.009497869018190385759 143.61289296155257489
58.009497869018218807469 794.57058498370281541 58.009497869018218807469 143.78058285893962420
60.009497869018190385759 797.63765128338877730 60.009497869018190385759 143.94176210817678907
62.009497869018190385759 800.57051471671138643 62.009497869018190385759 144.09427797501768964
64.009497869018218807469 803.37832488944593479 64.009497869018218807469 144.23824699098224755
66.009497869018190385759 806.06934941035615338 66.009497869018190385759 144.37053592400789626
68.009497869018190385759 808.65107013422368709 68.009497869018190385759 144.49458522954913064
70.009497869018190385759 811.13041135610785659 70.009497869018190385759 144.61468815137379806
72.009497869018190385759 813.51369070314456167 72.009497869018190385759 144.72805843106266366
74.009497869018218807469 815.80668462204653224 74.009497869018218807469 144.83644114581966278
76.009497869018190385759 818.01458356657724380 76.009497869018190385759 144.93946892309338637
78.009497869018190385759 820.14214442940772187 78.009497869018190385759 145.03537708776937620
80.009497869018218807469 822.19384378589370499 80.009497869018218807469 145.13047067154732872
82.009497869018190385759 824.17398591294647758 82.009497869018190385759 145.22416597428704677
84.009497869018218807469 826.08648625262298992 84.009497869018218807469 145.31142107848799583
86.009497869018190385759 827.93495434907515573 86.009497869018190385759 145.39560984380077002
88.009497869018190385759 829.72263645044210989 88.009497869018190385759 145.47699582680115782
91.009497869018218807469 832.29677337977477691 91.009497869018218807469 145.59594597161844831
94.009497869018218807469 834.75043772180254109 94.009497869018218807469 145.71527949155154147
97.009497869018218807469 837.09247944848937095 97.009497869018218807469 145.84474403771133666
99.504748934509137825444 838.96141567409517847 99.504748934509137825444 145.89237394859736696
nan nan nan nan

