Time Pressure difference Time.1 Pressure.1 difference.1
(hr) (psi) (hr) (psi)
0.000200000000020850166 0.55317781463227111 0.000200000000020850166 0.44162785615158567
0.000399999999999067768 1.10479765569201294 0.000399999999999067768 1.15001515489602357
0.000600000000019917934 1.65509410540334434 0.000600000000019917934 1.67979946293903448
0.000799999999998135536 2.20418434273674491 0.000799999999998135536 2.21749963822824014
0.001007140329434719206 2.77169119194537439 0.001007140329434719206 2.78024224629690631
0.001267914553977789183 3.48451986549323234 0.001267914553977789183 3.49133553501867677
0.001596209851982166583 4.37948952323310081 0.001596209851982166583 4.38217507870001999
0.002009509145224797066 5.50255272823889374 0.002009509145224797066 5.49714007694877793
0.002529822128153114136 6.91096343521707990 0.002529822128153114136 6.89103914755034896
0.003184857364431081805 8.67591045379060688 0.003184857364431081805 8.63129741085132629
0.004009497869034817086 10.88569179786467345 0.004009497869034817086 10.80047555472538612
0.005047658755856332391 13.64950693498524181 0.005047658755856332391 13.49909568299155360
0.006354625877790454069 17.10193050193653974 0.006354625877790454069 16.84871831868929348
0.008000000000009777068 21.40811851544302868 0.008000000000009777068 20.99513420294008981
0.010071403294361402914 26.76974730379964029 0.010071403294361402914 26.11138099239046895
0.012679145539692626699 33.43160189213440958 0.012679145539692626699 32.40016489221859075
0.015962098519750611558 41.68861951850087166 0.015962098519750611558 40.09512555902952613
0.020095091452091651263 51.89304473641580273 0.020095091452091651263 49.45976614076032973
0.025298221281360611101 64.46095704393424342 0.025298221281360611101 60.78294133386706477
0.031848573644296607199 79.87731473888509015 0.031848573644296607199 74.36925721566498737
0.040094978690191851456 98.69801423979026822 0.040094978690191851456 90.52191395488485171
0.050476587558435426217 121.54696760508456066 0.050476587558435426217 109.51599878839485314
0.063546258777947173257 149.10577599476789601 0.063546258777947173257 131.56004750211562282
0.080000000000012505552 182.09299481282167221 0.080000000000012505552 156.74496704709747519
0.100714032943542974863 221.23015191082652109 0.100714032943542974863 184.97874498143494293
0.126791455396883634421 267.19080004261877548 0.126791455396883634421 215.91960502517886766
0.159620985197506115583 320.53561155638226410 0.159620985197506115583 248.90518613147509086
0.200950914520774404082 381.62872595871499470 0.200950914520774404082 282.91829047279628639
0.252982212813464002465 450.55705897236464352 0.252982212813464002465 316.59274447974314626
0.318485736442809752589 527.04949083475253246 0.318485736442809752589 348.29669982301754771
0.400949786901833249431 610.43482616571793642 0.400949786901833249431 376.32930697481066318
0.504765875584169521062 699.65192864316554733 0.504765875584169521062 399.16331326990444950
0.635462587779443310865 793.31976886509767155 0.635462587779443310865 415.74369626227030494
0.800000000000011368684 889.88507975145057571 0.800000000000011368684 425.73306817282099246
1.007140329435344483500 987.80481206642218694 1.007140329435344483500 429.58507980723709352
1.267914553968907398485 1085.72627152788732019 1.267914553968907398485 428.48052613938688182
1.596209851975117999245 1182.63787113874059287 1.596209851975117999245 424.05489959906162767
2.009509145207687197399 1277.92133686060788023 2.009509145207687197399 418.05241554304632245
2.529822128134725289783 1371.34053314529796808 2.529822128134725289783 412.09420414868202442
3.184857364427983839050 1462.98386790302038207 3.184857364427983839050 407.37071228872343909
4.009497869018204596614 1553.11085330033120044 4.009497869018204596614 404.57898169966887281
5.009497869018190385759 1639.15272437276644268 5.009497869018190385759 403.96121147217826319
6.009497869018190385759 1708.87518123937002201 6.009497869018190385759 404.97705906380411989
7.009497869018204596614 1767.51229316409785497 7.009497869018204596614 406.83188552377754377
8.009497869018190385759 1818.10539528882168270 8.009497869018190385759 409.05560604953512893
9.009497869018204596614 1862.57955516024708231 9.009497869018204596614 411.44358979400237786
10.009497869018190385759 1902.23267339815538435 10.009497869018190385759 413.85078380388188179
11.009497869018190385759 1937.98322919958263810 11.009497869018190385759 416.09382993490572744
12.009497869018204596614 1970.50578633064742462 12.009497869018204596614 418.24990986224821654
13.009497869018190385759 2000.30891365824413697 13.009497869018190385759 420.30417647214443377
14.009497869018204596614 2027.79274339216885892 14.009497869018204596614 422.25138988598689593
15.009497869018190385759 2053.27223049618532968 15.009497869018190385759 424.10650743949469188
16.009497869018190385759 2077.00248483431505520 16.009497869018190385759 425.85756664558977036
17.009497869018204596614 2099.19270372533537738 17.009497869018204596614 427.48064190144407348
18.009497869018190385759 2120.01467360540709706 18.009497869018190385759 428.99413913938661835
19.009497869018204596614 2139.61093415992127120 19.009497869018204596614 430.35296604495675865
20.009497869018190385759 2158.10373718649725561 20.009497869018190385759 431.63634203158568425
21.009497869018190385759 2175.59719962288409079 21.009497869018190385759 432.85186445883135775
22.009497869018204596614 2192.18044279035575528 22.009497869018204596614 434.02352622563995510
23.009497869018190385759 2207.93918821386068885 23.009497869018190385759 435.17615679156170927
24.009497869018204596614 2222.94540571225115855 24.009497869018204596614 436.26989750818557923
25.009497869018204596614 2237.26073910011973567 25.009497869018204596614 437.32525429926153038
26.009497869018190385759 2250.93923547175018030 26.009497869018190385759 438.30465750322781560
27.009497869018204596614 2264.03018924213301943 27.009497869018204596614 439.20498699396142683
28.009497869018190385759 2276.57288277703491985 28.009497869018190385759 440.04094495225518813
29.009497869018190385759 2288.59957335074841467 29.009497869018190385759 440.83475416405354963
30.009497869018190385759 2300.14477844605744394 30.009497869018190385759 441.58309523847373157
31.009497869018218807469 2311.24249436716308992 31.009497869018218807469 442.27093939436707615
32.009497869018190385759 2321.92215132540104605 32.009497869018190385759 442.91659578870815039
33.009497869018190385759 2332.21035743855600231 33.009497869018190385759 443.57634581979573341
34.009497869018218807469 2342.13217493332331287 34.009497869018218807469 444.19589549088300373
35.009497869018190385759 2351.70884330335775303 35.009497869018190385759 444.79519757940454383
36.009497869018190385759 2360.96008544270762286 36.009497869018190385759 445.38086177275238242
37.009497869018190385759 2369.90421519430583430 37.009497869018190385759 445.94564192010716397
38.009497869018218807469 2378.55741731578746112 38.009497869018218807469 446.48956488363120343
39.009497869018190385759 2386.93487133171674941 39.009497869018190385759 447.00346972106535759
40.009497869018190385759 2395.05066826881284214 40.009497869018190385759 447.48461621750294626
41.009497869018218807469 2402.91805202739578817 41.009497869018218807469 447.96310829588577462
42.009497869018190385759 2410.54916726796864168 42.009497869018190385759 448.41589619078439455
43.009497869018190385759 2417.95528539033239213 43.009497869018190385759 448.85074018337508051
44.009497869018218807469 2425.14743192637570246 44.009497869018218807469 449.26392759727252724
46.009497869018190385759 2438.92961282335772921 46.009497869018190385759 450.04691839090105532
48.009497869018218807469 2451.96819123260911510 48.009497869018218807469 450.78067523820817541
50.009497869018190385759 2464.32601218777881513 50.009497869018190385759 451.46826301747563548
52.009497869018190385759 2476.05907001883497287 52.009497869018190385759 452.11545189080368345
54.009497869018218807469 2487.21709615497047707 54.009497869018218807469 452.72657139338997467
56.009497869018190385759 2497.84463148391341747 56.009497869018190385759 453.29946309191473119
58.009497869018218807469 2507.98108814761144458 58.009497869018218807469 453.82875916613176059
60.009497869018190385759 2517.66197040159704557 60.009497869018190385759 454.33750504287087324
62.009497869018190385759 2526.91925498260570748 62.009497869018190385759 454.81890583583776788
64.009497869018218807469 2535.78182168896182702 64.009497869018218807469 455.27332936490131488
66.009497869018190385759 2544.27576638529490083 66.009497869018190385759 455.69088590231871194
68.009497869018190385759 2552.42470478385303068 68.009497869018190385759 456.08243489516456748
70.009497869018190385759 2560.25049271643547399 70.009497869018190385759 456.46152752992867363
72.009497869018190385759 2567.77307112935704936 72.009497869018190385759 456.81936926581863645
74.009497869018218807469 2575.01067278807113325 74.009497869018218807469 457.16146826121274671
76.009497869018190385759 2581.97968083099749492 76.009497869018190385759 457.48666494208623590
78.009497869018190385759 2588.69510990514481819 78.009497869018190385759 457.78938929125308732
80.009497869018218807469 2595.17108986447965435 80.009497869018218807469 458.08954249881770693
82.009497869018190385759 2601.42120672048531560 82.009497869018190385759 458.38528217476385862
84.009497869018218807469 2607.45781916704709147 84.009497869018218807469 458.66069402025118507
86.009497869018190385759 2613.29232036248322402 86.009497869018190385759 458.92642727948492620
88.009497869018190385759 2618.93495675826761726 88.009497869018190385759 459.18331384194112843
91.009497869018218807469 2627.05995768213279007 91.009497869018218807469 459.55876785354439562
94.009497869018218807469 2634.80469915981302620 94.009497869018218807469 459.93543194963660881
97.009497869018218807469 2642.19711522603756748 97.009497869018218807469 460.34407359770500534
99.504748934509137825444 2648.09622198553233829 99.504748934509137825444 460.49441255813195539
nan nan nan nan

