Time Pressure difference Time.1 Pressure.1 difference.1
(hr) (psi) (hr) (psi)
0.000200000000020850166 0.86631300399618427 0.000200000000020850166 0.69161839934850433
0.000399999999999067768 1.73018611844860315 0.000399999999999067768 1.80099970954437327
0.000600000000019917934 2.59198671461815033 0.000600000000019917934 2.63067693670482416
0.000799999999998135536 3.45189830251415142 0.000799999999998135536 3.47275093494302478
0.001007140329434719206 4.34065152131985865 0.001007140329434719206 4.35404303736887854
0.001267914553977789183 5.45698831788204330 0.001267914553977789183 5.46766210664336327
0.001596209851982166583 6.85856992902721441 0.001596209851982166583 6.86277568631249402
0.002009509145224797066 8.61736110443418291 0.002009509145224797066 8.60888453492128392
0.002529822128153114136 10.82302531971683912 0.002529822128153114136 10.79182256891143332
0.003184857364431081805 13.58704895390931000 0.003184857364431081805 13.51718198125815995
0.004009497869034817086 17.04771253028956934 0.004009497869034817086 16.91425826363149554
0.005047658755856332391 21.37602962941382501 0.005047658755856332391 21.14047567171199304
0.006354625877790454069 26.78275302330302310 0.006354625877790454069 26.38620601560500489
0.008000000000009777068 33.52652794535597280 0.008000000000009777068 32.87976722772749838
0.010071403294361402914 41.92319284964418102 0.010071403294361402914 40.89214771030519557
0.012679145539692626699 52.35609725750178001 0.012679145539692626699 50.74079877264863825
0.015962098519750611558 65.28713236906369843 0.015962098519750611558 62.79161555265434913
0.020095091452091651263 81.26793642654907046 0.020095091452091651263 77.45726138860814558
0.025298221281360611101 100.95011741264777072 0.025298221281360611101 95.19010181865368736
0.031848573644296607199 125.09315206104675156 0.031848573644296607199 116.46717008399184579
0.040094978690191851456 154.56761088904093526 0.040094978690191851456 141.76329768009745180
0.050476587558435426217 190.35058139955432921 0.050476587558435426217 171.50928939383757665
0.063546258777947173257 233.50949603985424119 0.063546258777947173257 206.03172604310299221
0.080000000000012505552 285.16966004470424423 0.080000000000012505552 245.47297391910311148
0.100714032943542974863 346.46103369818632700 0.100714032943542974863 289.68893545891387475
0.126791455396883634421 418.43844511178895118 0.126791455396883634421 338.14436642832066582
0.159620985197506115583 501.97994422418423710 0.159620985197506115583 389.80196566836116290
0.200950914520774404082 597.65579755996952827 0.200950914520774404082 443.06873417886868083
0.252982212813464002465 705.60212088314767698 0.252982212813464002465 495.80515389245056213
0.318485736442809752589 825.39432273370391613 0.318485736442809752589 545.45564251562655045
0.400949786901833249431 955.98126680306882008 0.400949786901833249431 589.35655731941074009
0.504765875584169521062 1095.70114350573840056 0.504765875584169521062 625.11611973049593871
0.635462587779443310865 1242.39116955900431094 0.635462587779443310865 651.08209489721912178
0.800000000000011368684 1393.61882609724148097 0.800000000000011368684 666.72611126764616074
1.007140329435344483500 1546.96759607399144443 1.007140329435344483500 672.75861597439677553
1.267914553968907398485 1700.31907087625586428 1.267914553968907398485 671.02881195702786954
1.596209851975117999245 1852.08903843499456343 1.596209851975117999245 664.09798841114297829
2.009509145207687197399 2001.30924075918005656 2.009509145207687197399 654.69770181891487937
2.529822128134725289783 2147.60987397979806701 2.529822128134725289783 645.36674913975275558
3.184857364427983839050 2291.12939072500057591 3.184857364427983839050 637.96944882453237824
4.009497869018204596614 2432.27420419256077366 4.009497869018204596614 633.59741428341544633
5.009497869018190385759 2567.02145873993322311 5.009497869018190385759 632.62994529351635720
6.009497869018190385759 2676.21143248147564009 6.009497869018190385759 634.22082973505655445
7.009497869018204596614 2768.04102367891027825 7.009497869018204596614 637.12561051246234456
8.009497869018190385759 2847.27316409345485226 8.009497869018190385759 640.60810376826600532
9.009497869018204596614 2916.92263668489113115 9.009497869018204596614 644.34784407679353535
10.009497869018190385759 2979.02203957098527098 10.009497869018190385759 648.11766893010337753
11.009497869018190385759 3035.00977185460169494 11.009497869018190385759 651.63042736052045711
12.009497869018204596614 3085.94224495925755036 12.009497869018204596614 655.00699097045776398
13.009497869018190385759 3132.61591132965259021 13.009497869018190385759 658.22410819886874833
14.009497869018204596614 3175.65740444149014365 14.009497869018204596614 661.27357304967608798
15.009497869018190385759 3215.55996457585843018 15.009497869018190385759 664.17880969878819997
16.009497869018190385759 3252.72311063391953212 16.009497869018190385759 666.92108410112632555
17.009497869018204596614 3287.47445943772481769 17.009497869018204596614 669.46292718199129013
18.009497869018190385759 3320.08303989555452063 18.009497869018190385759 671.83316384741783622
19.009497869018204596614 3350.77207857176836114 19.009497869018204596614 673.96117655388866297
20.009497869018190385759 3379.73302985813324995 20.009497869018190385759 675.97102813655237696
21.009497869018190385759 3407.12894775775976086 21.009497869018190385759 677.87461656240407137
22.009497869018204596614 3433.09940214765993005 22.009497869018204596614 679.70951629630997104
23.009497869018190385759 3457.77863859918443268 23.009497869018190385759 681.51461191231055636
24.009497869018204596614 3481.27936660342038522 24.009497869018204596614 683.22748213368993220
25.009497869018204596614 3503.69812444658464301 25.009497869018204596614 684.88024059178644620
26.009497869018190385759 3525.11955344900252385 26.009497869018190385759 686.41405071451447384
27.009497869018204596614 3545.62085192123777233 27.009497869018204596614 687.82402617823083801
28.009497869018190385759 3565.26353864331440491 28.009497869018190385759 689.13319156937257048
29.009497869018190385759 3584.09813063788396903 29.009497869018190385759 690.37634923890061600
30.009497869018190385759 3602.17868456341966521 30.009497869018190385759 691.54830080139356596
31.009497869018218807469 3619.55844087830519129 31.009497869018218807469 692.62551019267993979
32.009497869018190385759 3636.28348923782778002 32.009497869018190385759 693.63665076219604089
33.009497869018190385759 3652.39549971233327597 33.009497869018190385759 694.66986289796841447
34.009497869018218807469 3667.93372140458905051 34.009497869018218807469 695.64011861410051552
35.009497869018190385759 3682.93141676486766301 35.009497869018190385759 696.57866527825660796
36.009497869018190385759 3697.41947314826438742 36.009497869018190385759 697.49585409756866738
37.009497869018190385759 3711.42657124273455338 37.009497869018190385759 698.38033712112871854
38.009497869018218807469 3724.97805744799734384 38.009497869018218807469 699.23215641685771971
39.009497869018190385759 3738.09770390237235915 39.009497869018190385759 700.03696534395055551
40.009497869018190385759 3750.80757808464295522 40.009497869018190385759 700.79047254482827611
41.009497869018218807469 3763.12842081767803393 41.009497869018218807469 701.53982275166492855
42.009497869018190385759 3775.07925144217915658 42.009497869018190385759 702.24891850899132351
43.009497869018190385759 3786.67772171488968524 43.009497869018190385759 702.92991292982014784
44.009497869018218807469 3797.94109834716209662 44.009497869018218807469 703.57699171765057145
46.009497869018190385759 3819.52490416630917025 46.009497869018190385759 704.80320702959420487
48.009497869018218807469 3839.94417936277932313 48.009497869018218807469 705.95231872890565228
50.009497869018190385759 3859.29734341119092278 50.009497869018190385759 707.02912661745801870
52.009497869018190385759 3877.67208713159880062 52.009497869018190385759 708.04266715031269541
54.009497869018218807469 3895.14629322767905251 54.009497869018218807469 708.99972066562429518
56.009497869018190385759 3911.78971567225426043 56.009497869018190385759 709.89690691421492375
58.009497869018218807469 3927.66407648342192260 58.009497869018218807469 710.72581953494807294
60.009497869018190385759 3942.82497767096947427 60.009497869018190385759 711.52254918876019474
62.009497869018190385759 3957.32249691720380724 62.009497869018190385759 712.27645463480303079
64.009497869018218807469 3971.20186189427568024 64.009497869018218807469 712.98811190329138299
66.009497869018190385759 3984.50394045024404477 66.009497869018190385759 713.64203302720488864
68.009497869018190385759 3997.26571635068830801 68.009497869018190385759 714.25522461810305686
70.009497869018190385759 4009.52141727213484046 70.009497869018190385759 714.84890872930270689
72.009497869018190385759 4021.30227205393293843 72.009497869018190385759 715.40931252890209180
74.009497869018218807469 4032.63683441134799068 74.009497869018218807469 715.94506215682417860
76.009497869018190385759 4043.55076142151619933 76.009497869018190385759 716.45434164353741835
78.009497869018190385759 4054.06756701361291562 78.009497869018190385759 716.92842797413959488
80.009497869018218807469 4064.20937947245056421 80.009497869018218807469 717.39848772712753089
82.009497869018190385759 4073.99747538958854420 82.009497869018190385759 717.86163559801616429
84.009497869018218807469 4083.45120929614131455 84.009497869018218807469 718.29294874342645016
86.009497869018190385759 4092.58842363073563320 86.009497869018190385759 718.70910458333753468
88.009497869018190385759 4101.42516501332283951 88.009497869018190385759 719.11140591162848068
91.009497869018218807469 4114.14945324694326700 91.009497869018218807469 719.69939169856877470
94.009497869018218807469 4126.27823006559265195 94.009497869018218807469 720.28927255776420679
97.009497869018218807469 4137.85524201314819948 97.009497869018218807469 720.92923237598540709
99.504748934509137825444 4147.09363292929538147 99.504748934509137825444 721.16467312031784331
nan nan nan nan

