Time Pressure difference Time.1 Pressure.1 difference.1
(hr) (psi) (hr) (psi)
0.000200000000020850166 0.29070906174368605 0.000200000000020850166 0.23208671119077323
0.000399999999999067768 0.58059936860691375 0.000399999999999067768 0.60436231863905143
0.000600000000019917934 0.86979419953629200 0.000600000000019917934 0.88277749553853158
0.000799999999998135536 1.15835513507186283 0.000799999999998135536 1.16535266273255878
0.001007140329434719206 1.45659447024156319 0.001007140329434719206 1.46108826757344934
0.001267914553977789183 1.83120413351746425 0.001267914553977789183 1.83478594182663191
0.001596209851982166583 2.30153353323060861 0.001596209851982166583 2.30294486117868891
0.002009509145224797066 2.89173191423965870 0.002009509145224797066 2.88888742782593422
0.002529822128153114136 3.63188769118014720 0.002529822128153114136 3.62141696943336644
0.003184857364431081805 4.55941240064070819 0.003184857364431081805 4.53596710780475121
0.004009497869034817086 5.72070890278173483 0.004009497869034817086 5.67592559182264988
0.005047658755856332391 7.17316430517242409 0.005047658755856332391 7.09411935292348872
0.006354625877790454069 8.98750101453121530 0.006354625877790454069 8.85443154886073991
0.008000000000009777068 11.25051273334093160 0.008000000000009777068 11.03347893547902636
0.010071403294361402914 14.06818552001482558 0.010071403294361402914 13.72219721822321858
0.012679145539692626699 17.56916015352408778 0.012679145539692626699 17.02711368209686071
0.015962098519750611558 21.90843368089385379 0.015962098519750611558 21.07101193042092291
0.020095091452091651263 27.27111960622452003 0.020095091452091651263 25.99236959349266840
0.025298221281360611101 33.87587832639186303 0.025298221281360611101 31.94298718746767562
0.031848573644296607199 41.97756780572039048 0.031848573644296607199 39.08294298120531352
0.040094978690191851456 51.86832580169158291 0.040094978690191851456 47.57157640271726251
0.050476587558435426217 63.87603402669608954 0.050476587558435426217 57.55345281672402535
0.063546258777947173257 78.35889128854168462 0.063546258777947173257 69.13816310171240787
0.080000000000012505552 95.69451679352491169 0.080000000000012505552 82.37348118090707771
0.100714032943542974863 116.26209184502896221 0.100714032943542974863 97.21105216742076038
0.126791455396883634421 140.41558560798284816 0.126791455396883634421 113.47126390212102365
0.159620985197506115583 168.44964571281349208 0.159620985197506115583 130.80602874777218858
0.200950914520774404082 200.55563676509046900 0.200950914520774404082 148.68078328149957201
0.252982212813464002465 236.77923519568710731 0.252982212813464002465 166.37756842028542792
0.318485736442809752589 276.97796064889399759 0.318485736442809752589 183.03880621329750511
0.400949786901833249431 320.79908281982176277 0.400949786901833249431 197.77065681859420465
0.504765875584169521062 367.68494748514706316 0.504765875584169521062 209.77050997667649312
0.635462587779443310865 416.90978844261888980 0.635462587779443310865 218.48392446215405016
0.800000000000011368684 467.65732419370522166 0.800000000000011368684 223.73359438511616304
1.007140329435344483500 519.11664297784955124 1.007140329435344483500 225.75792482362311375
1.267914553968907398485 570.57686942156237819 1.267914553968907398485 225.17745367685498081
1.596209851975117999245 621.50638873657544536 1.596209851975117999245 222.85167396347080171
2.009509145207687197399 671.58028213395300554 2.009509145207687197399 219.69721537547479784
2.529822128134725289783 720.67445435563706724 2.529822128134725289783 216.56602320125932692
3.184857364427983839050 768.83536601510081709 3.184857364427983839050 214.08370765923902468
4.009497869018204596614 816.19939738005393792 4.009497869018204596614 212.61658197430045902
5.009497869018190385759 861.41659689259495281 5.009497869018190385759 212.29192795084441059
6.009497869018190385759 898.05752767834758288 6.009497869018190385759 212.82578179028743648
7.009497869018204596614 928.87282673788922693 7.009497869018204596614 213.80054044042361738
8.009497869018190385759 955.46079331995133543 8.009497869018190385759 214.96916233834431864
9.009497869018204596614 978.83309955868844554 9.009497869018204596614 216.22410875060185731
10.009497869018190385759 999.67182535939093668 10.009497869018190385759 217.48915064768567618
11.009497869018190385759 1018.45965498476550692 11.009497869018190385759 218.66792864446995281
12.009497869018204596614 1035.55108891250233683 12.009497869018204596614 219.80100368136166367
13.009497869018190385759 1051.21339306364188815 13.009497869018190385759 220.88057322109690972
14.009497869018204596614 1065.65684712801680689 14.009497869018204596614 221.90388357371682559
15.009497869018190385759 1079.04696797847577727 15.009497869018190385759 222.87879520093565588
16.009497869018190385759 1091.51782236037570328 16.009497869018190385759 223.79902151044507264
17.009497869018204596614 1103.17934880460575187 17.009497869018204596614 224.65198898724540300
18.009497869018190385759 1114.12182546830695173 18.009497869018190385759 225.44737041859659143
19.009497869018204596614 1124.42016059455318100 19.009497869018204596614 226.16146864224452884
20.009497869018190385759 1134.13860062353455760 20.009497869018190385759 226.83591548206456423
21.009497869018190385759 1143.33186166367795522 21.009497869018190385759 227.47470354443089491
22.009497869018204596614 1152.04677924418115254 22.009497869018204596614 228.09044171017117719
23.009497869018190385759 1160.32840221449123419 23.009497869018190385759 228.69617849406398591
24.009497869018204596614 1168.21455255148339347 24.009497869018204596614 229.27096715895638113
25.009497869018204596614 1175.73762565321635520 25.009497869018204596614 229.82558409120349552
26.009497869018190385759 1182.92602464731612599 26.009497869018190385759 230.34028547466925829
27.009497869018204596614 1189.80565500712691573 27.009497869018204596614 230.81343160343317322
28.009497869018190385759 1196.39716061856188389 28.009497869018190385759 231.25274884878277248
29.009497869018190385759 1202.71749350264553868 29.009497869018190385759 231.66991585198010739
30.009497869018190385759 1208.78479347765755847 30.009497869018190385759 232.06318818838710172
31.009497869018218807469 1214.61692646923006578 31.009497869018218807469 232.42466784989261441
32.009497869018190385759 1220.22935880464024194 32.009497869018190385759 232.76397676583761154
33.009497869018190385759 1225.63607372897104142 33.009497869018190385759 233.11069224764042929
34.009497869018218807469 1230.85024208207687479 34.009497869018218807469 233.43628141412770560
35.009497869018190385759 1235.88302576002274691 35.009497869018190385759 233.75122995914654211
36.009497869018190385759 1240.74478964706872830 36.009497869018190385759 234.05901144213714815
37.009497869018190385759 1245.44515813514590263 37.009497869018190385759 234.35581782588212718
38.009497869018218807469 1249.99263672751590093 38.009497869018218807469 234.64166322713347768
39.009497869018190385759 1254.39520265180294700 39.009497869018190385759 234.91173333689619085
40.009497869018190385759 1258.66026110222901480 40.009497869018190385759 235.16458810229133292
41.009497869018218807469 1262.79477208646926556 41.009497869018218807469 235.41604790324325336
42.009497869018190385759 1266.80511793361711170 42.009497869018190385759 235.65399949966146664
43.009497869018190385759 1270.69722205197649600 43.009497869018190385759 235.88252111738933081
44.009497869018218807469 1274.47687863998726243 44.009497869018218807469 236.09966165021830875
46.009497869018190385759 1281.71976649876160081 46.009497869018190385759 236.51114329852157425
48.009497869018218807469 1288.57187226938890490 48.009497869018218807469 236.89675125131060440
50.009497869018190385759 1295.06622262120504274 50.009497869018190385759 237.25809618035503945
52.009497869018190385759 1301.23224400389221955 52.009497869018190385759 237.59821045312506271
54.009497869018218807469 1307.09607155291246272 54.009497869018218807469 237.91936935088062910
56.009497869018190385759 1312.68111264169601782 56.009497869018190385759 238.22043856181707611
58.009497869018218807469 1318.00807935685293160 58.009497869018218807469 238.49859715937856208
60.009497869018190385759 1323.09563009092926222 60.009497869018190385759 238.76595610361079025
62.009497869018190385759 1327.96056943530334138 62.009497869018190385759 239.01894450832315897
64.009497869018218807469 1332.61807446116631581 64.009497869018218807469 239.25775567224545171
66.009497869018190385759 1337.08185921149129172 66.009497869018190385759 239.47719229100835037
68.009497869018190385759 1341.36433434586865587 68.009497869018190385759 239.68296128124265465
70.009497869018190385759 1345.47698566179019508 70.009497869018190385759 239.88218413734989554
72.009497869018190385759 1349.43029263554785757 72.009497869018190385759 240.07023910365845154
74.009497869018218807469 1353.23383705078799721 74.009497869018218807469 240.25002085799471274
76.009497869018190385759 1356.89622866493846232 76.009497869018190385759 240.42092001460989081
78.009497869018190385759 1360.42535805825900752 78.009497869018190385759 240.58000938729514928
80.009497869018218807469 1363.82865082968146453 80.009497869018218807469 240.73774755943873060
82.009497869018190385759 1367.11324677502989289 82.009497869018190385759 240.89316630805910791
84.009497869018218807469 1370.28564070340325998 84.009497869018218807469 241.03790226289476095
86.009497869018190385759 1373.35182001031421350 86.009497869018190385759 241.17755187360316427
88.009497869018190385759 1376.31716946755796016 88.009497869018190385759 241.31255231933840832
91.009497869018218807469 1380.58706484796744007 91.009497869018218807469 241.50986298609691971
94.009497869018218807469 1384.65712418308476117 94.009497869018218807469 241.70780958314236386
97.009497869018218807469 1388.54202752119067554 97.009497869018218807469 241.92256119999510133
99.504748934509137825444 1391.64215870110569995 99.504748934509137825444 242.00156816118047232
nan nan nan nan

