Time Pressure difference Time.1 Pressure.1 difference.1
(hr) (psi) (hr) (psi)
0.000200000000020850166 0.18605379951595907 0.000200000000020850166 0.14853549516209488
0.000399999999999067768 0.37158359590842482 0.000399999999999067768 0.38679188392899289
0.000600000000019917934 0.55666828770322696 0.000600000000019917934 0.56497759714466023
0.000799999999998135536 0.74134728644599224 0.000799999999998135536 0.74582570414883742
0.001007140329434719206 0.93222046095460043 0.001007140329434719206 0.93509649124700756
0.001267914553977789183 1.17197064545117713 0.001267914553977789183 1.17426300276904438
0.001596209851982166583 1.47298146126758978 0.001596209851982166583 1.47388471115436115
0.002009509145224797066 1.85070842511338185 0.002009509145224797066 1.84888795380859783
0.002529822128153114136 2.32440812235529437 0.002529822128153114136 2.31770686043735452
0.003184857364431081805 2.91802393641005375 0.003184857364431081805 2.90301894899504109
0.004009497869034817086 3.66125369778031029 0.004009497869034817086 3.63259237876649621
0.005047658755856332391 4.59082515531035185 0.005047658755856332391 4.54023638587103306
0.006354625877790454069 5.75200064929997801 0.006354625877790454069 5.66683619127087379
0.008000000000009777068 7.20032814933819498 0.008000000000009777068 7.06142651870657723
0.010071403294361402914 9.00363873280949001 0.010071403294361402914 8.78220621966286075
0.012679145539692626699 11.24426249825541646 0.012679145539692626699 10.89735275654198965
0.015962098519750611558 14.02139755577206870 0.015962098519750611558 13.48544763546938974
0.020095091452091651263 17.45351654798369267 0.020095091452091651263 16.63511653983530536
0.025298221281360611101 21.68056212889079504 0.025298221281360611101 20.44351179997931212
0.031848573644296607199 26.86564339566104920 0.031848573644296607199 25.01308350797140534
0.040094978690191851456 33.19572851308261363 0.040094978690191851456 30.44580889773905241
0.050476587558435426217 40.88066177708549276 0.050476587558435426217 36.83420980270336997
0.063546258777947173257 50.14969042466668725 0.063546258777947173257 44.24842438509593734
0.080000000000012505552 61.24449074785594149 0.080000000000012505552 52.71902795578053258
0.100714032943542974863 74.40773878081853354 0.100714032943542974863 62.21507338714928181
0.126791455396883634421 89.86597478910903192 0.126791455396883634421 72.62160889735746139
0.159620985197506115583 107.80777325620063323 0.159620985197506115583 83.71585839857421263
0.200950914520774404082 128.35560752965790243 0.200950914520774404082 95.15570130015971984
0.252982212813464002465 151.53871052523976459 0.252982212813464002465 106.48164378898268012
0.318485736442809752589 177.26589481529214254 0.318485736442809752589 117.14483597651042146
0.400949786901833249431 205.31141300468593158 0.400949786901833249431 126.57322036390030462
0.504765875584169521062 235.31836639049413407 0.504765875584169521062 134.25312638507296015
0.635462587779443310865 266.82226460327609630 0.635462587779443310865 139.82971165577859551
0.800000000000011368684 299.30068748397133049 0.800000000000011368684 143.18950040647433752
1.007140329435344483500 332.23465150582370597 1.007140329435344483500 144.48507188711877802
1.267914553968907398485 365.16919642979991067 1.267914553968907398485 144.11357035318718545
1.596209851975117999245 397.76408879140825547 1.596209851975117999245 142.62507133662131764
2.009509145207687197399 429.81138056573001904 2.009509145207687197399 140.60621784030388426
2.529822128134725289783 461.23165078760774804 2.529822128134725289783 138.60225484880595559
3.184857364427983839050 492.05463424966450248 3.184857364427983839050 137.01357290191299398
4.009497869018204596614 522.36761432323453391 4.009497869018204596614 136.07461246355228468
5.009497869018190385759 551.30662201126074251 5.009497869018190385759 135.86683388854041254
6.009497869018190385759 574.75681771414235754 6.009497869018190385759 136.20850034578398891
7.009497869018204596614 594.47860911224915981 7.009497869018204596614 136.83234588187113445
8.009497869018190385759 611.49490772476883649 8.009497869018190385759 137.58026389654037303
9.009497869018204596614 626.45318371756059150 9.009497869018204596614 138.38342960038517049
10.009497869018190385759 639.78996823001023131 10.009497869018190385759 139.19305641451884981
11.009497869018190385759 651.81417919025000174 11.009497869018190385759 139.94747433246075730
12.009497869018204596614 662.75269690400148193 12.009497869018204596614 140.67264235607146361
13.009497869018190385759 672.77657156073087208 13.009497869018190385759 141.36356686150202222
14.009497869018204596614 682.02038216193079734 14.009497869018204596614 142.01848548717876497
15.009497869018190385759 690.59005950622452019 15.009497869018190385759 142.64242892859880385
16.009497869018190385759 698.57140631064044101 16.009497869018190385759 143.23137376668483967
17.009497869018204596614 706.03478323494766755 17.009497869018204596614 143.77727295183706246
18.009497869018190385759 713.03796829971645366 18.009497869018190385759 144.28631706790181966
19.009497869018204596614 719.62890278051406767 19.009497869018204596614 144.74333993103650187
20.009497869018190385759 725.84870439906217143 20.009497869018190385759 145.17498590852133589
21.009497869018190385759 731.73239146475373218 21.009497869018190385759 145.58381026843576933
22.009497869018204596614 737.30993871627595126 22.009497869018204596614 145.97788269450953180
23.009497869018190385759 742.61017741727448538 23.009497869018190385759 146.36555423620094984
24.009497869018204596614 747.65731363294935363 24.009497869018204596614 146.73341898173205777
25.009497869018204596614 752.47208041805834000 25.009497869018204596614 147.08837381837022917
26.009497869018190385759 757.07265577428233883 26.009497869018190385759 147.41778270378833327
27.009497869018204596614 761.47561920456121243 27.009497869018204596614 147.72059622619724450
28.009497869018190385759 765.69418279587966936 28.009497869018190385759 148.00175926322094710
29.009497869018190385759 769.73919584169311747 29.009497869018190385759 148.26874614526727214
30.009497869018190385759 773.62226782570087380 30.009497869018190385759 148.52044044056773942
31.009497869018218807469 777.35483294030723300 31.009497869018218807469 148.75178742393126186
32.009497869018190385759 780.94678963496983215 32.009497869018190385759 148.96894513013606343
33.009497869018190385759 784.40708718654138920 33.009497869018190385759 149.19084303848987361
34.009497869018218807469 787.74415493252922715 34.009497869018218807469 149.39922010504173500
35.009497869018190385759 790.96513648641450800 35.009497869018190385759 149.60078717385380287
36.009497869018190385759 794.07666537412387697 36.009497869018190385759 149.79776732296775776
37.009497869018190385759 797.08490120649332766 37.009497869018190385759 149.98772340856456253
38.009497869018218807469 799.99528750561012203 38.009497869018218807469 150.17066446536543367
39.009497869018190385759 802.81292969715389063 39.009497869018190385759 150.34350933561356101
40.009497869018190385759 805.54256710542654218 40.009497869018190385759 150.50533638546644966
41.009497869018218807469 808.18865413534024356 41.009497869018218807469 150.66627065807568897
42.009497869018190385759 810.75527547751494239 42.009497869018190385759 150.81855967978336253
43.009497869018190385759 813.24622211326482102 43.009497869018190385759 150.96481351512915126
44.009497869018218807469 815.66520232959180703 44.009497869018218807469 151.10378345613972328
46.009497869018190385759 820.30065055920726991 46.009497869018190385759 151.36713171105378706
48.009497869018218807469 824.68599825240903556 48.009497869018218807469 151.61392080083876976
50.009497869018190385759 828.84238247757116369 50.009497869018190385759 151.84518155542721729
52.009497869018190385759 832.78863616249111601 52.009497869018190385759 152.06285469000002308
54.009497869018218807469 836.54148579386401252 54.009497869018218807469 152.26839638456360149
56.009497869018190385759 840.11591209068558328 56.009497869018190385759 152.46108067956294008
58.009497869018218807469 843.52517078838593534 58.009497869018218807469 152.63910218200226154
60.009497869018190385759 846.78120325819475056 60.009497869018190385759 152.81021190631091144
62.009497869018190385759 849.89476443859416577 62.009497869018190385759 152.97212448532681606
64.009497869018218807469 852.87556765514636936 64.009497869018218807469 153.12496363023706181
66.009497869018190385759 855.73238989535445853 66.009497869018190385759 153.26540306624534082
68.009497869018190385759 858.47317398135589883 68.009497869018190385759 153.39709521999529329
70.009497869018190385759 861.10527082354576578 70.009497869018190385759 153.52459784790394792
72.009497869018190385759 863.63538728675064249 72.009497869018190385759 153.64495302634142604
74.009497869018218807469 866.06965571250430003 74.009497869018218807469 153.76001334911660479
76.009497869018190385759 868.41358634556058860 76.009497869018190385759 153.86938880935034035
78.009497869018190385759 870.67222915728586941 78.009497869018190385759 153.97120600786891487
80.009497869018218807469 872.85033653099617368 80.009497869018218807469 154.07215843804078759
82.009497869018190385759 874.95247793601902231 82.009497869018190385759 154.17162643715781201
84.009497869018218807469 876.98281005017793177 84.009497869018218807469 154.26425744825266406
86.009497869018190385759 878.94516480660104207 86.009497869018190385759 154.35363319910604218
88.009497869018190385759 880.84298845923706267 88.009497869018190385759 154.44003348437658474
91.009497869018218807469 883.57572150269925260 91.009497869018218807469 154.56631231110202407
94.009497869018218807469 886.18055947717425624 94.009497869018218807469 154.69299813321111969
97.009497869018218807469 888.66689761356212784 97.009497869018218807469 154.83043916799687167
99.504748934509137825444 890.65098156870760704 99.504748934509137825444 154.88100362315552161
nan nan nan nan

