Time Pressure difference Time.1 Pressure.1 difference.1
(hr) (psi) (hr) (psi)
0.000200000000020850166 0.70933011065459384 0.000200000000020850166 0.56629157530548668
0.000399999999999067768 1.41666245940086966 0.000399999999999067768 1.47464405747928540
0.000600000000019917934 2.12229784686855227 0.000600000000019917934 2.15397708911401686
0.000799999999998135536 2.82638652957534564 0.000799999999998135536 2.84346049706744308
0.001007140329434719206 3.55409050738941401 0.001007140329434719206 3.56505537287921648
0.001267914553977789183 4.46813808578261273 0.001267914553977789183 4.47687769805698199
0.001596209851982166583 5.61574182108268527 0.001596209851982166583 5.61918546127600216
0.002009509145224797066 7.05582587074476741 0.002009509145224797066 7.04888532389527978
0.002529822128153114136 8.86180596647955987 0.002529822128153114136 8.83625740541741322
0.003184857364431081805 11.12496625756332769 0.003184857364431081805 11.06775974304359522
0.004009497869034817086 13.95852972278743387 0.004009497869034817086 13.84925844404726547
0.005047658755856332391 17.50252090462071664 0.005047658755856332391 17.30965122113331134
0.006354625877790454069 21.92950247545616449 0.006354625877790454069 21.60481297922020616
0.008000000000009777068 27.45125106935187276 0.008000000000009777068 26.92168860256882468
0.010071403294361402914 34.32637266883617144 0.010071403294361402914 33.48216121246466059
0.012679145539692626699 42.86875077459877303 0.012679145539692626699 41.54615738431633076
0.015962098519750611558 53.45657818138100481 0.015962098519750611558 51.41326911022704849
0.020095091452091651263 66.54153183918782588 0.020095091452091651263 63.42138180812209924
0.025298221281360611101 82.65714311639615630 0.025298221281360611101 77.94088873742113321
0.031848573644296607199 102.42526544595774851 0.031848573644296607199 95.36238087414096753
0.040094978690191851456 126.55871495612744582 0.040094978690191851456 116.07464642263012422
0.050476587558435426217 155.85752302513847667 0.050476587558435426217 140.43042487280661135
0.063546258777947173257 191.19569474404173093 0.063546258777947173257 168.69711796817827576
0.080000000000012505552 233.49462097620079248 0.080000000000012505552 200.99129408141328668
0.100714032943542974863 283.67950410187069110 0.100714032943542974863 237.19496728850666045
0.126791455396883634421 342.61402888347816997 0.126791455396883634421 276.86988392117530111
0.159620985197506115583 411.01713553926492750 0.159620985197506115583 319.16671014456420608
0.200950914520774404082 489.35575370682073526 0.200950914520774404082 362.78111120685889546
0.252982212813464002465 577.74133387747656343 0.252982212813464002465 405.96126694549644753
0.318485736442809752589 675.82622398330124724 0.318485736442809752589 446.61468716044595340
0.400949786901833249431 782.74976208036514436 0.400949786901833249431 482.56040263736986162
0.504765875584169521062 897.15127186375877955 0.504765875584169521062 511.84004434309071030
0.635462587779443310865 1017.25988379999012068 0.635462587779443310865 533.10077568765586875
0.800000000000011368684 1141.08387103264090001 0.800000000000011368684 545.90997029968332299
1.007140329435344483500 1266.64460886595270495 1.007140329435344483500 550.84933656964039983
1.267914553968907398485 1392.20756138861224827 1.267914553968907398485 549.43298697152624754
1.596209851975117999245 1516.47558851724397755 1.596209851975117999245 543.75808447086876640
2.009509145207687197399 1638.65588840684540628 2.009509145207687197399 536.06120551615856584
2.529822128134725289783 1758.44566862775445770 2.529822128134725289783 528.42109661107269858
3.184857364427983839050 1875.95829307684607556 3.184857364427983839050 522.36424668854317588
4.009497869018204596614 1991.52652960733166765 4.009497869018204596614 518.78446001729309955
5.009497869018190385759 2101.85649641793179399 5.009497869018190385759 517.99230420006028908
6.009497869018190385759 2191.26036753516791578 6.009497869018190385759 519.29490756830136888
7.009497869018204596614 2266.44969724044995019 7.009497869018204596614 521.67331867463360595
8.009497869018190385759 2331.32433570068133122 8.009497869018190385759 524.52475610556007268
9.009497869018204596614 2388.35276292319940694 9.009497869018204596614 527.58682535146851933
10.009497869018190385759 2439.19925387691409924 10.009497869018190385759 530.67352758035303850
11.009497869018190385759 2485.04155816282809610 11.009497869018190385759 533.54974589250662120
12.009497869018204596614 2526.74465694650598380 12.009497869018204596614 536.31444898252243547
13.009497869018190385759 2564.96067907528595242 13.009497869018190385759 538.94859865947648814
14.009497869018204596614 2600.20270699236107248 14.009497869018204596614 541.44547591986906809
15.009497869018190385759 2632.87460186748103297 15.009497869018190385759 543.82426029028295034
16.009497869018190385759 2663.30348655931675239 16.009497869018190385759 546.06961248548600452
17.009497869018204596614 2691.75761108323786175 17.009497869018204596614 548.15085312887879354
18.009497869018190385759 2718.45725414266917142 18.009497869018190385759 550.09158382137559329
19.009497869018204596614 2743.58519185070963431 19.009497869018204596614 551.83398348707657988
20.009497869018190385759 2767.29818552142478438 20.009497869018190385759 553.47963377623750603
21.009497869018190385759 2789.72974245937393789 21.009497869018190385759 555.03827664841139722
22.009497869018204596614 2810.99414135580173024 22.009497869018204596614 556.54067777281761664
23.009497869018190385759 2831.20130140335868418 23.009497869018190385759 558.01867552551607332
24.009497869018204596614 2850.44350822561955283 24.009497869018204596614 559.42115986785347559
25.009497869018204596614 2868.79980659384727915 25.009497869018204596614 560.77442518253644721
26.009497869018190385759 2886.33950013945150204 26.009497869018190385759 562.03029655819307209
27.009497869018204596614 2903.12579821738972896 27.009497869018204596614 563.18477311237700178
28.009497869018190385759 2919.20907190929119679 28.009497869018190385759 564.25670719102981820
29.009497869018190385759 2934.63068414645476878 29.009497869018190385759 565.27459467883147681
30.009497869018190385759 2949.43489608548452452 30.009497869018190385759 566.23417917966446566
31.009497869018218807469 2963.66530058492116950 31.009497869018218807469 567.11618955373796780
32.009497869018190385759 2977.35963548332210848 32.009497869018190385759 567.94410330864377556
33.009497869018190385759 2990.55201989868874080 33.009497869018190385759 568.79008908424259516
34.009497869018218807469 3003.27459068026746536 34.009497869018218807469 569.58452665047150276
35.009497869018190385759 3015.55458285445547517 35.009497869018190385759 570.35300110031755594
36.009497869018190385759 3027.41728673884745149 36.009497869018190385759 571.10398791881459601
37.009497869018190385759 3038.88618584975574777 37.009497869018190385759 571.82819549515238577
38.009497869018218807469 3049.98203361513878917 38.009497869018218807469 572.52565827420562528
39.009497869018190385759 3060.72429447039894512 39.009497869018190385759 573.18462934202671022
40.009497869018190385759 3071.13103708943890524 40.009497869018190385759 573.80159496959095122
41.009497869018218807469 3081.21924389098467145 41.009497869018218807469 574.41515688391359618
42.009497869018190385759 3091.00448775802578893 42.009497869018190385759 574.99575877917402522
43.009497869018190385759 3100.50122180682228645 43.009497869018190385759 575.55335152642999219
44.009497869018218807469 3109.72358388156908404 44.009497869018218807469 576.08317442653265061
46.009497869018190385759 3127.39623025697801495 46.009497869018190385759 577.08718964839260934
48.009497869018218807469 3144.11536833730906437 48.009497869018218807469 578.02807305319788611
50.009497869018190385759 3159.96158319574033158 50.009497869018190385759 578.90975468006627125
52.009497869018190385759 3175.00667536949731584 52.009497869018190385759 579.73963350562507912
54.009497869018218807469 3189.31441458910603615 54.009497869018218807469 580.52326121614873955
56.009497869018190385759 3202.94191484573866546 56.009497869018190385759 581.25787009083364865
58.009497869018218807469 3215.93971363072114400 58.009497869018218807469 581.93657706888370740
60.009497869018190385759 3228.35333742186776362 60.009497869018190385759 582.58893289281036232
62.009497869018190385759 3240.22378942213981645 62.009497869018190385759 583.20622460030847378
64.009497869018218807469 3251.58810168524541950 64.009497869018218807469 583.78892384027881235
66.009497869018190385759 3262.47973647603885183 66.009497869018190385759 584.32434919006038854
68.009497869018190385759 3272.92897580391945667 68.009497869018190385759 584.82642552623201482
70.009497869018190385759 3282.96384501476813966 70.009497869018190385759 585.31252929513368599
72.009497869018190385759 3292.60991403073694528 72.009497869018190385759 585.77138341292663881
74.009497869018218807469 3301.89056240392255859 74.009497869018218807469 586.21005089350705930
76.009497869018190385759 3310.82679794244995719 76.009497869018190385759 586.62704483564812108
78.009497869018190385759 3319.43787366215246948 78.009497869018190385759 587.01522290500020063
80.009497869018218807469 3327.74190802442308268 80.009497869018218807469 587.40010404503050268
82.009497869018190385759 3335.75632213107246571 82.009497869018190385759 587.77932579166417781
84.009497869018218807469 3343.49696331630366331 84.009497869018218807469 588.13248152146320535
86.009497869018190385759 3350.97844082516621711 86.009497869018190385759 588.47322657159179471
88.009497869018190385759 3358.21389350084155012 88.009497869018190385759 588.80262765918564583
91.009497869018218807469 3368.63243822904132685 91.009497869018218807469 589.28406568607647387
94.009497869018218807469 3378.56338300672723562 94.009497869018218807469 589.76705538286739738
97.009497869018218807469 3388.04254715170554846 97.009497869018218807469 590.29104932798804839
99.504748934509137825444 3395.60686723069829895 99.504748934509137825444 590.48382631328036041
nan nan nan nan

