Time Pressure difference Time.1 Pressure.1 difference.1
(hr) (psi) (hr) (psi)
0.000200000000020850166 0.44769195508527648 0.000200000000020850166 0.35741353523379077
0.000399999999999067768 0.89412302765464724 0.000399999999999067768 0.93071797070413920
0.000600000000019917934 1.33948306728588973 0.000600000000019917934 1.35947734312933854
0.000799999999998135536 1.78386690801066883 0.000799999999998135536 1.79464310060814025
0.001007140329434719206 2.24315548417200716 0.001007140329434719206 2.25007593206311185
0.001267914553977789183 2.82005436561689482 0.001267914553977789183 2.82557035041301319
0.001596209851982166583 3.54436164117513730 0.001596209851982166583 3.54653508621518121
0.002009509145224797066 4.45326714792907463 0.002009509145224797066 4.44888663885193836
0.002529822128153114136 5.59310704441742601 0.002529822128153114136 5.57698213292738476
0.003184857364431081805 7.02149509698669139 0.003184857364431081805 6.98538934601931771
0.004009497869034817086 8.80989171028387119 0.004009497869034817086 8.74092541140688084
0.005047658755856332391 11.04667302996553424 0.005047658755856332391 10.92494380350217220
0.006354625877790454069 13.84075156237807214 0.006354625877790454069 13.63582458524553864
0.008000000000009777068 17.32578960934503343 0.008000000000009777068 16.99155756063770184
0.010071403294361402914 21.66500570082283517 0.010071403294361402914 21.13218371606376067
0.012679145539692626699 27.05650663642709475 0.012679145539692626699 26.22175507042916465
0.015962098519750611558 33.73898786857653675 0.015962098519750611558 32.44935837284821645
0.020095091452091651263 41.99752419358576105 0.020095091452091651263 40.02824917397870053
0.025298221281360611101 52.16885262264347034 0.025298221281360611101 49.19220026870022622
0.031848573644296607199 64.64545442080940063 0.031848573644296607199 60.18773219105619177
0.040094978690191851456 79.87722173460504393 0.040094978690191851456 73.26022766018458299
0.050476587558435426217 98.36909240111198471 0.050476587558435426217 88.63231733775499777
0.063546258777947173257 120.67269258435420909 0.063546258777947173257 106.47277117663711010
0.080000000000012505552 147.36955586202836344 0.080000000000012505552 126.85516101859690252
0.100714032943542974863 179.04362144134458390 0.100714032943542974863 149.70502033782796047
0.126791455396883634421 216.24000183629360095 0.126791455396883634421 174.74574640926638835
0.159620985197506115583 259.41245439773280168 0.159620985197506115583 201.44128427156917382
0.200950914520774404082 308.85568061823926200 0.200950914520774404082 228.96840625350930054
0.252982212813464002465 364.64002220135813559 0.252982212813464002465 256.22145536723957093
0.318485736442809752589 426.54605939929672331 0.318485736442809752589 281.87976156847815901
0.400949786901833249431 494.03058754252549534 0.400949786901833249431 304.56681150063508312
0.504765875584169521062 566.23481912712645681 0.504765875584169521062 323.04658536408180680
0.635462587779443310865 642.04107420163313691 0.635462587779443310865 336.46524367171724634
0.800000000000011368684 720.19227925830602999 0.800000000000011368684 344.54973535307885868
1.007140329435344483500 799.43963018588829073 1.007140329435344483500 347.66720422837960314
1.267914553968907398485 878.68837890920610789 1.267914553968907398485 346.77327866235663123
1.596209851975117999245 957.11983865432614493 1.596209851975117999245 343.19157790374504202
2.009509145207687197399 1034.23363448628788319 2.009509145207687197399 338.33371167823122505
2.529822128134725289783 1109.83865970768101761 2.529822128134725289783 333.51167572993932708
3.184857364427983839050 1184.00646366325531744 3.184857364427983839050 329.68890979522814177
4.009497869018204596614 1256.94707196528293025 4.009497869018204596614 327.42953624042269212
5.009497869018190385759 1326.58155921459638193 5.009497869018190385759 326.92956904430042187
6.009497869018190385759 1383.00859262465542088 6.009497869018190385759 327.75170395704265047
7.009497869018204596614 1430.46415317634955500 7.009497869018204596614 329.25283227825235599
8.009497869018190385759 1471.40962171272485648 8.009497869018190385759 331.05251000105022285
9.009497869018204596614 1507.40297332037994238 9.009497869018204596614 332.98512747592690175
10.009497869018190385759 1539.49461105346222212 10.009497869018190385759 334.93329199743590152
11.009497869018190385759 1568.42786867653899208 11.009497869018190385759 336.74861011248373188
12.009497869018204596614 1594.74867692525390339 12.009497869018204596614 338.49354566929696375
13.009497869018190385759 1618.86862531800852594 13.009497869018190385759 340.15608276048919834
14.009497869018204596614 1641.11154457714565069 14.009497869018204596614 341.73198070352390232
15.009497869018190385759 1661.73233068685271974 15.009497869018190385759 343.23334460944090551
16.009497869018190385759 1680.93744643497848301 16.009497869018190385759 344.65049312608545051
17.009497869018204596614 1698.89619715909293518 17.009497869018204596614 345.96406304035792800
18.009497869018190385759 1715.74761122119275569 18.009497869018190385759 347.18895044463869226
19.009497869018204596614 1731.60704731561190783 19.009497869018204596614 348.28866170905661193
20.009497869018190385759 1746.57344496024325053 20.009497869018190385759 349.32730984237940675
21.009497869018190385759 1760.73106696206377819 21.009497869018190385759 350.31104345842356906
22.009497869018204596614 1774.15204003603912497 22.009497869018204596614 351.25928023366356001
23.009497869018190385759 1786.90573941031675531 23.009497869018190385759 352.19211488085852579
24.009497869018204596614 1799.05041092928422586 24.009497869018204596614 353.07728942479280931
25.009497869018204596614 1810.63594350595280957 25.009497869018204596614 353.93139950045332398
26.009497869018190385759 1821.70607795686692043 26.009497869018190385759 354.72403963099066004
27.009497869018204596614 1832.30070871097541385 27.009497869018204596614 355.45268466928712314
28.009497869018190385759 1842.45162735258531939 28.009497869018190385759 356.12923322712543950
29.009497869018190385759 1852.18493999407428419 29.009497869018190385759 356.77167041204933184
30.009497869018190385759 1861.52858195559269916 30.009497869018190385759 357.37730981011611675
31.009497869018218807469 1870.51006676261431494 31.009497869018218807469 357.93398848883464325
32.009497869018190385759 1879.15321255914591347 32.009497869018190385759 358.45652421938990528
33.009497869018190385759 1887.47955354261512184 33.009497869018190385759 358.99046606136624860
34.009497869018218807469 1895.50937280639845994 34.009497869018218807469 359.49187337775668993
35.009497869018190385759 1903.25985967043493474 35.009497869018190385759 359.97689413708565098
36.009497869018190385759 1910.74697605648566423 36.009497869018190385759 360.45087762089116268
37.009497869018190385759 1917.98554352812470825 37.009497869018190385759 360.90795945185845994
38.009497869018218807469 1924.98866056037445560 38.009497869018218807469 361.34816136978560053
39.009497869018190385759 1931.76861208377658841 39.009497869018190385759 361.76406933882014982
40.009497869018190385759 1938.33680209743283740 40.009497869018190385759 362.15346567752862939
41.009497869018218807469 1944.70394901316262803 41.009497869018218807469 362.54071377099461415
42.009497869018190385759 1950.87988161777047935 42.009497869018190385759 362.90715922947867966
43.009497869018190385759 1956.87372196004389480 43.009497869018190385759 363.25908252077954330
44.009497869018218807469 1962.69439310558027501 44.009497869018218807469 363.59347894133622958
46.009497869018190385759 1973.84844040809275612 46.009497869018190385759 364.22716067972322662
48.009497869018218807469 1984.40068329485916365 48.009497869018218807469 364.82099692701831373
50.009497869018190385759 1994.40198283665608869 50.009497869018190385759 365.37746811774678690
52.009497869018190385759 2003.89765576599415908 52.009497869018190385759 365.90124409781259374
54.009497869018218807469 2012.92795019148525171 54.009497869018218807469 366.39582880035618473
56.009497869018190385759 2021.52891346821206753 56.009497869018190385759 366.85947538519832278
58.009497869018218807469 2029.73244220955348283 58.009497869018218807469 367.28783962544292763
60.009497869018190385759 2037.56727034003097287 60.009497869018190385759 367.69957239956062267
62.009497869018190385759 2045.05927693036687742 62.009497869018190385759 368.08917454281771597
64.009497869018218807469 2052.23183467019589443 64.009497869018218807469 368.45694373525799392
66.009497869018190385759 2059.10606318569625728 66.009497869018190385759 368.79487612815285047
68.009497869018190385759 2065.70107489263773459 68.009497869018190385759 369.11176037311361142
70.009497869018190385759 2072.03455791915666850 70.009497869018190385759 369.41856357151885959
72.009497869018190385759 2078.12265065874362335 72.009497869018190385759 369.70816821963404664
74.009497869018218807469 2083.98010905821365668 74.009497869018218807469 369.98503212131180362
76.009497869018190385759 2089.62019214400515921 76.009497869018190385759 370.24821682249921651
78.009497869018190385759 2095.05505140971899891 78.009497869018190385759 370.49321445643460038
80.009497869018218807469 2100.29612227770940081 80.009497869018218807469 370.73613124153564513
82.009497869018190385759 2105.35440003354551664 82.009497869018190385759 370.97547611441098070
84.009497869018218807469 2110.23988668324091122 84.009497869018218807469 371.19836948485789208
86.009497869018190385759 2114.96180281588340222 86.009497869018190385759 371.41342988534887581
88.009497869018190385759 2119.52844098003924955 88.009497869018190385759 371.62133057178118634
91.009497869018218807469 2126.10407986587051710 91.009497869018218807469 371.92518899858924897
94.009497869018218807469 2132.37197124195063225 94.009497869018218807469 372.23002675803928696
97.009497869018218807469 2138.35472238263400868 97.009497869018218807469 372.56074424799243161
99.504748934509137825444 2143.12892439970255509 99.504748934509137825444 372.68241496821792680
nan nan nan nan

