Time Pressure difference Time.1 Pressure.1 difference.1
(hr) (psi) (hr) (psi)
0.000200000000020850166 0.49254421032573092 0.000200000000020850166 0.39322119924608151
0.000399999999999067768 0.98370121595399973 0.000399999999999067768 1.02396244272273584
0.000600000000019917934 1.47367988664291771 0.000600000000019917934 1.49567729958385476
0.000799999999998135536 1.96258455742175619 0.000799999999998135536 1.97444036857259220
0.001007140329434719206 2.46788720243784843 0.001007140329434719206 2.47550097906015809
0.001267914553977789183 3.10258300335958959 0.001267914553977789183 3.10865161000912194
0.001596209851982166583 3.89945538630214550 0.001596209851982166583 3.90184657908275012
0.002009509145224797066 4.89942007184033645 0.002009509145224797066 4.89460069914508367
0.002529822128153114136 6.15345543105664916 0.002529822128153114136 6.13571503678281882
0.003184857364431081805 7.72494729594268570 0.003184857364431081805 7.68522427122347995
0.004009497869034817086 9.69251536957019511 0.004009497869034817086 9.61663964557380346
0.005047658755856332391 12.15338980847785244 0.005047658755856332391 12.01946507509608075
0.006354625877790454069 15.22739457604860291 0.006354625877790454069 15.00193688135548165
0.008000000000009777068 19.06158300248906201 0.008000000000009777068 18.69386573925446626
0.010071403294361402914 23.83552575248226191 0.010071403294361402914 23.24932271544676965
0.012679145539692626699 29.76717706011366715 0.012679145539692626699 28.84879546709553821
0.015962098519750611558 37.11914620791444719 0.015962098519750611558 35.70031449925601663
0.020095091452091651263 46.20506836140325646 0.020095091452091651263 44.03850048268900252
0.025298221281360611101 57.39541670728679179 0.025298221281360611101 54.12054686333809883
0.031848573644296607199 71.12199345369197090 0.031848573644296607199 66.21767196529928867
0.040094978690191851456 87.87976342972316957 0.040094978690191851456 80.59984230517524395
0.050476587558435426217 108.22425193665937115 0.050476587558435426217 97.51199291519242252
0.063546258777947173257 132.76235009744348758 0.063546258777947173257 117.13980205518701894
0.080000000000012505552 162.13385273874362724 0.080000000000012505552 139.56421240079399126
0.100714032943542974863 196.98120132600621446 0.100714032943542974863 164.70329695794430336
0.126791455396883634421 237.90412075866811392 0.126791455396883634421 192.25274141130790895
0.159620985197506115583 285.40182830770976352 0.159620985197506115583 221.62278584979688389
0.200950914520774404082 339.79855029056750482 0.200950914520774404082 251.90772710265494538
0.252982212813464002465 401.17167563154987420 0.252982212813464002465 281.89113735208360367
0.318485736442809752589 469.27980189941177969 0.318485736442809752589 310.12003452710121110
0.400949786901833249431 543.52530317758373712 0.400949786901833249431 335.07999855264677080
0.504765875584169521062 622.96335388197769589 0.504765875584169521062 355.41117833191191266
0.635462587779443310865 706.36429870420852239 0.635462587779443310865 370.17419201730672285
0.800000000000011368684 792.34512356247773823 0.800000000000011368684 379.06863277249675548
1.007140329435344483500 879.53191224532793058 1.007140329435344483500 382.49842691545285334
1.267914553968907398485 966.72023876281855337 1.267914553968907398485 381.51494294392858819
1.596209851975117999245 1053.00939577368330902 1.596209851975117999245 377.57440760096625354
2.009509145207687197399 1137.84887801552622477 2.009509145207687197399 372.22985347901874320
2.529822128134725289783 1221.02843266540776312 2.529822128134725289783 366.92471930956219239
3.184857364427983839050 1302.62677727701384356 3.184857364427983839050 362.71896754836785703
4.009497869018204596614 1382.87497898963442822 4.009497869018204596614 360.23323745931475059
5.009497869018190385759 1459.48583416373958244 5.009497869018190385759 359.68318078528778869
6.009497869018190385759 1521.56603975217171865 6.009497869018190385759 360.58768171897270349
7.009497869018204596614 1573.77596073019549294 7.009497869018204596614 362.23920137477489334
8.009497869018190385759 1618.82357268208897949 8.009497869018190385759 364.21918076182339519
9.009497869018204596614 1658.42293725229183110 9.009497869018204596614 366.34541854030544528
10.009497869018190385759 1693.72969268033943990 10.009497869018190385759 368.48876095450742696
11.009497869018190385759 1725.56164401704563716 11.009497869018190385759 370.48594767477339929
12.009497869018204596614 1754.51941635746834436 12.009497869018204596614 372.40570052299278814
13.009497869018190385759 1781.05583453354165613 13.009497869018190385759 374.23479977174417854
14.009497869018204596614 1805.52717241975415163 14.009497869018204596614 375.96857988346874890
15.009497869018190385759 1828.21386288924622932 15.009497869018190385759 377.62035872615666676
16.009497869018190385759 1849.34305331343648504 16.009497869018190385759 379.17948501626835878
17.009497869018204596614 1869.10101097466076681 17.009497869018204596614 380.62465562696149846
18.009497869018190385759 1887.64069286487438148 18.009497869018190385759 381.97225902350794513
19.009497869018204596614 1905.08901495020018046 19.009497869018204596614 383.18214544243147657
20.009497869018190385759 1921.55482905644589664 20.009497869018190385759 384.32485108818366371
21.009497869018190385759 1937.13083990445989002 21.009497869018190385759 385.40714057670720649
22.009497869018204596614 1951.89640026228380520 22.009497869018204596614 386.45037695466140804
23.009497869018190385759 1965.92783575198109247 23.009497869018190385759 387.47666813422836185
24.009497869018204596614 1979.28922760865589225 24.009497869018204596614 388.45052435788892353
25.009497869018204596614 1992.03546289244923173 25.009497869018204596614 389.39020390309616459
26.009497869018190385759 2004.21466461673844606 26.009497869018190385759 390.26225510422534626
27.009497869018204596614 2015.87072405493222504 27.009497869018204596614 391.06389983095965590
28.009497869018190385759 2027.03861784802074908 28.009497869018190385759 391.80822876379482977
29.009497869018190385759 2037.74706756305386079 29.009497869018190385759 392.51502885778342034
30.009497869018190385759 2048.02680723500270688 30.009497869018190385759 393.18134455918158210
31.009497869018218807469 2057.90810684643838613 31.009497869018218807469 393.79379438567519855
32.009497869018190385759 2067.41717077471912489 32.009497869018190385759 394.36868063469057688
33.009497869018190385759 2076.57769063222804107 33.009497869018190385759 394.95611572243075216
34.009497869018218807469 2085.41198158477573088 34.009497869018218807469 395.50775679593635914
35.009497869018190385759 2093.93895507340994300 35.009497869018190385759 396.04136961649686555
36.009497869018190385759 2102.17617217346196412 36.009497869018190385759 396.56283938624949315
37.009497869018190385759 2110.13993935468988639 37.009497869018190385759 397.06571420213742840
38.009497869018218807469 2117.84466736976264656 38.009497869018218807469 397.55001798197190510
39.009497869018190385759 2125.30387192148327813 39.009497869018190385759 398.00759391079844818
40.009497869018190385759 2132.53009952463389709 40.009497869018190385759 398.43600212759645274
41.009497869018218807469 2139.53514242078927055 41.009497869018218807469 398.86204687606641528
42.009497869018190385759 2146.32981409895683100 42.009497869018190385759 399.26520486656932007
43.009497869018190385759 2152.92415050520594377 43.009497869018190385759 399.65238577889101634
44.009497869018218807469 2159.32796866717853845 44.009497869018218807469 400.02028388165558681
46.009497869018190385759 2171.59949009647289131 46.009497869018190385759 400.71745136006654775
48.009497869018218807469 2183.20891501642199728 48.009497869018218807469 401.37078140579200181
50.009497869018190385759 2194.21220004107044588 50.009497869018190385759 401.98300295700158813
52.009497869018190385759 2204.65920198373760286 52.009497869018190385759 402.55925371058043538
54.009497869018218807469 2214.59420123107747713 54.009497869018218807469 403.10338864306345386
56.009497869018190385759 2224.05685656150217255 56.009497869018190385759 403.61348590616438514
58.009497869018218807469 2233.08226016746812093 58.009497869018218807469 404.08476604431848500
60.009497869018190385759 2241.70202469691730585 60.009497869018190385759 404.53774848411774201
62.009497869018190385759 2249.94462192895662156 62.009497869018190385759 404.96638312410181015
64.009497869018218807469 2257.83576615849005975 64.009497869018218807469 405.37099746754728358
66.009497869018190385759 2265.39869289261241647 66.009497869018190385759 405.74278579590838945
68.009497869018190385759 2272.65442933457143226 68.009497869018190385759 406.09141725650533772
70.009497869018190385759 2279.62243570697592077 70.009497869018190385759 406.42895769556707819
72.009497869018190385759 2286.32046723679968636 72.009497869018190385759 406.74757653848422478
74.009497869018218807469 2292.76475820319228660 74.009497869018218807469 407.05217819654529876
76.009497869018190385759 2298.96989599516746239 76.009497869018190385759 407.34173019618191347
78.009497869018190385759 2304.94924951013626924 78.009497869018190385759 407.61127304761726009
80.009497869018218807469 2310.71539983428920095 80.009497869018218807469 407.87852657927760447
82.009497869018190385759 2316.28044382169309756 82.009497869018190385759 408.14185034479726255
84.009497869018218807469 2321.65538553462329219 84.009497869018218807469 408.38707440541884353
86.009497869018190385759 2326.85036933176070306 86.009497869018190385759 408.62368074584765054
88.009497869018190385759 2331.87451855503422848 88.009497869018190385759 408.85241007247907419
91.009497869018218807469 2339.10894129955659082 91.009497869018218807469 409.18671071644416770
94.009497869018218807469 2346.00478468734081616 94.009497869018218807469 409.52208880800981206
97.009497869018218807469 2352.58692091447483108 97.009497869018218807469 409.88593940456314613
99.504748934509137825444 2357.83942888501633206 99.504748934509137825444 410.01979977022864432
nan nan nan nan

