Time Pressure difference Time.1 Pressure.1 difference.1
(hr) (psi) (hr) (psi)
0.000200000000020850166 0.57809573421030136 0.000200000000020850166 0.46152100282508052
0.000399999999999067768 1.15456331585831995 0.000399999999999067768 1.20181763935079933
0.000600000000019917934 1.72964789393502660 0.000600000000019917934 1.75546610541376569
0.000799999999998135536 2.30347192574290416 0.000799999999998135536 2.31738700931960206
0.001007140329434719206 2.89654214653750852 0.001007140329434719206 2.90547838351748755
0.001267914553977789183 3.64148021979472913 0.001267914553977789183 3.64860290146095911
0.001596209851982166583 4.57676382608143850 0.001596209851982166583 4.57957035251533640
0.002009509145224797066 5.75041546374515011 0.002009509145224797066 5.74475899933385836
0.002529822128153114136 7.22226809446109286 0.002529822128153114136 7.20144631635892285
0.003184857364431081805 9.06671723098837923 0.003184857364431081805 9.02009459152030502
0.004009497869034817086 11.37603827524596412 0.004009497869034817086 11.28698346259589869
0.005047658755856332391 14.26434958971430866 0.005047658755856332391 14.10716305609927979
0.006354625877790454069 17.87228773175350227 0.006354625877790454069 17.60766959430592848
0.008000000000009777068 22.37244817830082511 0.008000000000009777068 21.94086096883829384
0.010071403294361402914 27.97559177694376586 0.010071403294361402914 27.28756932538103186
0.012679145539692626699 34.93752990529361568 0.012679145539692626699 33.85963177925546574
0.015962098519750611558 43.56648526257749410 0.015962098519750611558 41.90121229592275398
0.020095091452091651263 54.23056927409218986 0.020095091452091651263 51.68768353448827213
0.025298221281360611101 67.36460375762497677 0.025298221281360611101 63.52091166422145108
0.031848573644296607199 83.47539197937541644 0.031848573644296607199 77.71922375691114837
0.040094978690191851456 103.14387073707811737 0.040094978690191851456 94.59947764654633318
0.050476587558435426217 127.02205623594420558 0.050476587558435426217 114.44915188697120811
0.063546258777947173257 155.82225239092863944 0.063546258777947173257 137.48617576797667539
0.080000000000012505552 190.29538196655241222 0.080000000000012505552 163.80555114831810215
0.100714032943542974863 231.19547406897186193 0.100714032943542974863 193.31112088149956207
0.126791455396883634421 279.22642166616020631 0.126791455396883634421 225.64571335964635068
0.159620985197506115583 334.97415261748051307 0.159620985197506115583 260.11713145271272651
0.200950914520774404082 398.81920911000844399 0.200950914520774404082 295.66235761121055248
0.252982212813464002465 470.85242198913783795 0.252982212813464002465 330.85367891576760258
0.318485736442809752589 550.79045889037195138 0.318485736442809752589 363.98574035558590367
0.400949786901833249431 637.93189040741697227 0.400949786901833249431 393.28107755926157552
0.504765875584169521062 731.16778128474959431 0.504765875584169521062 417.14364269647666106
0.635462587779443310865 829.05489358875070138 0.635462587779443310865 434.47088978759774136
0.800000000000011368684 929.96999325376805245 0.800000000000011368684 444.91023340583092249
1.007140329435344483500 1032.30052432166644394 1.007140329435344483500 448.93575907783338153
1.267914553968907398485 1134.63286033544977727 1.267914553968907398485 447.78145074026019756
1.596209851975117999245 1235.90984731616140380 1.596209851975117999245 443.15647165307342448
2.009509145207687197399 1335.48536104351819631 2.009509145207687197399 436.88360543237274669
2.529822128134725289783 1433.11262923292406413 2.529822128134725289783 430.65700613736140667
3.184857364427983839050 1528.88404213288617939 3.184857364427983839050 425.72074437380109657
4.009497869018204596614 1623.07080164719309323 4.009497869018204596614 422.80326015460894951
5.009497869018190385759 1712.98843267784604905 5.009497869018190385759 422.15766243939344804
6.009497869018190385759 1785.85154075465675305 6.009497869018190385759 423.21926893154306981
7.009497869018204596614 1847.12996402734552248 7.009497869018204596614 425.15764613295669960
8.009497869018190385759 1900.00203471624604390 8.009497869018190385759 427.48153424996468175
9.009497869018204596614 1946.47953512242020224 9.009497869018204596614 429.97708482976827327
10.009497869018190385759 1987.91882985753181856 10.009497869018190385759 432.49271100225496411
11.009497869018190385759 2025.27977105541958736 11.009497869018190385759 434.83679524728881916
12.009497869018204596614 2059.26730823743355359 12.009497869018204596614 437.08999589207923009
13.009497869018190385759 2090.41291877798494170 13.009497869018190385759 439.23679703395271190
14.009497869018204596614 2119.13475886028436435 14.009497869018204596614 441.27172276373403292
15.009497869018190385759 2145.76197060862614308 15.009497869018190385759 443.21040417100346076
16.009497869018190385759 2170.56115532234707644 16.009497869018190385759 445.04033991791362723
17.009497869018204596614 2193.75093362287316268 17.009497869018204596614 446.73652667177941566
18.009497869018190385759 2215.51083007411898507 18.009497869018190385759 448.31819946098056562
19.009497869018204596614 2235.98980506802581658 19.009497869018204596614 449.73823478572057866
20.009497869018190385759 2255.31561723994309432 20.009497869018190385759 451.07942050147693180
21.009497869018190385759 2273.59707347977064273 21.009497869018190385759 452.34969619121113737
22.009497869018204596614 2290.92730958271431518 22.009497869018204596614 453.57413551508324190
23.009497869018190385759 2307.39590840367418423 23.009497869018190385759 454.77868637676721164
24.009497869018204596614 2323.07808164523521555 24.009497869018204596614 455.92169469323897601
25.009497869018204596614 2338.03824987039570260 25.009497869018204596614 457.02459007850751505
26.009497869018190385759 2352.33289472723436120 26.009497869018190385759 458.04811054391376501
27.009497869018204596614 2366.01353109988667711 27.009497869018204596614 458.98899541711284655
28.009497869018190385759 2379.12121083005467881 28.009497869018190385759 459.86260913929373828
29.009497869018190385759 2391.68964422240378553 29.009497869018190385759 460.69217552279468464
30.009497869018190385759 2403.75490360128515022 30.009497869018190385759 461.47422565462119337
31.009497869018218807469 2415.35251663595454374 31.009497869018218807469 462.19305378150068009
32.009497869018190385759 2426.51323922294159274 32.009497869018190385759 462.86779379720849192
33.009497869018190385759 2437.26487804389626035 33.009497869018190385759 463.55726229816497153
34.009497869018218807469 2447.63362425464447369 34.009497869018218807469 464.20471961209392475
35.009497869018190385759 2457.64167408278854055 35.009497869018190385759 464.83101729018852666
36.009497869018190385759 2467.30963884102766315 36.009497869018190385759 465.44306275350697888
37.009497869018190385759 2476.65665732017578193 37.009497869018190385759 466.03328344803986738
38.009497869018218807469 2485.69964332100289539 38.009497869018218807469 466.60170744595689030
39.009497869018190385759 2494.45446013044238498 39.009497869018190385759 467.13876114994218369
40.009497869018190385759 2502.93583350614699157 40.009497869018190385759 467.64158091198504508
41.009497869018218807469 2511.15760392052197858 41.009497869018218807469 468.14162668759229291
42.009497869018190385759 2519.13246309084979657 42.009497869018190385759 468.61481043361254706
43.009497869018190385759 2526.87219013764433839 43.009497869018190385759 469.06924199343706050
44.009497869018218807469 2534.38830723837463665 44.009497869018218807469 469.50104145300559821
46.009497869018190385759 2548.79130709467972338 46.009497869018190385759 470.31930210220286881
48.009497869018218807469 2562.41720885569930033 48.009497869018218807469 471.08611105974910060
50.009497869018190385759 2575.33168841245333169 50.009497869018190385759 471.80467126150603008
52.009497869018190385759 2587.59326236202559812 52.009497869018190385759 472.48101278678581139
54.009497869018218807469 2599.25390228807737003 54.009497869018218807469 473.11966019489409518
56.009497869018190385759 2610.36015542463019301 56.009497869018190385759 473.71835782578477847
58.009497869018218807469 2620.95320923534200119 58.009497869018218807469 474.27149606550705130
60.009497869018190385759 2631.07016726653409933 60.009497869018190385759 474.80315842318037767
62.009497869018190385759 2640.74444664848851971 62.009497869018190385759 475.30624393655119775
64.009497869018218807469 2650.00622807134777759 64.009497869018218807469 475.78113699395095182
66.009497869018190385759 2658.88278288913670622 66.009497869018190385759 476.21750238440517933
68.009497869018190385759 2667.39879058492715558 68.009497869018190385759 476.62668871927110104
70.009497869018190385759 2675.57709148744561389 70.009497869018190385759 477.02285759884438221
72.009497869018190385759 2683.43852478383269045 72.009497869018190385759 477.39681833184653215
74.009497869018218807469 2691.00214453528133163 74.009497869018218807469 477.75432719189797126
76.009497869018190385759 2698.28507185942044089 76.009497869018190385759 478.09417237190996275
78.009497869018190385759 2705.30299773870956415 78.009497869018190385759 478.41053295302123161
80.009497869018218807469 2712.07068850702398777 80.009497869018218807469 478.72420657534104294
82.009497869018190385759 2718.60234215834452698 82.009497869018190385759 479.03326785831183088
84.009497869018218807469 2724.91087408448174756 84.009497869018218807469 479.32108564278502172
86.009497869018190385759 2731.00819064908182554 86.009497869018190385759 479.59878886865089953
88.009497869018190385759 2736.90499985548649420 88.009497869018190385759 479.86724689788439946
91.009497869018218807469 2745.39599181195853816 91.009497869018218807469 480.25961325235272170
94.009497869018218807469 2753.48959551836287574 94.009497869018218807469 480.65324419962024649
97.009497869018218807469 2761.21500329928221618 97.009497869018218807469 481.08029312913316744
99.504748934509137825444 2767.37983558848463872 99.504748934509137825444 481.23740411480457624
nan nan nan nan

