Time Pressure difference Time.1 Pressure.1 difference.1
(hr) (psi) (hr) (psi)
0.000200000000020850166 0.75002937929870994 0.000200000000020850166 0.59878371487219495
0.000399999999999067768 1.49794637100583761 0.000399999999999067768 1.55925478208875279
0.000600000000019917934 2.24406903480363340 0.000600000000019917934 2.27756593848941113
0.000799999999998135536 2.98855624848540646 0.000799999999998135536 3.00660986985000145
0.001007140329434719206 3.75801373322323284 0.001007140329434719206 3.76960773033949925
0.001267914553977789183 4.72450666447505796 0.001267914553977789183 4.73374772991270998
0.001596209851982166583 5.93795651573497096 0.001596209851982166583 5.94159774184101774
0.002009509145224797066 7.46066833873832014 0.002009509145224797066 7.45332956379091005
0.002529822128153114136 9.37027024324478042 0.002529822128153114136 9.34325578113808675
0.003184857364431081805 11.76328399365302779 0.003184857364431081805 11.70279513813625982
0.004009497869034817086 14.75942896917687541 0.004009497869034817086 14.64388802690243807
0.005047658755856332391 18.50676390734485466 0.005047658755856332391 18.30282793054259827
0.006354625877790454069 23.18775261749053840 0.006354625877790454069 22.84443339606070822
0.008000000000009777068 29.02632285201960016 0.008000000000009777068 28.46637565353588784
0.010071403294361402914 36.29591864163824511 0.010071403294361402914 35.40326882301590672
0.012679145539692626699 45.32843319609214205 0.012679145539692626699 43.92995329980989538
0.015962098519750611558 56.52375889670614129 0.015962098519750611558 54.36321078048597855
0.020095091452091651263 70.35948858405926387 0.020095091452091651263 67.06031355121106685
0.025298221281360611101 87.39976608209101983 0.025298221281360611101 82.41290694366661285
0.031848573644296607199 108.30212493875860957 0.031848573644296607199 100.83399289150972322
0.040094978690191851456 133.82028056836426799 0.040094978690191851456 122.73466711901055248
0.050476587558435426217 164.80016778887588202 0.050476587558435426217 148.48790826714798641
0.063546258777947173257 202.16593952443756166 0.063546258777947173257 178.37646080241802338
0.080000000000012505552 246.89185332729425681 0.080000000000012505552 212.52358144674028040
0.100714032943542974863 299.95619696017467959 0.100714032943542974863 250.80451459194554786
0.126791455396883634421 362.27221086859577781 0.126791455396883634421 292.75586086747222225
0.159620985197506115583 434.60008593905877206 0.159620985197506115583 337.47955416925225336
0.200950914520774404082 517.43354285393331793 0.200950914520774404082 383.59642086626882929
0.252982212813464002465 610.89042680487273174 0.252982212813464002465 429.25412652433641369
0.318485736442809752589 714.60313847414636257 0.318485736442809752589 472.24012003030759388
0.400949786901833249431 827.66163367514013771 0.400949786901833249431 510.24829459197297865
0.504765875584169521062 948.62716451167943887 0.504765875584169521062 541.20791573982535283
0.635462587779443310865 1075.62725418195668681 0.635462587779443310865 563.68852511235741076
0.800000000000011368684 1206.55589641975939230 0.800000000000011368684 577.23267351359970689
1.007140329435344483500 1339.32093888285180583 1.007140329435344483500 582.45544604494762098
1.267914553968907398485 1472.08832310763091300 1.267914553968907398485 580.95783048628595679
1.596209851975117999245 1603.48648294036456718 1.596209851975117999245 574.95731882575466898
2.009509145207687197399 1732.67712790559903624 2.009509145207687197399 566.81881566872505118
2.529822128134725289783 1859.34009223754355844 2.529822128134725289783 558.74033985924904755
3.184857364427983839050 1983.59524431895988528 3.184857364427983839050 552.33596576083675700
4.009497869018204596614 2105.79444524053906207 4.009497869018204596614 548.55078149369523999
5.009497869018190385759 2222.45481998289506009 5.009497869018190385759 547.71317411317863844
6.009497869018190385759 2316.98842141013665241 6.009497869018190385759 549.09051701894156849
7.009497869018204596614 2396.49189298375449653 7.009497869018204596614 551.60539433629298856
8.009497869018190385759 2465.08884676547449999 8.009497869018190385759 554.62043883292824376
9.009497869018204596614 2525.38939686141611674 9.009497869018204596614 557.85820057655280380
10.009497869018190385759 2579.15330942722903274 10.009497869018190385759 561.12200867102899338
11.009497869018190385759 2627.62590986069517385 11.009497869018190385759 564.16325590273243051
12.009497869018204596614 2671.72180939425606994 12.009497869018204596614 567.08658949791310988
13.009497869018190385759 2712.13055410419565305 13.009497869018190385759 569.87187891043004129
14.009497869018204596614 2749.39466559028323900 14.009497869018204596614 572.51201962018933500
15.009497869018190385759 2783.94117738446766452 15.009497869018190385759 575.02729161841386940
16.009497869018190385759 2816.11598168976888701 16.009497869018190385759 577.40147549694836471
17.009497869018204596614 2846.20271991588288074 17.009497869018204596614 579.60213158709314030
18.009497869018190385759 2874.43430970823237658 18.009497869018190385759 581.65421567997907459
19.009497869018204596614 2901.00401433394699779 19.009497869018204596614 583.49658909699087417
20.009497869018190385759 2926.07758960871933596 20.009497869018190385759 585.23666194372651717
21.009497869018190385759 2949.79620309228857877 21.009497869018190385759 586.88473514463169067
22.009497869018204596614 2972.28069044998710524 22.009497869018204596614 588.47333961224160248
23.009497869018190385759 2993.64727771338766615 23.009497869018190385759 590.03614051468503021
24.009497869018204596614 3013.99354558282720973 24.009497869018204596614 591.51909527010752754
25.009497869018204596614 3033.40307418529800998 25.009497869018204596614 592.95000695530495705
26.009497869018190385759 3051.94914359007589155 26.009497869018190385759 594.27793652464663410
27.009497869018204596614 3069.69858991838736983 27.009497869018204596614 595.49865353685765967
28.009497869018190385759 3086.70467439588992420 28.009497869018190385759 596.63209202985945012
29.009497869018190385759 3103.01113323682557166 29.009497869018190385759 597.70838289810865263
30.009497869018190385759 3118.66476717235673277 30.009497869018190385759 598.72302552603866843
31.009497869018218807469 3133.71167029061325593 31.009497869018218807469 599.65564305272289403
32.009497869018190385759 3148.19174571597204704 32.009497869018190385759 600.53106005586107585
33.009497869018190385759 3162.14107022074495035 33.009497869018190385759 601.42558599891219728
34.009497869018218807469 3175.59362457175802774 34.009497869018218807469 602.26560604844939917
35.009497869018190385759 3188.57820646085883709 35.009497869018190385759 603.07817329459805933
36.009497869018190385759 3201.12155728943707800 36.009497869018190385759 603.87224952071380812
37.009497869018190385759 3213.24850798867646517 37.009497869018190385759 604.63800999077591314
38.009497869018218807469 3224.98100275699107442 38.009497869018218807469 605.37549112600447643
39.009497869018190385759 3236.33962284165181700 39.009497869018190385759 606.07227200919226107
40.009497869018190385759 3247.34347364375071265 40.009497869018190385759 606.72463730391166337
41.009497869018218807469 3258.01051198309050960 41.009497869018218807469 607.37340359036761583
42.009497869018190385759 3268.35720426873240285 42.009497869018190385759 607.98731870912661179
43.009497869018190385759 3278.39883289409908684 43.009497869018190385759 608.57690448286439278
44.009497869018218807469 3288.15034689116737354 44.009497869018218807469 609.13712705756324794
46.009497869018190385759 3306.83699756680471182 46.009497869018190385759 610.19874971018555243
48.009497869018218807469 3324.51543045502376117 48.009497869018218807469 611.19361822838141052
50.009497869018190385759 3341.27085436270908758 50.009497869018190385759 612.12588814531602566
52.009497869018190385759 3357.17918953004209470 52.009497869018190385759 613.00338296906261348
54.009497869018218807469 3372.30786460651415837 54.009497869018218807469 613.83197292527199806
56.009497869018190385759 3386.71727061557612615 56.009497869018190385759 614.60873148948803646
58.009497869018218807469 3400.46084474068084091 58.009497869018218807469 615.32638067119660263
60.009497869018190385759 3413.58672563459776939 60.009497869018190385759 616.01616674731587864
62.009497869018190385759 3426.13826914308265259 62.009497869018190385759 616.66887683147376720
64.009497869018218807469 3438.15463210980897202 64.009497869018218807469 617.28500963439319094
66.009497869018190385759 3449.67119676564743713 66.009497869018190385759 617.85115611080152576
68.009497869018190385759 3460.71998261234102756 68.009497869018190385759 618.38204010560593815
70.009497869018190385759 3471.33062300741858053 70.009497869018190385759 618.89603507436277141
72.009497869018190385759 3481.53015499971388635 72.009497869018190385759 619.38121688743876803
74.009497869018218807469 3491.34329959103297369 74.009497869018218807469 619.84505381362635035
76.009497869018190385759 3500.79226995554154200 76.009497869018190385759 620.28597363769347339
78.009497869018190385759 3509.89742379030849406 78.009497869018190385759 620.69642421922151243
80.009497869018218807469 3518.67791914057852409 80.009497869018218807469 621.10338870335192496
82.009497869018190385759 3527.15217667957676895 82.009497869018190385759 621.50436907479240745
84.009497869018218807469 3535.33695301477973771 84.009497869018218807469 621.87778783826854578
86.009497869018190385759 3543.24769562661049349 86.009497869018190385759 622.23808383389609844
88.009497869018190385759 3550.89829722629974640 88.009497869018190385759 622.58638498389314009
91.009497869018218807469 3561.91462730775629097 91.009497869018218807469 623.09544650412999545
94.009497869018218807469 3572.41538039235911128 94.009497869018218807469 623.60614872450730672
97.009497869018218807469 3582.43843100467256590 97.009497869018218807469 624.16020789598735519
99.504748934509137825444 3590.43676944885282865 99.504748934509137825444 624.36404585584568849
nan nan nan nan

