Time Pressure difference Time.1 Pressure.1 difference.1
(hr) (psi) (hr) (psi)
0.000200000000020850166 0.27741950463540327 0.000200000000020850166 0.22147703296490934
0.000399999999999067768 0.55405768318488346 0.000399999999999067768 0.57673432692983762
0.000600000000019917934 0.83003217898606163 0.000600000000019917934 0.84242195288534161
0.000799999999998135536 1.10540175746857772 0.000799999999998135536 1.11207939815049883
0.001007140329434719206 1.39000729445909177 0.001007140329434719206 1.39429566105580593
0.001267914553977789183 1.74749194455666612 0.001267914553977789183 1.75091001305741445
0.001596209851982166583 2.19632057171149508 0.001596209851982166583 2.19766738181052057
0.002009509145224797066 2.75953845530298869 0.002009509145224797066 2.75682400255389171
0.002529822128153114136 3.46585853958334056 0.002529822128153114136 3.45586647940212721
0.003184857364431081805 4.35098211946856228 0.003184857364431081805 4.32860861144796338
0.004009497869034817086 5.45919078151171266 0.004009497869034817086 5.41645470762504377
0.005047658755856332391 6.84524822265025712 0.005047658755856332391 6.76981675393269988
0.006354625877790454069 8.57664382529550195 0.006354625877790454069 8.44965753519853457
0.008000000000009777068 10.73620357981677387 0.008000000000009777068 10.52909132699998374
0.010071403294361402914 13.42506846767129147 0.010071403294361402914 13.09489677396158847
0.012679145539692626699 16.76599854650584120 0.012679145539692626699 16.24873134234385930
0.015962098519750611558 20.90690528405299276 0.015962098519750611558 20.10776567074453780
0.020095091452091651263 26.02443985279711214 0.020095091452091651263 24.80414698350442748
0.025298221281360611101 32.32726674575680903 0.025298221281360611101 30.48273634461201453
0.031848573644296607199 40.05859327745888265 0.031848573644296607199 37.29629415920736335
0.040094978690191851456 49.49720233647139622 0.040094978690191851456 45.39687576716447381
0.050476587558435426217 60.95598675690425949 0.050476587558435426217 54.92243783081663366
0.063546258777947173257 74.77677054392263756 0.063546258777947173257 65.97756135991984650
0.080000000000012505552 91.31991031153521021 0.080000000000012505552 78.60783632692275091
0.100714032943542974863 110.94725336068476906 0.100714032943542974863 92.76711835405295403
0.126791455396883634421 133.99658740876080287 0.126791455396883634421 108.28400612373833667
0.159620985197506115583 160.74909048022772140 0.159620985197506115583 124.82632457644547230
0.200950914520774404082 191.38737908440063507 0.200950914520774404082 141.88394747434529108
0.252982212813464002465 225.95504158674140172 0.252982212813464002465 158.77173672107238644
0.318485736442809752589 264.31611101923022034 0.318485736442809752589 174.67131792926105049
0.400949786901833249431 306.13398189091560653 0.400949786901833249431 188.72971250688704004
0.504765875584169521062 350.87649274296893509 0.504765875584169521062 200.18100094917127763
0.635462587779443310865 397.85105525667057691 0.635462587779443310865 208.49608791531269958
0.800000000000011368684 446.27870365913582873 0.800000000000011368684 213.50577292751083291
1.007140329435344483500 495.38559644171920127 1.007140329435344483500 215.43756254597175825
1.267914553968907398485 544.49335539086234803 1.267914553968907398485 214.88362722305589614
1.596209851975117999245 593.09466810861761132 1.596209851975117999245 212.66416886799788699
2.009509145207687197399 640.87946923640095065 2.009509145207687197399 209.65391410116740190
2.529822128134725289783 687.72933644223644478 2.529822128134725289783 206.66586214063030980
3.184857364427983839050 733.68860642583911158 3.184857364427983839050 204.29702388053098616
4.009497869018204596614 778.88742492839435272 4.009497869018204596614 202.89696679833244275
5.009497869018190385759 822.03755246321918548 5.009497869018190385759 202.58715410166294646
6.009497869018190385759 857.00346927019450050 6.009497869018190385759 203.09660319416002494
7.009497869018204596614 886.41006894415727402 7.009497869018204596614 204.02680144886139146
8.009497869018190385759 911.78258562532494125 8.009497869018190385759 205.14200063144858177
9.009497869018204596614 934.08644357886259968 9.009497869018204596614 206.33957806486006348
10.009497869018190385759 953.97254191439026272 10.009497869018190385759 207.54678947522003796
11.009497869018190385759 971.90149932831900514 11.009497869018190385759 208.67168047786560692
12.009497869018204596614 988.21161056221660601 12.009497869018204596614 209.75295779878513258
13.009497869018190385759 1003.15792366644689082 13.009497869018190385759 210.78317558813247956
14.009497869018204596614 1016.94110554502174182 14.009497869018204596614 211.75970603891835253
15.009497869018190385759 1029.71910658517413140 15.009497869018190385759 212.69005027746428027
16.009497869018190385759 1041.61986476675838276 16.009497869018190385759 213.56820909853900048
17.009497869018204596614 1052.74829285925238764 17.009497869018204596614 214.38218377639989853
18.009497869018190385759 1063.19054201832727813 18.009497869018190385759 215.14120491374643507
19.009497869018204596614 1073.01809611023077196 19.009497869018204596614 215.82265864717049908
20.009497869018190385759 1082.29226459503024671 20.009497869018190385759 216.46627363145589129
21.009497869018190385759 1091.06526227333824863 21.009497869018190385759 217.07585995382834199
22.009497869018204596614 1099.38178362159010248 22.009497869018204596614 217.66345008913478409
23.009497869018190385759 1107.28481811325741546 23.009497869018190385759 218.24149604862105889
24.009497869018204596614 1114.81045872055847212 24.009497869018204596614 218.79000866026120775
25.009497869018204596614 1121.98961990906923347 25.009497869018204596614 219.31927167560561998
26.009497869018190385759 1128.84940637772456284 26.009497869018190385759 219.81044385297010990
27.009497869018204596614 1135.41453934965829831 27.009497869018204596614 220.26196044441911681
28.009497869018190385759 1141.70471899028484586 28.009497869018190385759 220.68119461569554574
29.009497869018190385759 1147.73612237109591661 29.009497869018190385759 221.07929112731815735
30.009497869018190385759 1153.52606006153609997 30.009497869018190385759 221.45458529977511830
31.009497869018218807469 1159.09158125920794191 31.009497869018218807469 221.79954017675464684
32.009497869018190385759 1164.44744525928535950 32.009497869018190385759 222.12333782797077220
33.009497869018190385759 1169.60699607278934309 33.009497869018190385759 222.45420345917685268
34.009497869018218807469 1174.58280244403908910 34.009497869018218807469 222.76490854948187348
35.009497869018190385759 1179.38551601099311483 35.009497869018190385759 223.06545944672839710
36.009497869018190385759 1184.02502783463114611 36.009497869018190385759 223.35917091906802057
37.009497869018190385759 1188.51052233468203667 37.009497869018190385759 223.64240901098466452
38.009497869018218807469 1192.85011619140072980 38.009497869018218807469 223.91518719389310377
39.009497869018190385759 1197.05142195914913827 39.009497869018190385759 224.17291124149522830
40.009497869018190385759 1201.12150630898440795 40.009497869018190385759 224.41420693190087832
41.009497869018218807469 1205.06701107680214591 41.009497869018218807469 224.65417142766642655
42.009497869018190385759 1208.89402682808031386 42.009497869018190385759 224.88124523681980804
43.009497869018190385759 1212.60820618674324578 43.009497869018190385759 225.09932015202295474
44.009497869018218807469 1216.21507847358793697 44.009497869018218807469 225.30653426049403265
46.009497869018190385759 1223.12686288738950680 46.009497869018190385759 225.69920531916056916
48.009497869018218807469 1229.66572953707418492 48.009497869018218807469 226.06718547982211476
50.009497869018190385759 1235.86319530137848233 50.009497869018190385759 226.41201178353881573
52.009497869018190385759 1241.74734142085708299 52.009497869018190385759 226.73657797526789182
54.009497869018218807469 1247.34310828192224108 54.009497869018218807469 227.04305532341180651
56.009497869018190385759 1252.67283320664705570 56.009497869018190385759 227.33036137041972324
58.009497869018218807469 1257.75628144339680148 58.009497869018218807469 227.59580414637838430
60.009497869018190385759 1262.61125842962974275 60.009497869018190385759 227.85094096744575154
62.009497869018190385759 1267.25380054683228082 62.009497869018190385759 228.09236418794267820
64.009497869018218807469 1271.69839105722712702 64.009497869018218807469 228.32025827008561691
66.009497869018190385759 1275.95811707610891972 66.009497869018190385759 228.52966350056226474
68.009497869018190385759 1280.04482191862894069 68.009497869018190385759 228.72602590838582159
70.009497869018190385759 1283.96946631725131738 70.009497869018190385759 228.91614143392817482
72.009497869018190385759 1287.74205068649439454 72.009497869018190385759 229.09559960177691096
74.009497869018218807469 1291.37171878560911864 74.009497869018218807469 229.26716276162923691
76.009497869018190385759 1294.86668678311275471 76.009497869018190385759 229.43024938537058688
78.009497869018190385759 1298.23448454702452182 78.009497869018190385759 229.58206610101879619
80.009497869018218807469 1301.48219822032478987 80.009497869018218807469 229.73259338529297224
82.009497869018190385759 1304.61664120817113144 82.009497869018190385759 229.88090727683353975
84.009497869018218807469 1307.64401141410462515 84.009497869018218807469 230.01902673087670337
86.009497869018190385759 1310.57002252412848975 86.009497869018190385759 230.15229235938130614
88.009497869018190385759 1313.39981314904093779 88.009497869018190385759 230.28112135616868272
91.009497869018218807469 1317.47451331206048053 91.009497869018218807469 230.46941210673247724
94.009497869018218807469 1321.35851279185794738 94.009497869018218807469 230.65830971648443892
97.009497869018218807469 1325.06582054879368116 97.009497869018218807469 230.86324411656676148
99.504748934509137825444 1328.02423144619797313 99.504748934509137825444 230.93863933095505558
nan nan nan nan

