Time Pressure difference Time.1 Pressure.1 difference.1
(hr) (psi) (hr) (psi)
0.000200000000020850166 0.12625079252868651 0.000200000000020850166 0.10079194314570723
0.000399999999999067768 0.25214601150928828 0.000399999999999067768 0.26246592123753087
0.000600000000019917934 0.37773919522718968 0.000600000000019917934 0.38337765520530515
0.000799999999998135536 0.50305708723120901 0.000799999999998135536 0.50609601352956834
0.001007140329434719206 0.63257816993347882 0.001007140329434719206 0.63452976191761223
0.001267914553977789183 0.79526579512758444 0.001267914553977789183 0.79682132330756583
0.001596209851982166583 0.99952313443157870 0.001596209851982166583 1.00013605399760208
0.002009509145224797066 1.25583785989836616 0.002009509145224797066 1.25460254008440586
0.002529822128153114136 1.57727694016966402 0.002529822128153114136 1.57272965529677622
0.003184857364431081805 1.98008767113539341 0.003184857364431081805 1.96990571538949211
0.004009497869034817086 2.48442215206521055 0.004009497869034817086 2.46497339987726516
0.005047658755856332391 3.11520278396059602 0.005047658755856332391 3.08087469041248641
0.006354625877790454069 3.90314329773927104 0.006354625877790454069 3.84535312979094979
0.008000000000009777068 4.88593695847949050 0.008000000000009777068 4.79168228055089163
0.010071403294361402914 6.10961199726358206 0.010071403294361402914 5.95935422048551278
0.012679145539692626699 7.63003526667331844 0.012679145539692626699 7.39463222765349304
0.015962098519750611558 9.51451976998818871 0.015962098519750611558 9.15083946692565853
0.020095091452091651263 11.84345765756036428 0.020095091452091651263 11.28811479488824254
0.025298221281360611101 14.71181001603303962 0.025298221281360611101 13.87238300712882122
0.031848573644296607199 18.23025801848428173 0.031848573644296607199 16.97316380898059762
0.040094978690191851456 22.52567291959176998 0.040094978690191851456 20.65965603775149617
0.050476587558435426217 27.74044906302230018 0.050476587558435426217 24.99464236612014645
0.063546258777947173257 34.03014707388096127 0.063546258777947173257 30.02571654702938986
0.080000000000012505552 41.55876157890224931 0.080000000000012505552 35.77362611285107619
0.100714032943542974863 50.49096560126971411 0.100714032943542974863 42.21737122699416034
0.126791455396883634421 60.98048289260969312 0.126791455396883634421 49.27894889463541972
0.159620985197506115583 73.15527470956472200 0.159620985197506115583 56.80718962760392543
0.200950914520774404082 87.09844796655357868 0.200950914520774404082 64.56994016796552671
0.252982212813464002465 102.82983928498411785 0.252982212813464002465 72.25540114252396506
0.318485736442809752589 120.28757148180537229 0.318485736442809752589 79.49113869834634727
0.400949786901833249431 139.31845882460831376 0.400949786901833249431 85.88897096121804964
0.504765875584169521062 159.68032005069241563 0.504765875584169521062 91.10033576129950461
0.635462587779443310865 181.05796526650877354 0.635462587779443310865 94.88444719499261737
0.800000000000011368684 203.09689507840911915 0.800000000000011368684 97.16430384725043723
1.007140329435344483500 225.44494209323750056 1.007140329435344483500 98.04344163768773512
1.267914553968907398485 247.79338329164994548 1.267914553968907398485 97.79135131109131862
1.596209851975117999245 269.91134596559845704 1.596209851975117999245 96.78129840699304509
2.009509145207687197399 291.65772252674531728 2.009509145207687197399 95.41136210592048883
2.529822128134725289783 312.97862017730523121 2.529822128134725289783 94.05153007597547798
3.184857364427983839050 333.89421609798660029 3.184857364427983839050 92.97349589772667855
4.009497869018204596614 354.46373829076628681 4.009497869018204596614 92.33634417169619724
5.009497869018190385759 374.10092207906978956 5.009497869018190385759 92.19535156722386660
6.009497869018190385759 390.01355487745377104 6.009497869018190385759 92.42719666321055172
7.009497869018204596614 403.39619904045480325 7.009497869018204596614 92.85052041984111781
8.009497869018190385759 414.94297309895029002 8.009497869018190385759 93.35803621550952869
9.009497869018204596614 425.09323180834468303 9.009497869018204596614 93.90304151454709825
10.009497869018190385759 434.14319272750697110 10.009497869018190385759 94.45243113842349203
11.009497869018190385759 442.30247873624102795 11.009497869018190385759 94.96435758274122918
12.009497869018204596614 449.72504432771535221 12.009497869018204596614 95.45643588447707373
13.009497869018190385759 456.52695927335304305 13.009497869018190385759 95.92527751316208651
14.009497869018204596614 462.79954503845300451 14.009497869018204596614 96.36968658058559356
15.009497869018190385759 468.61468323636665900 15.009497869018190385759 96.79307677297776991
16.009497869018190385759 474.03059713936312392 16.009497869018190385759 97.19271791310757180
17.009497869018204596614 479.09503148085735802 17.009497869018204596614 97.56314950303229239
18.009497869018190385759 483.84719277480763822 18.009497869018190385759 97.90857229607622969
19.009497869018204596614 488.31961260106311329 19.009497869018204596614 98.21869495320333954
20.009497869018190385759 492.54019227079226084 20.009497869018190385759 98.51159758078232187
21.009497869018190385759 496.53269420822573466 21.009497869018190385759 98.78901411072426697
22.009497869018204596614 500.31745841461577129 22.009497869018204596614 99.05642039984576286
23.009497869018190385759 503.91404896172190320 23.009497869018190385759 99.31948323170777826
24.009497869018204596614 507.33889139378703703 24.009497869018204596614 99.56910573760391969
25.009497869018204596614 510.60605456939674696 25.009497869018204596614 99.80996794817980344
26.009497869018190385759 513.72787356112019097 26.009497869018190385759 100.03349540614208024
27.009497869018204596614 516.71559874595232031 27.009497869018204596614 100.23897601063384855
28.009497869018190385759 519.57819546863265714 28.009497869018190385759 100.42976521432851200
29.009497869018190385759 522.32302574972038656 29.009497869018190385759 100.61093488428849696
30.009497869018190385759 524.95796745315419685 30.009497869018190385759 100.78172744181381404
31.009497869018218807469 527.49077949520847142 31.009497869018218807469 100.93871289481049303
32.009497869018190385759 529.92817868087240640 32.009497869018190385759 101.08606990973518691
33.009497869018190385759 532.27623773372442884 33.009497869018190385759 101.23664349040383570
34.009497869018218807469 534.54067656135907782 34.009497869018218807469 101.37804221413546202
35.009497869018190385759 536.72634261578127735 35.009497869018190385759 101.51481986797222135
36.009497869018190385759 538.83773721815555291 36.009497869018190385759 101.64848496915669784
37.009497869018190385759 540.87904010440627189 37.009497869018190385759 101.77738374152595213
38.009497869018218807469 542.85394509309264777 38.009497869018218807469 101.90152231578369424
39.009497869018190385759 544.76591658021152398 39.009497869018190385759 102.01880990630920110
40.009497869018190385759 546.61817053582512926 40.009497869018190385759 102.12862111870937554
41.009497869018218807469 548.41372959183809144 41.009497869018218807469 102.23782651797993992
42.009497869018190385759 550.15536550259946580 42.009497869018190385759 102.34116549699584198
43.009497869018190385759 551.84565071971542238 43.009497869018190385759 102.44040917098050159
44.009497869018218807469 553.48710158079450139 44.009497869018218807469 102.53471020238053768
46.009497869018190385759 556.63258430803352894 46.009497869018190385759 102.71341080392936362
48.009497869018218807469 559.60835595699177247 48.009497869018218807469 102.88087482914059478
50.009497869018190385759 562.42875953835186920 50.009497869018190385759 103.03780176975419636
52.009497869018190385759 565.10657453883322887 52.009497869018190385759 103.18550853964288194
54.009497869018218807469 567.65315107440767406 54.009497869018218807469 103.32498326095387142
56.009497869018190385759 570.07865463296514008 56.009497869018190385759 103.45573331827485219
58.009497869018218807469 572.39208017783323612 58.009497869018218807469 103.57653362350153259
60.009497869018190385759 574.60153078234645818 60.009497869018190385759 103.69264379356812356
62.009497869018190385759 576.71430444047462061 62.009497869018190385759 103.80251304361462417
64.009497869018218807469 578.73699233742070192 64.009497869018218807469 103.90622532051801841
66.009497869018190385759 580.67555028613332979 66.009497869018190385759 104.00152350923791289
68.009497869018190385759 582.53536805877729421 68.009497869018190385759 104.09088604213965823
70.009497869018190385759 584.32143377312036137 70.009497869018190385759 104.17740568250624733
72.009497869018190385759 586.03829851600937673 72.009497869018190385759 104.25907526787453605
74.009497869018218807469 587.69012351919934645 74.009497869018218807469 104.33715191547199197
76.009497869018190385759 589.28064787734479069 76.009497869018190385759 104.41137097777344422
78.009497869018190385759 590.81329835672966055 78.009497869018190385759 104.48046121962532595
80.009497869018218807469 592.29129978889022823 80.009497869018218807469 104.54896465438481812
82.009497869018190385759 593.71775288515573266 82.009497869018190385759 104.61646079664279796
84.009497869018218807469 595.09547824833509821 84.009497869018218807469 104.67931755417144757
86.009497869018190385759 596.42707611876494411 86.009497869018190385759 104.73996538510765220
88.009497869018190385759 597.71488502591091674 88.009497869018190385759 104.79859415011267743
91.009497869018218807469 599.56923959111736622 91.009497869018218807469 104.88428335396208979
94.009497869018218807469 601.33680821665393523 94.009497869018218807469 104.97024873325040062
97.009497869018218807469 603.02396623777428886 97.009497869018218807469 105.06351229256931390
99.504748934509137825444 604.37030892162306372 99.504748934509137825444 105.09782388714123158
nan nan nan nan

