Time Pressure difference Time.1 Pressure.1 difference.1
(hr) (psi) (hr) (psi)
0.000200000000020850166 0.79072864794282594 0.000200000000020850166 0.63127585443890322
0.000399999999999067768 1.57923028261080556 0.000399999999999067768 1.64386550669821974
0.000600000000019917934 2.36584022273871453 0.000600000000019917934 2.40115478786480585
0.000799999999998135536 3.15072596739546729 0.000799999999998135536 3.16975924263255937
0.001007140329434719206 3.96193695905705212 0.001007140329434719206 3.97416008779978158
0.001267914553977789183 4.98087524316750319 0.001267914553977789183 4.99061776176843885
0.001596209851982166583 6.26017121038725577 0.001596209851982166583 6.26401002240603422
0.002009509145224797066 7.86551080673187197 0.002009509145224797066 7.85777380368654121
0.002529822128153114136 9.87873452001000096 0.002529822128153114136 9.85025415685875849
0.003184857364431081805 12.40160172974272790 0.003184857364431081805 12.33783053322892442
0.004009497869034817086 15.56032821556631873 0.004009497869034817086 15.43851760975760889
0.005047658755856332391 19.51100691006899623 0.005047658755856332391 19.29600463995188875
0.006354625877790454069 24.44600275952490875 0.006354625877790454069 24.08405381290121028
0.008000000000009777068 30.60139463468733112 0.008000000000009777068 30.01106270450295099
0.010071403294361402914 38.26546461444032587 0.010071403294361402914 37.32437643356715995
0.012679145539692626699 47.78811561758551818 0.012679145539692626699 46.31374921530346001
0.015962098519750611558 59.59093961203128487 0.015962098519750611558 57.31315245074490861
0.020095091452091651263 74.17744532893070186 0.020095091452091651263 70.69924529430005578
0.025298221281360611101 92.14238904778586914 0.025298221281360611101 86.88492514991209248
0.031848573644296607199 114.17898443155945643 0.031848573644296607199 106.30560490887845049
0.040094978690191851456 141.08184618060110438 0.040094978690191851456 129.39468781539096653
0.050476587558435426217 173.74281255261334422 0.050476587558435426217 156.54539166148936147
0.063546258777947173257 213.13618430483339239 0.063546258777947173257 188.05580363665777099
0.080000000000012505552 260.28908567838777799 0.080000000000012505552 224.05586881206727412
0.100714032943542974863 316.23288981847878176 0.100714032943542974863 264.41406189538446370
0.126791455396883634421 381.93039285371338565 0.126791455396883634421 308.64183781376920024
0.159620985197506115583 458.18303633885267345 0.159620985197506115583 355.79239819394035749
0.200950914520774404082 545.51133200104607113 0.200950914520774404082 404.41173052567881996
0.252982212813464002465 644.03951973226890004 0.252982212813464002465 452.54698610317637986
0.318485736442809752589 753.38005296499159158 0.318485736442809752589 497.86555290016923436
0.400949786901833249431 872.57350526991524475 0.400949786901833249431 537.93618654657620937
0.504765875584169521062 1000.10305715960009820 0.504765875584169521062 570.57578713656005220
0.635462587779443310865 1133.99462456392325294 0.635462587779443310865 594.27627453705906646
0.800000000000011368684 1272.02792180687811197 0.800000000000011368684 608.55537672751586342
1.007140329435344483500 1411.99726889975067934 1.007140329435344483500 614.06155552025484212
1.267914553968907398485 1551.96908482664957774 1.267914553968907398485 612.48267400104555236
1.596209851975117999245 1690.49737736348492945 1.596209851975117999245 606.15655318064057155
2.009509145207687197399 1826.69836740435243883 2.009509145207687197399 597.57642582129142284
2.529822128134725289783 1960.23451584733288655 2.529822128134725289783 589.05958310742528283
3.184857364427983839050 2091.23219556107414974 3.184857364427983839050 582.30768483313022443
4.009497869018204596614 2220.06236087374691124 4.009497869018204596614 578.31710297009715305
5.009497869018190385759 2343.05314354785832620 5.009497869018190385759 577.43404402629676042
6.009497869018190385759 2442.71647528510538905 6.009497869018190385759 578.88612646958188179
7.009497869018204596614 2526.53408872705858812 7.009497869018204596614 581.53746999795225747
8.009497869018190385759 2598.85335783026766876 8.009497869018190385759 584.71612156029641483
9.009497869018204596614 2662.42603079963237178 9.009497869018204596614 588.12957580163708826
10.009497869018190385759 2719.10736497754351149 10.009497869018190385759 591.57048976170506194
11.009497869018190385759 2770.21026155856225159 11.009497869018190385759 594.77676591295823982
12.009497869018204596614 2816.69896184200661082 12.009497869018204596614 597.85873001330378429
13.009497869018190385759 2859.30042913310580843 13.009497869018190385759 600.79515916138359444
14.009497869018204596614 2898.58662418820540552 14.009497869018204596614 603.57856332050971560
15.009497869018190385759 2935.00775290145475083 15.009497869018190385759 606.23032294654490215
16.009497869018190385759 2968.92847682022193112 16.009497869018190385759 608.73333850841061121
17.009497869018204596614 3000.64782874852789973 17.009497869018204596614 611.05341004530748705
18.009497869018190385759 3030.41136527379512700 18.009497869018190385759 613.21684753858266959
19.009497869018204596614 3058.42283681718436128 19.009497869018204596614 615.15919470690505477
20.009497869018190385759 3084.85699369601434228 20.009497869018190385759 616.99369011121564199
21.009497869018190385759 3109.86266372520367440 21.009497869018190385759 618.73119364085198413
22.009497869018204596614 3133.56723954417293498 22.009497869018204596614 620.40600145166547463
23.009497869018190385759 3156.09325402341664812 23.009497869018190385759 622.05360550385398710
24.009497869018204596614 3177.54358294003486662 24.009497869018204596614 623.61703067236135212
25.009497869018204596614 3198.00634177674828607 25.009497869018204596614 625.12558872807346688
26.009497869018190385759 3217.55878704069982632 26.009497869018190385759 626.52557649110042348
27.009497869018204596614 3236.27138161938501071 27.009497869018204596614 627.81253396133820388
28.009497869018190385759 3254.20027688248865161 28.009497869018190385759 629.00747686868908204
29.009497869018190385759 3271.39158232719591979 29.009497869018190385759 630.14217111738582844
30.009497869018190385759 3287.89463825922848628 30.009497869018190385759 631.21187187241287120
31.009497869018218807469 3303.75803999630579710 31.009497869018218807469 632.19509655170782025
32.009497869018190385759 3319.02385594862153084 32.009497869018190385759 633.11801680307837614
33.009497869018190385759 3333.73012054280070515 33.009497869018190385759 634.06108291358191309
34.009497869018218807469 3347.91265846324904487 34.009497869018218807469 634.94668544642729557
35.009497869018190385759 3361.60183006726174426 35.009497869018190385759 635.80334548887856272
36.009497869018190385759 3374.82582784002670451 36.009497869018190385759 636.64051112261302023
37.009497869018190385759 3387.61083012759672783 37.009497869018190385759 637.44782448639932682
38.009497869018218807469 3399.97997189884335967 38.009497869018218807469 638.22532397780310021
39.009497869018190385759 3411.95495121290377938 39.009497869018190385759 638.95991467635758454
40.009497869018190385759 3423.55591019806342956 40.009497869018190385759 639.64767963823248920
41.009497869018218807469 3434.80178007519634775 41.009497869018218807469 640.33165029682174918
42.009497869018190385759 3445.70992077943901677 42.009497869018190385759 640.97887863907919836
43.009497869018190385759 3456.29644398137588723 43.009497869018190385759 641.60045743929902073
44.009497869018218807469 3466.57710990076520829 44.009497869018218807469 642.19107968859384528
46.009497869018190385759 3486.27776487663140870 46.009497869018190385759 643.31030977197860921
48.009497869018218807469 3504.91549257273800322 48.009497869018218807469 644.35916340356482124
50.009497869018190385759 3522.58012552967784359 50.009497869018190385759 645.34202161056578007
52.009497869018190385759 3539.35170369058687356 52.009497869018190385759 646.26713243250014784
54.009497869018218807469 3555.30131462392182584 54.009497869018218807469 647.14068463439537027
56.009497869018190385759 3570.49262638541358683 56.009497869018190385759 647.95959288814242427
58.009497869018218807469 3584.98197585064008308 58.009497869018218807469 648.71618427350961156
60.009497869018190385759 3598.82011384732777515 60.009497869018190385759 649.44340060182139496
62.009497869018190385759 3612.05274886402503398 62.009497869018190385759 650.13152906263894693
64.009497869018218807469 3624.72116253437206979 64.009497869018218807469 650.78109542850768321
66.009497869018190385759 3636.86265705525602243 66.009497869018190385759 651.37796303154266297
68.009497869018190385759 3648.51098942076259846 68.009497869018190385759 651.93765468497997517
70.009497869018190385759 3659.69740100006947614 70.009497869018190385759 652.47954085359174314
72.009497869018190385759 3670.45039596869037268 72.009497869018190385759 652.99105036195101093
74.009497869018218807469 3680.79603677814338880 74.009497869018218807469 653.48005673374552771
76.009497869018190385759 3690.75774196863267207 76.009497869018190385759 653.94490243973893939
78.009497869018190385759 3700.35697391846497339 78.009497869018190385759 654.37762553344293792
80.009497869018218807469 3709.61393025673396551 80.009497869018218807469 654.80667336167346093
82.009497869018190385759 3718.54803122808107219 82.009497869018190385759 655.22941235792063708
84.009497869018218807469 3727.17694271325626687 84.009497869018218807469 655.62309415507377253
86.009497869018190385759 3735.51695042805431513 86.009497869018190385759 656.00294109620051586
88.009497869018190385759 3743.58270095175794268 88.009497869018190385759 656.37014230860052066
91.009497869018218807469 3755.19681638647216460 91.009497869018218807469 656.90682732218351703
94.009497869018218807469 3766.26737777799098694 94.009497869018218807469 657.44524206614732975
97.009497869018218807469 3776.83431485763867386 97.009497869018218807469 658.02936646398677567
99.504748934509137825444 3785.26667166700781308 99.504748934509137825444 658.24426539841078920
nan nan nan nan

