Time Pressure difference Time.1 Pressure.1 difference.1
(hr) (psi) (hr) (psi)
0.000200000000020850166 0.38955014273653926 0.000200000000020850166 0.31099619299563613
0.000399999999999067768 0.77800315393326447 0.000399999999999067768 0.80984550697632895
0.000600000000019917934 1.16552422737863148 0.000600000000019917934 1.18292184402163225
0.000799999999998135536 1.55219588099629613 0.000799999999998135536 1.56157256806162859
0.001007140329434719206 1.95183659012369448 0.001007140329434719206 1.95785827854842198
0.001267914553977789183 2.45381353891340215 0.001267914553977789183 2.45861316204768654
0.001596209851982166583 3.08405493452901558 0.001596209851982166583 3.08594611397944307
0.002009509145224797066 3.87492076508114280 0.002009509145224797066 3.87110915328675187
0.002529822128153114136 4.86672950618139666 0.002529822128153114136 4.85269873904071147
0.003184857364431081805 6.10961261685854939 0.003184857364431081805 6.07819592445836765
0.004009497869034817086 7.66574992972752511 0.004009497869034817086 7.60574029304235211
0.005047658755856332391 9.61204016893104907 0.005047658755856332391 9.50611993291747481
0.006354625877790454069 12.04325135947182979 0.006354625877790454069 11.86493827547339208
0.008000000000009777068 15.07568706267684711 0.008000000000009777068 14.78486177354189479
0.010071403294361402914 18.85136859681986721 0.010071403294361402914 18.38774427241911624
0.012679145539692626699 23.54267460572227577 0.012679145539692626699 22.81633233400978966
0.015962098519750611558 29.35730113239776529 0.015962098519750611558 28.23515598676403471
0.020095091452091651263 36.54330027234085776 0.020095091452091651263 34.82977525528017537
0.025298221281360611101 45.39367695736510200 0.025298221281360611101 42.80360283120668896
0.031848573644296607199 56.24994085966532964 0.031848573644296607199 52.37114359481512338
0.040094978690191851456 69.50355657426671030 0.040094978690191851456 63.74591237964114043
0.050476587558435426217 85.59388559577276112 0.050476587558435426217 77.12162677441018843
0.063546258777947173257 105.00091432664586932 0.063546258777947173257 92.64513855629462569
0.080000000000012505552 128.23065250332339815 0.080000000000012505552 110.38046478241548698
0.100714032943542974863 155.79120307233881704 0.100714032943542974863 130.26280990434381124
0.126791455396883634421 188.15688471469704268 0.126791455396883634421 152.05149362884216657
0.159620985197506115583 225.72252525517009758 0.159620985197506115583 175.28007852201471906
0.200950914520774404082 268.74455326522121368 0.200950914520774404082 199.23224959720937477
0.252982212813464002465 317.28417516222077666 0.252982212813464002465 222.94594168318246830
0.318485736442809752589 371.15046726951794653 0.318485736442809752589 245.27200032581868072
0.400949786901833249431 429.87077097856115415 0.400949786901833249431 265.01268013691617398
0.504765875584169521062 492.69782963009708965 0.504765875584169521062 281.09248336874651386
0.635462587779443310865 558.65911651310932484 0.635462587779443310865 292.76845877928644768
0.800000000000011368684 626.66081441956498566 0.800000000000011368684 299.80301647605563176
1.007140329435344483500 695.61630159031835774 1.007140329435344483500 302.51561926365496902
1.267914553968907398485 764.57300502489363225 1.267914553968907398485 301.73778792698567486
1.596209851975117999245 832.81856090701103312 1.596209851975117999245 298.62124311105088736
2.009509145207687197399 899.91757805949714566 2.009509145207687197399 294.39426860313625411
2.529822128134725289783 965.70376883655364963 2.529822128134725289783 290.19847108968747307
3.184857364427983839050 1030.23939046023519950 3.184857364427983839050 286.87216826338033115
4.009497869018204596614 1093.70719248927230183 4.009497869018204596614 284.90621984556258894
5.009497869018190385759 1154.29823983607730042 5.009497869018190385759 284.47118345413150564
6.009497869018190385759 1203.39708708898569967 6.009497869018190385759 285.18654759898515749
7.009497869018204596614 1244.68958782877166414 7.009497869018204596614 286.49272419016767799
8.009497869018190385759 1280.31746304873490772 8.009497869018190385759 288.05867753338134207
9.009497869018204596614 1311.63635340864220780 9.009497869018204596614 289.74030572580647913
10.009497869018190385759 1339.56024598158387562 10.009497869018190385759 291.43546186789876629
11.009497869018190385759 1364.73593767958595890 11.009497869018190385759 293.01502438358971858
12.009497869018204596614 1387.63845914275316318 12.009497869018204596614 294.53334493302463670
13.009497869018190385759 1408.62594670528005736 13.009497869018190385759 295.97996811626990166
14.009497869018204596614 1427.98017515154242574 14.009497869018204596614 297.35120398878058268
15.009497869018190385759 1445.92293709115756428 15.009497869018190385759 298.65758556925374023
16.009497869018190385759 1462.63388196290338783 16.009497869018190385759 299.89068882399641325
17.009497869018204596614 1478.26032739817173933 17.009497869018204596614 301.03366524290885309
18.009497869018190385759 1492.92324612753122892 18.009497869018190385759 302.09947636091936829
19.009497869018204596614 1506.72301519670122616 19.009497869018204596614 303.05636798060771753
20.009497869018190385759 1519.74572483553629354 20.009497869018190385759 303.96012674596647685
21.009497869018190385759 1532.06469462932818715 21.009497869018190385759 304.81610274953737871
22.009497869018204596614 1543.74268418720271256 22.009497869018204596614 305.64119189162937573
23.009497869018190385759 1554.84005896741859942 23.009497869018190385759 306.45287918204576272
24.009497869018204596614 1565.40750041898763811 24.009497869018204596614 307.22309599300155014
25.009497869018204596614 1575.48841837530972043 25.009497869018204596614 307.96628268221269309
26.009497869018190385759 1585.12087302740383166 26.009497869018190385759 308.65598253605679702
27.009497869018204596614 1594.33957770954998523 27.009497869018204596614 309.28999834860047713
28.009497869018190385759 1603.17219522887307903 28.009497869018190385759 309.87868345736887932
29.009497869018190385759 1611.64144129354508550 29.009497869018190385759 310.43768724165335016
30.009497869018190385759 1619.77162326006100557 30.009497869018190385759 310.96467217243866799
31.009497869018218807469 1627.58668146876811988 31.009497869018218807469 311.44905491885612037
32.009497869018190385759 1635.10734079821804698 32.009497869018190385759 311.90372886622242277
33.009497869018190385759 1642.35233879682095903 33.009497869018190385759 312.36832761183814000
34.009497869018218807469 1649.33932438998294856 34.009497869018218807469 312.80461709493113176
35.009497869018190385759 1656.08325451843029441 35.009497869018190385759 313.22664814525637667
36.009497869018190385759 1662.59801812707178215 36.009497869018190385759 313.63907533246378989
37.009497869018190385759 1668.89651190109543677 37.009497869018190385759 314.03679588668205724
38.009497869018218807469 1674.99013321487132089 38.009497869018218807469 314.41982872435886520
39.009497869018190385759 1680.88957155341586258 39.009497869018190385759 314.78172267144088892
40.009497869018190385759 1686.60474987698717086 40.009497869018190385759 315.12054805707037985
41.009497869018218807469 1692.14499459586886587 41.009497869018218807469 315.45750419034601464
42.009497869018190385759 1697.51885803104710249 42.009497869018190385759 315.77635932954638065
43.009497869018190385759 1702.73427754964836822 43.009497869018190385759 316.08257829730166577
44.009497869018218807469 1707.79901737758291347 44.009497869018218807469 316.37354661129256783
46.009497869018190385759 1717.50448710834029953 46.009497869018190385759 316.92493202001890040
48.009497869018218807469 1726.68630884098138267 48.009497869018218807469 317.44164667675624969
50.009497869018190385759 1735.38873831241494372 50.009497869018190385759 317.92584888167579038
52.009497869018190385759 1743.65120696521557875 52.009497869018190385759 318.38160200718755277
54.009497869018218807469 1751.50873588090257726 54.009497869018218807469 318.81195493018003617
56.009497869018190385759 1758.99269093987300039 56.009497869018190385759 319.21538767283487914
58.009497869018218807469 1766.13082633818294198 58.009497869018218807469 319.58812019356724932
60.009497869018190385759 1772.94814432184534780 60.009497869018190385759 319.94638117883852146
62.009497869018190385759 1779.46716304330652747 62.009497869018190385759 320.28538564115302734
64.009497869018218807469 1785.70821977796276769 64.009497869018218807469 320.60539260080889790
66.009497869018190385759 1791.68969134339818083 66.009497869018190385759 320.89943766995116903
68.009497869018190385759 1797.42820802346386699 68.009497869018190385759 321.17516811686516576
70.009497869018190385759 1802.93916078679899329 70.009497869018190385759 321.44212674404889185
72.009497869018190385759 1808.23659213163432469 72.009497869018190385759 321.69412039890232791
74.009497869018218807469 1813.33334164805592081 74.009497869018218807469 321.93502794971288949
76.009497869018190385759 1818.24094641101760317 76.009497869018190385759 322.16403281957724403
78.009497869018190385759 1822.96997979806724288 78.009497869018190385759 322.37721257897550231
80.009497869018218807469 1827.53039211177315337 80.009497869018218807469 322.58858172964789901
82.009497869018190385759 1831.93175067853985638 82.009497869018190385759 322.79684285279915912
84.009497869018218807469 1836.18275854256035018 84.009497869018218807469 322.99078903227893989
86.009497869018190385759 1840.29143881382083237 86.009497869018190385759 323.17791951062827138
88.009497869018190385759 1844.26500708652770300 88.009497869018190385759 323.35882010791351604
91.009497869018218807469 1849.98666689627657433 91.009497869018218807469 323.62321640136985934
94.009497869018218807469 1855.44054640533363454 94.009497869018218807469 323.88846484141078008
97.009497869018218807469 1860.64631687839573715 97.009497869018218807469 324.17623200799346250
99.504748934509137825444 1864.80049265948173343 99.504748934509137825444 324.28210133598179254
nan nan nan nan

