Time Pressure difference Time.1 Pressure.1 difference.1
(hr) (psi) (hr) (psi)
0.000200000000020850166 0.22841426279861043 0.000200000000020850166 0.18235384450703612
0.000399999999999067768 0.45618521819114655 0.000399999999999067768 0.47485610750211182
0.000600000000019917934 0.68340972820708656 0.000600000000019917934 0.69361088935170345
0.000799999999998135536 0.91013617755646370 0.000799999999998135536 0.91563423500415320
0.001007140329434719206 1.14446708376122808 0.001007140329434719206 1.14799792452199600
0.001267914553977789183 1.43880324776372204 0.001267914553977789183 1.44161752572092494
0.001596209851982166583 1.80834777610976394 0.001596209851982166583 1.80945667664039855
0.002009509145224797066 2.27207507547401777 0.002009509145224797066 2.26984012186323447
0.002529822128153114136 2.85362604307011569 0.002529822128153114136 2.84539904741193084
0.003184857364431081805 3.58239545764627110 0.003184857364431081805 3.56397415613230528
0.004009497869034817086 4.49484270932850549 0.004009497869034817086 4.45965582214636758
0.005047658755856332391 5.63605766834976230 0.005047658755856332391 5.57395092015416882
0.006354625877790454069 7.06160793998881253 0.006354625877790454069 6.95705335981915240
0.008000000000009777068 8.83968857619644410 0.008000000000009777068 8.66916202073351982
0.010071403294361402914 11.05357433715450455 0.010071403294361402914 10.78172638574681663
0.012679145539692626699 13.80434012062606897 0.012679145539692626699 13.37844646450467501
0.015962098519750611558 17.21376932070231192 0.015962098519750611558 16.55579508818786749
0.020095091452091651263 21.42730826203355221 0.020095091452091651263 20.42257610917280886
0.025298221281360611101 26.61676154216503676 0.025298221281360611101 25.09806136158174894
0.031848573644296607199 32.98237470449458897 0.031848573644296607199 30.70802662808988970
0.040094978690191851456 40.75368455847196003 0.040094978690191851456 37.37766717356356594
0.050476587558435426217 50.18831244954692750 0.050476587558435426217 45.22057007028315923
0.063546258777947173257 61.56770029813990419 0.063546258777947173257 54.32284243705974802
0.080000000000012505552 75.18854890919814693 0.080000000000012505552 64.72202092785556715
0.100714032943542974863 91.34878644966561012 0.100714032943542974863 76.38011241725916989
0.126791455396883634421 110.32653154912939897 0.126791455396883634421 89.15599306595223084
0.159620985197506115583 132.35329306006772754 0.159620985197506115583 102.77616544467815629
0.200950914520774404082 157.57942888685678895 0.200950914520774404082 116.82061543546392102
0.252982212813464002465 186.04082765375414965 0.252982212813464002465 130.72523233022428713
0.318485736442809752589 217.62554050984525134 0.318485736442809752589 143.81620488187661522
0.400949786901833249431 252.05642221557425842 0.400949786901833249431 155.39123035746686696
0.504765875584169521062 288.89531588118700256 0.504765875584169521062 164.81968641024582212
0.635462587779443310865 327.57197663348625838 0.635462587779443310865 171.66594064883534543
0.800000000000011368684 367.44504043791124559 0.800000000000011368684 175.79068130259125269
1.007140329435344483500 407.87736233973890876 1.007140329435344483500 177.38122664713245058
1.267914553968907398485 448.31039740265617866 1.267914553968907398485 176.92514217467177673
1.596209851975117999245 488.32644829302347489 1.596209851975117999245 175.09774382844133811
2.009509145207687197399 527.67022167667744270 2.009509145207687197399 172.61924065215879409
2.529822128134725289783 566.24421413657205449 2.529822128134725289783 170.15901822956089973
3.184857364427983839050 604.08493044043643749 3.184857364427983839050 168.20862744654496623
4.009497869018204596614 641.29952651289954701 4.009497869018204596614 167.05588583695035254
5.009497869018190385759 676.82732612989605059 5.009497869018190385759 166.80080053280633479
6.009497869018190385759 705.61662889013030053 6.009497869018190385759 167.22025712094014693
7.009497869018204596614 729.82864957977017184 7.009497869018204596614 167.98613891747572779
8.009497869018190385759 750.71919475139031874 8.009497869018190385759 168.90434183727052186
9.009497869018204596614 769.08314965325519097 9.009497869018204596614 169.89037116118717563
10.009497869018190385759 785.45643421095007852 10.009497869018190385759 170.88433265175302722
11.009497869018190385759 800.21830034517290642 11.009497869018190385759 171.81051536351210984
12.009497869018204596614 813.64728414553769653 12.009497869018204596614 172.70078860678418664
13.009497869018190385759 825.95338026428999001 13.009497869018190385759 173.54902181657615756
14.009497869018204596614 837.30180845772736120 14.009497869018204596614 174.35305137934892628
15.009497869018190385759 847.82261769737385748 15.009497869018190385759 175.11905337216370526
16.009497869018190385759 857.62114614029508175 16.009497869018190385759 175.84208832963540203
17.009497869018204596614 866.78377406076162970 17.009497869018204596614 176.51227706140710438
18.009497869018190385759 875.38143429652700434 18.009497869018190385759 177.13721961461158116
19.009497869018204596614 883.47298332429181755 19.009497869018204596614 177.69829679033497882
20.009497869018190385759 891.10890048992007451 20.009497869018190385759 178.22821930733644535
21.009497869018190385759 898.33217702146112060 21.009497869018190385759 178.73012421348141743
22.009497869018204596614 905.17961226328520752 22.009497869018204596614 179.21391848656304546
23.009497869018190385759 911.68660173995749574 23.009497869018190385759 179.68985453105025840
24.009497869018204596614 917.88286271902256885 24.009497869018204596614 180.14147419632286073
25.009497869018204596614 923.79384872752711999 25.009497869018204596614 180.57724464308844858
26.009497869018190385759 929.44187650860556005 26.009497869018190385759 180.98165287295441317
27.009497869018204596614 934.84730036274254417 27.009497869018204596614 181.35341054555465234
28.009497869018190385759 940.02634048601305494 28.009497869018190385759 181.69858838118645394
29.009497869018190385759 944.99231632350722521 29.009497869018190385759 182.02636245512721302
30.009497869018190385759 949.75948058958806541 30.009497869018190385759 182.33536214801841879
31.009497869018218807469 954.34187079725211333 31.009497869018218807469 182.61938188205846245
32.009497869018190385759 958.75163906078887521 32.009497869018190385759 182.88598174458670087
33.009497869018190385759 962.99977221561994156 33.009497869018190385759 183.15840105171744767
34.009497869018218807469 967.09661877877465486 34.009497869018218807469 183.41422111110034621
35.009497869018190385759 971.05094881144646024 35.009497869018190385759 183.66168068218655662
36.009497869018190385759 974.87090615126828652 36.009497869018190385759 183.90350899025062859
37.009497869018190385759 978.56405282047171568 37.009497869018190385759 184.13671400605025497
38.009497869018218807469 982.13707171447674682 38.009497869018218807469 184.36130682131917524
39.009497869018190385759 985.59623065498806227 39.009497869018190385759 184.57350476470415401
40.009497869018190385759 988.94734800889420967 40.009497869018190385759 184.77217636608605744
41.009497869018218807469 992.19589235365447166 41.009497869018218807469 184.96975192397684395
42.009497869018190385759 995.34687837641342867 42.009497869018190385759 185.15671389259114221
43.009497869018190385759 998.40496018369583453 43.009497869018190385759 185.33626659223446609
44.009497869018218807469 1001.37469035998992695 44.009497869018218807469 185.50687701088583026
46.009497869018190385759 1007.06553082045547853 46.009497869018190385759 185.83018402026695526
48.009497869018218807469 1012.44932821166287340 48.009497869018218807469 186.13316169745834827
50.009497869018190385759 1017.55203205951818290 50.009497869018190385759 186.41707557027896769
52.009497869018190385759 1022.39676314591542905 52.009497869018190385759 186.68430821316965762
54.009497869018218807469 1027.00405622014545770 54.009497869018218807469 186.93664734712049835
56.009497869018190385759 1031.39230278990407896 56.009497869018190385759 187.17320172714198634
58.009497869018218807469 1035.57777663752744957 58.009497869018218807469 187.39175491094027848
60.009497869018190385759 1039.57513792858753732 60.009497869018190385759 187.60182265283708603
62.009497869018190385759 1043.39759027059540131 62.009497869018190385759 187.80059925653961272
64.009497869018218807469 1047.05705850520189415 64.009497869018218807469 187.98823659962141619
66.009497869018190385759 1050.56431795188609613 66.009497869018190385759 188.16065108579226717
68.009497869018190385759 1053.92911984318243412 68.009497869018190385759 188.32232672097634918
70.009497869018190385759 1057.16048873426393584 70.009497869018190385759 188.47885896506062409
72.009497869018190385759 1060.26665849935920960 72.009497869018190385759 188.62661643858876914
74.009497869018218807469 1063.25515768276204653 74.009497869018218807469 188.76787353128153768
76.009497869018190385759 1066.13275109388018791 76.009497869018190385759 188.90215144005063053
78.009497869018190385759 1068.90563847434646050 78.009497869018190385759 189.02715023287476015
80.009497869018218807469 1071.57965422332108574 80.009497869018218807469 189.15108736813041901
82.009497869018190385759 1074.16040818038050020 82.009497869018190385759 189.27320209918929095
84.009497869018218807469 1076.65300340981684712 84.009497869018218807469 189.38692320656016932
86.009497869018190385759 1079.06214429381816444 86.009497869018190385759 189.49664790068820253
88.009497869018190385759 1081.39206172450985832 88.009497869018190385759 189.60271967948020233
91.009497869018218807469 1084.74697952340306983 91.009497869018218807469 189.75774948907616135
94.009497869018218807469 1087.94488328670968258 94.009497869018218807469 189.91327895818329807
97.009497869018218807469 1090.99730733807859906 97.009497869018218807469 190.08201237142472451
99.504748934509137825444 1093.43312469372585838 99.504748934509137825444 190.14408926949892020
nan nan nan nan

