Time Pressure difference Time.1 Pressure.1 difference.1
(hr) (psi) (hr) (psi)
0.000200000000020850166 0.71016070797386155 0.000200000000020850166 0.56695468019460327
0.000399999999999067768 1.41832131473974643 0.000399999999999067768 1.47637080696111145
0.000600000000019917934 2.12478297315294240 0.000600000000019917934 2.15649931052984112
0.000799999999998135536 2.82969611567555068 0.000799999999998135536 2.84679007610382184
0.001007140329434719206 3.55825220587581859 0.001007140329434719206 3.56922991078656882
0.001267914553977789183 4.47337009759266291 0.001267914553977789183 4.48211994360505805
0.001596209851982166583 5.62231763117762995 0.001596209851982166583 5.62576530373651185
0.002009509145224797066 7.06408796192830923 0.002009509145224797066 7.05713928797478296
0.002529822128153114136 8.87218278845435826 0.002529822128153114136 8.84660431104436640
0.003184857364431081805 11.13799315013658919 0.003184857364431081805 11.08071964906589280
0.004009497869034817086 13.97487460536680892 0.004009497869034817086 13.86547537430961619
0.005047658755856332391 17.52301565977835196 0.005047658755856332391 17.32992013357023708
0.006354625877790454069 21.95518104978339835 0.006354625877790454069 21.63011135507409222
0.008000000000009777068 27.48339539144713228 0.008000000000009777068 26.95321282809876351
0.010071403294361402914 34.36656748460764277 0.010071403294361402914 33.52136749023100748
0.012679145539692626699 42.91894837503741655 0.012679145539692626699 41.59480628055089824
0.015962098519750611558 53.51917370618355818 0.015962098519750611558 51.47347200145682677
0.020095091452091651263 66.61944932377704731 0.020095091452091651263 63.49564572124636896
0.025298221281360611101 82.75393134018584362 0.025298221281360611101 78.03215441509962602
0.031848573644296607199 102.54520135397409319 0.031848573644296607199 95.47404642551585141
0.040094978690191851456 126.70691017270372924 0.040094978690191851456 116.21056521235217929
0.050476587558435426217 156.04002597950045583 0.050476587558435426217 140.59486330942581844
0.063546258777947173257 191.41957729058040627 0.063546258777947173257 168.89465557704031085
0.080000000000012505552 233.76803388132515238 0.080000000000012505552 201.22664688478730000
0.100714032943542974863 284.01168150714215699 0.100714032943542974863 237.47271315184212881
0.126791455396883634421 343.01521627092955669 0.126791455396883634421 277.19408753232420395
0.159620985197506115583 411.49842024130157370 0.159620985197506115583 319.54044165527204768
0.200950914520774404082 489.92876981186378771 0.200950914520774404082 363.20591344480601492
0.252982212813464002465 578.41784597803564338 0.252982212813464002465 406.43663142669726085
0.318485736442809752589 676.61758958515531504 0.318485736442809752589 447.13765517819825845
0.400949786901833249431 783.66633088842161214 0.400949786901833249431 483.12546165685154165
0.504765875584169521062 898.20180028514505466 0.504765875584169521062 512.43938865730979160
0.635462587779443310865 1018.45105462411197550 0.635462587779443310865 533.72501547183355797
0.800000000000011368684 1142.42003481605138404 0.800000000000011368684 546.54920914078377336
1.007140329435344483500 1268.12779927446081274 1.007140329435344483500 551.49435921199358290
1.267914553968907398485 1393.83778101553093620 1.267914553968907398485 550.07635112488856066
1.596209851975117999245 1518.25132105649117875 1.596209851975117999245 544.39480353933583956
2.009509145207687197399 1640.57468921294253050 2.009509145207687197399 536.68891184580263598
2.529822128134725289783 1760.50473849734203213 2.529822128134725289783 529.03985667736208143
3.184857364427983839050 1878.15496555117488242 3.184857364427983839050 522.97591442471252776
4.009497869018204596614 1993.85852788556030646 4.009497869018204596614 519.39193596579116274
5.009497869018190385759 2104.31768669476787181 5.009497869018190385759 518.59885256563416078
6.009497869018190385759 2193.82624618567751895 6.009497869018190385759 519.90298123055936230
7.009497869018204596614 2269.10361960255795566 7.009497869018204596614 522.28417736160622553
8.009497869018190385759 2334.05422368159543112 8.009497869018190385759 525.13895371224111841
9.009497869018204596614 2391.14942892193857915 9.009497869018204596614 528.20460851932739388
10.009497869018190385759 2442.05545909222655609 10.009497869018190385759 531.29492515363210714
11.009497869018190385759 2487.95144289135578219 11.009497869018190385759 534.17451140291939282
12.009497869018204596614 2529.70337434339899119 12.009497869018204596614 536.94245185018360189
13.009497869018190385759 2567.96414591261054738 13.009497869018190385759 539.57968601153675081
14.009497869018204596614 2603.24744084129815747 14.009497869018204596614 542.07948701579391582
15.009497869018190385759 2635.95759320456272690 15.009497869018190385759 544.46105684799988467
16.009497869018190385759 2666.42210890891783492 16.009497869018190385759 546.70903826123003455
17.009497869018204596614 2694.90955207982233333 17.009497869018204596614 548.79271595455657007
18.009497869018190385759 2721.64045935829290102 18.009497869018190385759 550.73571916542880444
19.009497869018204596614 2746.79782088097999804 19.009497869018204596614 552.48015911176878490
20.009497869018190385759 2770.53858152320617592 20.009497869018190385759 554.12773639190049835
21.009497869018190385759 2792.99640492126991376 21.009497869018190385759 555.68820437282397506
22.009497869018204596614 2814.28570358221395509 22.009497869018204596614 557.19236474913236634
23.009497869018190385759 2834.51652540968598259 23.009497869018190385759 558.67209317835636284
24.009497869018204596614 2853.78126409005199093 24.009497869018204596614 560.07621977402197899
25.009497869018204596614 2872.15905695285664478 25.009497869018204596614 561.43106970851135884
26.009497869018190385759 2889.71928878130074736 26.009497869018190385759 562.68841165954927419
27.009497869018204596614 2906.52524294598151755 27.009497869018204596614 563.84424005981531991
28.009497869018190385759 2922.62734951105858272 28.009497869018190385759 564.91742933059776988
29.009497869018190385759 2938.06701984217716017 29.009497869018190385759 565.93650872412274566
30.009497869018190385759 2952.88856692399212989 30.009497869018190385759 566.89721686020277502
31.009497869018218807469 2967.13563466054756645 31.009497869018218807469 567.78026003330910498
32.009497869018190385759 2980.84600507990671758 32.009497869018190385759 568.60914324226041572
33.009497869018190385759 2994.05383725220053748 33.009497869018190385759 569.45611963352166640
34.009497869018218807469 3006.79130565764489802 34.009497869018218807469 570.25148745451201648
35.009497869018190385759 3019.08567721376994086 35.009497869018190385759 571.02086175734370954
36.009497869018190385759 3030.96227185212455879 36.009497869018190385759 571.77272795150645379
37.009497869018190385759 3042.44460058728463991 37.009497869018190385759 572.49778354608338304
38.009497869018218807469 3053.55344114864601579 38.009497869018218807469 573.19606302628324102
39.009497869018190385759 3064.30828076369016344 39.009497869018190385759 573.85580572298931656
40.009497869018190385759 3074.72720926401689212 40.009497869018190385759 574.47349379274021430
41.009497869018218807469 3084.82722895408915065 41.009497869018218807469 575.08777416363705015
42.009497869018190385759 3094.62393095212200933 42.009497869018190385759 575.66905592060163599
43.009497869018190385759 3104.13178529839933617 43.009497869018190385759 576.22730158676540668
44.009497869018218807469 3113.36494639196916978 44.009497869018218807469 576.75774488839044807
46.009497869018190385759 3131.05828673268888451 46.009497869018190385759 577.76293577210265084
48.009497869018218807469 3147.79700225807891911 48.009497869018218807469 578.70492091391588474
50.009497869018190385759 3163.66177240322986108 50.009497869018190385759 579.58763495486732609
52.009497869018190385759 3178.72448178093691240 52.009497869018190385759 580.41848553549118606
54.009497869018218807469 3193.04897479354303869 54.009497869018218807469 581.20303084286558715
56.009497869018190385759 3206.69243231042901243 56.009497869018190385759 581.93849991529600629
58.009497869018218807469 3219.70545100031222319 58.009497869018218807469 582.61800163219606929
60.009497869018190385759 3232.13361065069875622 60.009497869018190385759 583.27112133882064882
62.009497869018190385759 3244.01796247766969827 62.009497869018190385759 583.88913587033232488
64.009497869018218807469 3255.39558189799163301 64.009497869018218807469 584.47251742791388551
66.009497869018190385759 3266.29997035950009376 66.009497869018190385759 585.00856973946315520
68.009497869018190385759 3276.76144533062188202 68.009497869018190385759 585.51123398703555267
70.009497869018190385759 3286.80806497380172004 70.009497869018190385759 585.99790696409763768
72.009497869018190385759 3296.46542915255304251 72.009497869018190385759 586.45729838179420312
74.009497869018218807469 3305.75694479549656535 74.009497869018218807469 586.89647952452980917
76.009497869018190385759 3314.70364431006373707 76.009497869018190385759 587.31396174997564685
78.009497869018190385759 3323.32480325660480958 78.009497869018190385759 587.70259436039248158
80.009497869018218807469 3331.63856131250759063 80.009497869018218807469 588.08792618091456461
82.009497869018190385759 3339.66235997900093935 82.009497869018190385759 588.46759198111567457
84.009497869018218807469 3347.41206514688519746 84.009497869018218807469 588.82116124221431619
86.009497869018190385759 3354.90230316805309485 86.009497869018190385759 589.16230529123060933
88.009497869018190385759 3362.14622827074890665 88.009497869018190385759 589.49209209438379276
91.009497869018218807469 3372.57697270003563972 91.009497869018218807469 589.97409386603669645
94.009497869018218807469 3382.51954621867844253 94.009497869018218807469 590.45764912453353190
97.009497869018218807469 3392.00981008748067325 97.009497869018218807469 590.98225664570236404
99.504748934509137825444 3399.58298768412942081 99.504748934509137825444 591.17525936516938145
nan nan nan nan

