Time Pressure difference Time.1 Pressure.1 difference.1
(hr) (psi) (hr) (psi)
0.000200000000020850166 0.41114567303749883 0.000200000000020850166 0.32823692011266503
0.000399999999999067768 0.82113339274406383 0.000399999999999067768 0.85474099350380128
0.000600000000019917934 1.23013751077275590 0.000600000000019917934 1.24849960083306599
0.000799999999998135536 1.63824511960163455 0.000799999999998135536 1.64814162300747569
0.001007140329434719206 2.06004075077021076 0.001007140329434719206 2.06639626413959254
0.001267914553977789183 2.58984584597469958 0.001267914553977789183 2.59491154629766507
0.001596209851982166583 3.25502599699757500 0.001596209851982166583 3.25702201795271762
0.002009509145224797066 4.08973513585323190 0.002009509145224797066 4.08571221935382134
0.002529822128153114136 5.13652687752620807 0.002529822128153114136 5.12171828534147533
0.003184857364431081805 6.44831182376328815 0.003184857364431081805 6.41515348103814897
0.004009497869034817086 8.09071687679131024 0.004009497869034817086 8.02738047986346182
0.005047658755856332391 10.14490380302957284 0.005047658755856332391 10.03311165627750512
0.006354625877790454069 12.71089429197986220 0.006354625877790454069 12.52269604767447397
0.008000000000009777068 15.91143943715360010 0.008000000000009777068 15.60449163732033639
0.010071403294361402914 19.89643380687811103 0.010071403294361402914 19.40710749434426674
0.012679145539692626699 24.84781221712692556 0.012679145539692626699 24.08120363610841608
0.015962098519750611558 30.98478477726416713 0.015962098519750611558 29.80043115873816006
0.020095091452091651263 38.56915487166039469 0.020095091452091651263 36.76063699651105310
0.025298221281360611101 47.91017077589707185 0.025298221281360611101 45.17651045084714667
0.031848573644296607199 59.36827446809026299 0.031848573644296607199 55.27444793056180572
0.040094978690191851456 73.35663220524952521 0.040094978690191851456 67.27980091241441585
0.050476587558435426217 90.33896240918446097 0.050476587558435426217 81.39702612650968661
0.063546258777947173257 110.82186053665182612 0.063546258777947173257 97.78111638670753791
0.080000000000012505552 135.33938803655664174 0.080000000000012505552 116.49963767014001803
0.100714032943542974863 164.42781560939809538 0.100714032943542974863 137.48420235106650011
0.126791455396883634421 198.58775678843289825 0.126791455396883634421 160.48078751871403824
0.159620985197506115583 238.23592750812193231 0.159620985197506115583 184.99709780042067564
0.200950914520774404082 283.64297199634222579 0.200950914520774404082 210.27710778383507773
0.252982212813464002465 334.87348977675753758 0.252982212813464002465 235.30541819440369977
0.318485736442809752589 391.72597291772143535 0.318485736442809752589 258.86916878737793013
0.400949786901833249431 453.70155998803363673 0.400949786901833249431 279.70421464344036622
0.504765875584169521062 520.01156858613660461 0.504765875584169521062 296.67543553844251392
0.635462587779443310865 589.62955794027527645 0.635462587779443310865 308.99869316790358198
0.800000000000011368684 661.40107278824029891 0.800000000000011368684 316.42322634466427189
1.007140329435344483500 734.17925221152995618 1.007140329435344483500 319.28620796483841104
1.267914553968907398485 806.95871532478111021 1.267914553968907398485 318.46525591440922653
1.596209851975117999245 878.98760692744235712 1.596209851975117999245 315.17593889119444839
2.009509145207687197399 949.80639901801941960 2.009509145207687197399 310.71463317388577252
2.529822128134725289783 1019.23958544582944796 2.529822128134725289783 306.28623281320960814
3.184857364427983839050 1087.35287479278554201 3.184857364427983839050 302.77552940378092217
4.009497869018204596614 1154.33914772321918463 4.009497869018204596614 300.70059450651064026
5.009497869018190385759 1218.28918703381282285 5.009497869018190385759 300.24144095905137419
6.009497869018190385759 1270.10993200223447275 6.009497869018190385759 300.99646281769224743
7.009497869018204596614 1313.69156924358617289 7.009497869018204596614 302.37505005145629866
8.009497869018190385759 1351.29455055250264195 8.009497869018190385759 304.02781530708693936
9.009497869018204596614 1384.34966937585909363 9.009497869018204596614 305.80266809013693319
10.009497869018190385759 1413.82158157971002765 10.009497869018190385759 307.59179877315546037
11.009497869018190385759 1440.39294062131125429 11.009497869018190385759 309.25892765432178066
12.009497869018204596614 1464.56511146196771733 12.009497869018204596614 310.86141949221149616
13.009497869018190385759 1486.71608447572202749 13.009497869018190385759 312.38823926983707224
14.009497869018204596614 1507.14325522390936385 14.009497869018204596614 313.83549248282810140
15.009497869018190385759 1526.08071185527296620 15.009497869018190385759 315.21429606989471495
16.009497869018190385759 1543.71806305253130631 16.009497869018190385759 316.51575899334369524
17.009497869018204596614 1560.21079330937095619 17.009497869018204596614 317.72209871053274810
18.009497869018190385759 1575.68658173374842590 18.009497869018190385759 318.84699530630086883
19.009497869018204596614 1590.25136998372499875 19.009497869018204596614 319.85693422260300167
20.009497869018190385759 1603.99602088185611137 20.009497869018190385759 320.81079475320558458
21.009497869018190385759 1616.99791863862992614 21.009497869018190385759 321.71422358426656274
22.009497869018204596614 1629.32330207391350996 22.009497869018204596614 322.58505327581349320
23.009497869018190385759 1641.03588313192358328 23.009497869018190385759 323.44173815589044807
24.009497869018204596614 1652.18915289424057846 24.009497869018204596614 324.25465355338116069
25.009497869018204596614 1662.82892770954845219 25.009497869018204596614 325.03904035755920177
26.009497869018190385759 1672.99537771549012177 26.009497869018190385759 325.76697517131793802
27.009497869018204596614 1682.72514065293671592 27.009497869018204596614 326.43613898199839696
28.009497869018190385759 1692.04741287482352163 28.009497869018190385759 327.05745908613556594
29.009497869018190385759 1700.98616938231293716 29.009497869018190385759 327.64745241922901187
30.009497869018190385759 1709.56706506125874512 30.009497869018190385759 328.20365186643317656
31.009497869018218807469 1717.81536743505375853 31.009497869018218807469 328.71488738770523241
32.009497869018190385759 1725.75295030941992991 32.009497869018190385759 329.19476714025603314
33.009497869018190385759 1733.39958998811584934 33.009497869018190385759 329.68512189309143423
34.009497869018218807469 1740.77391380179437874 34.009497869018218807469 330.14559799998056633
35.009497869018190385759 1747.89170786060367391 35.009497869018190385759 330.59102522793585877
36.009497869018190385759 1754.76763107228293848 36.009497869018190385759 331.02631618245112577
37.009497869018190385759 1761.41529507684913369 37.009497869018190385759 331.44608521089043052
38.009497869018218807469 1767.84672908605807606 38.009497869018218807469 331.85035227837454386
39.009497869018190385759 1774.07321517897844387 39.009497869018190385759 332.23230857646746017
40.009497869018190385759 1780.10522641600982752 40.009497869018190385759 332.58991745895491476
41.009497869018218807469 1785.95260623657782162 41.009497869018218807469 332.94555346315831912
42.009497869018190385759 1791.62438107754428529 42.009497869018190385759 333.28208500666414693
43.009497869018190385759 1797.12892833065234299 43.009497869018190385759 333.60527986602204464
44.009497869018218807469 1802.47444264798195945 44.009497869018218807469 333.91237861959444899
46.009497869018190385759 1812.71795547681972494 46.009497869018190385759 334.49433123648049104
48.009497869018218807469 1822.40879078099305843 48.009497869018218807469 335.03969105542500984
50.009497869018190385759 1831.59365770713270649 50.009497869018190385759 335.55073602650213616
52.009497869018190385759 1840.31417366264759039 52.009497869018190385759 336.03175478370542351
54.009497869018218807469 1848.60730119626191481 54.009497869018218807469 336.48596522481693682
56.009497869018190385759 1856.50614502182747856 56.009497869018190385759 336.91176310885560952
58.009497869018218807469 1864.03999794754918184 58.009497869018218807469 337.30515883969252400
60.009497869018190385759 1871.23524827145706695 60.009497869018190385759 337.68328077510676621
62.009497869018190385759 1878.11566248707185878 62.009497869018190385759 338.04107866177133701
64.009497869018218807469 1884.70270530936363684 64.009497869018218807469 338.37882587931852640
66.009497869018190385759 1891.01577231339479113 66.009497869018190385759 338.68917195442611501
68.009497869018190385759 1897.07241571772851785 68.009497869018190385759 338.98018809775749105
70.009497869018190385759 1902.88887972167481166 70.009497869018190385759 339.26194613710913472
72.009497869018190385759 1908.47998529884648633 72.009497869018190385759 339.52790958945985267
74.009497869018218807469 1913.85928382897168376 74.009497869018218807469 339.78217235630677351
76.009497869018190385759 1919.03895196898429276 76.009497869018190385759 340.02387259209109516
78.009497869018190385759 1924.03014925382353795 78.009497869018190385759 340.24887041917463648
80.009497869018218807469 1928.84337760197809075 80.009497869018218807469 340.47195726263481674
82.009497869018190385759 1933.48873472468494583 82.009497869018190385759 340.69176377854074644
84.009497869018218807469 1937.97540613767023387 84.009497869018218807469 340.89646177180827635
86.009497869018190385759 1942.31185972887283242 86.009497869018190385759 341.09396622123881571
88.009497869018190385759 1946.50571110411760856 88.009497869018190385759 341.28489542306436988
91.009497869018218807469 1952.54456314212575307 91.009497869018218807469 341.56394908033706770
94.009497869018218807469 1958.30078991607729222 94.009497869018218807469 341.84390212472987969
97.009497869018218807469 1963.79515320854125093 97.009497869018218807469 342.14762226856447569
99.504748934509137825444 1968.17962444870681793 99.504748934509137825444 342.25936068509804500
nan nan nan nan

