Time Pressure difference Time.1 Pressure.1 difference.1
(hr) (psi) (hr) (psi)
0.000200000000020850166 0.83973388977961871 0.000200000000020850166 0.67039904289677643
0.000399999999999067768 1.67710274760454237 0.000399999999999067768 1.74574372612594564
0.000600000000019917934 2.51246267351768937 0.000600000000019917934 2.54996585139844401
0.000799999999998135536 3.34599154730758119 0.000799999999998135536 3.36620440577890490
0.001007140329434719206 4.20747716975491493 0.001007140329434719206 4.22045782433359218
0.001267914553977789183 5.28956393996044660 0.001267914553977789183 5.29991024910492747
0.001596209851982166583 6.64814400598898647 0.001596209851982166583 6.65222072757615646
0.002009509145224797066 8.35297418656084290 0.002009509145224797066 8.34475768437719978
0.002529822128153114136 10.49096701652322494 0.002529822128153114136 10.46072158884895309
0.003184857364431081805 13.17018839156501819 0.003184857364431081805 13.10246498854458252
0.004009497869034817086 16.52467628774952502 0.004009497869034817086 16.39531649523628332
0.005047658755856332391 20.72019746436948751 0.005047658755856332391 20.49187047373041892
0.006354625877790454069 25.96103864483159640 0.006354625877790454069 25.57665798828059422
0.008000000000009777068 32.49790963830766088 0.008000000000009777068 31.87099201076941313
0.010071403294361402914 40.63695874495710569 0.010071403294361402914 39.63754682178193178
0.012679145539692626699 50.74977404346529397 0.012679145539692626699 49.18403409314264252
0.015962098519750611558 63.28407557538196926 0.015962098519750611558 60.86512303330157891
0.020095091452091651263 78.77457691969425468 0.020095091452091651263 75.08081616863167085
0.025298221281360611101 97.85289425137764852 0.025298221281360611101 92.26960013294235807
0.031848573644296607199 121.25520300452376432 0.031848573644296607199 112.89387243999593124
0.040094978690191851456 149.82536395860054768 0.040094978690191851456 137.41389640899188862
0.050476587558435426217 184.51048685997071175 0.050476587558435426217 166.24725942202280748
0.063546258777947173257 226.34525455061614707 0.063546258777947173257 199.71052255951784105
0.080000000000012505552 276.42044708072484127 0.080000000000012505552 237.94168421113445788
0.100714032943542974863 335.83135672949794071 0.100714032943542974863 280.80106783217820521
0.126791455396883634421 405.60044871334480376 0.126791455396883634421 327.76985087155532028
0.159620985197506115583 486.57883375901263889 0.159620985197506115583 377.84255732570767350
0.200950914520774404082 579.31928219858980356 0.200950914520774404082 429.47506256456011897
0.252982212813464002465 683.95373366525632264 0.252982212813464002465 480.59349049402447918
0.318485736442809752589 800.07062347437658900 0.318485736442809752589 528.72066594755369806
0.400949786901833249431 926.65106494525662129 0.400949786901833249431 571.27466869599641086
0.504765875584169521062 1062.08423402138191705 0.504765875584169521062 605.93710167548545087
0.635462587779443310865 1204.27370318710768515 0.635462587779443310865 631.10642180353647746
0.800000000000011368684 1350.86158502810280879 0.800000000000011368684 646.27046835243550049
1.007140329435344483500 1499.50550300173108553 1.007140329435344483500 652.11789141909412137
1.267914553968907398485 1648.15204281485603133 1.267914553968907398485 650.44115904942964335
1.596209851975117999245 1795.26559717907912272 1.596209851975117999245 643.72297822019720570
2.009509145207687197399 1939.90761496407594677 2.009509145207687197399 634.61109927030008748
2.529822128134725289783 2081.71963815299750422 2.529822128134725289783 625.56642701849466448
3.184857364427983839050 2220.83587154647693751 3.184857364427983839050 618.39608126711618752
4.009497869018204596614 2357.65025928924160326 4.009497869018204596614 614.15818393147935694
5.009497869018190385759 2488.26336988118146110 5.009497869018190385759 613.22039759515337209
6.009497869018190385759 2594.10331566516970270 6.009497869018190385759 614.76247254280178822
7.009497869018204596614 2683.11550809144591767 7.009497869018204596614 617.57813252933794956
8.009497869018190385759 2759.91674870420183652 8.009497869018190385759 620.95378035447458842
9.009497869018204596614 2827.42932472523943943 9.009497869018204596614 624.57878270531000453
10.009497869018190385759 2887.62347268098346831 10.009497869018190385759 628.23294658517204425
11.009497869018190385759 2941.89346054170891875 11.009497869018190385759 631.63793102731176532
12.009497869018204596614 2991.26328825868586136 12.009497869018204596614 634.91089920530475865
13.009497869018190385759 3036.50497253526282293 13.009497869018190385759 638.02931293293988801
14.009497869018204596614 3078.22592127549978613 14.009497869018204596614 640.98521798007914185
15.009497869018190385759 3116.90424178925422893 15.009497869018190385759 643.80131985184550558
16.009497869018190385759 3152.92719544668534581 16.009497869018190385759 646.45945927731418124
17.009497869018204596614 3186.61234754701854399 17.009497869018204596614 648.92331676030028120
18.009497869018190385759 3218.22047299559517342 18.009497869018190385759 651.22083283771746665
19.009497869018204596614 3247.96794960312354306 19.009497869018204596614 653.28355656374060345
20.009497869018190385759 3276.04035780112417342 20.009497869018190385759 655.23174443533503108
21.009497869018190385759 3302.59574897708080243 21.009497869018190385759 657.07692938119896553
22.009497869018204596614 3327.76941090247737520 22.009497869018204596614 658.85553305423729853
23.009497869018190385759 3351.69147039671679522 23.009497869018190385759 660.60524702142481601
24.009497869018204596614 3374.47117894157054252 24.009497869018204596614 662.26556513629964229
25.009497869018204596614 3396.20211295828994480 25.009497869018204596614 663.86761576059063827
26.009497869018190385759 3416.96631690981894280 26.009497869018190385759 665.35436747111612021
27.009497869018204596614 3436.83862060630053747 27.009497869018204596614 666.72108386020272519
28.009497869018190385759 3455.87865538676032884 28.009497869018190385759 667.99008310319811699
29.009497869018190385759 3474.13538837478472487 29.009497869018190385759 669.19509978957682961
30.009497869018190385759 3491.66121773117674820 30.009497869018190385759 670.33109502416959913
31.009497869018218807469 3508.50775045826139831 31.009497869018218807469 671.37525484640400464
32.009497869018190385759 3524.71966214711801513 32.009497869018190385759 672.35537288646230536
33.009497869018190385759 3540.33734439997033405 33.009497869018190385759 673.35688532104131809
34.009497869018218807469 3555.39884212851347911 34.009497869018218807469 674.29737288480885127
35.009497869018190385759 3569.93639726680885360 35.009497869018190385759 675.20712425342037477
36.009497869018190385759 3583.97994952338967778 36.009497869018190385759 676.09617305143046906
37.009497869018190385759 3597.55729964180682146 37.009497869018190385759 676.95351949133385006
38.009497869018218807469 3610.69301637576745634 38.009497869018218807469 677.77920435037708558
39.009497869018190385759 3623.41014251706474170 39.009497869018190385759 678.55932115314874409
40.009497869018190385759 3635.73006849815328678 40.009497869018190385759 679.28971020404731007
41.009497869018218807469 3647.67289879834424937 41.009497869018218807469 680.01606980051121809
42.009497869018190385759 3659.25706923110556090 42.009497869018190385759 680.70340998330789262
43.009497869018190385759 3670.49968998442318480 43.009497869018190385759 681.36351099908745255
44.009497869018218807469 3681.41749801436344569 44.009497869018218807469 681.99073693820207609
46.009497869018190385759 3702.33909694356543696 46.009497869018190385759 683.17933107087230837
48.009497869018218807469 3722.13189389814942842 48.009497869018218807469 684.29318718592867299
50.009497869018190385759 3740.89128877153825670 50.009497869018190385759 685.33695782382551442
52.009497869018190385759 3758.70228196552898225 52.009497869018190385759 686.31940219459829677
54.009497869018218807469 3775.64036668569815447 54.009497869018218807469 687.24709261068665000
56.009497869018190385759 3791.77315680215679095 56.009497869018190385759 688.11675253142016118
58.009497869018218807469 3807.16048065650966237 58.009497869018218807469 688.92023350894771738
60.009497869018190385759 3821.85623434836998058 60.009497869018190385759 689.69251891643011732
62.009497869018190385759 3835.90895914026168612 62.009497869018190385759 690.42329399404206924
64.009497869018218807469 3849.36249508639730266 64.009497869018218807469 691.11311709897177025
66.009497869018190385759 3862.25645617947930077 66.009497869018190385759 691.74697544631260371
68.009497869018190385759 3874.62669149620933240 68.009497869018190385759 692.34135387238939074
70.009497869018190385759 3886.50637858305708505 70.009497869018190385759 692.91682332245932230
72.009497869018190385759 3897.92578815582601237 72.009497869018190385759 693.46003352513912432
74.009497869018218807469 3908.91259788099023353 74.009497869018218807469 693.97934596409322694
76.009497869018190385759 3919.49167765786478412 76.009497869018190385759 694.47300038505886732
78.009497869018190385759 3929.68581999114348946 78.009497869018190385759 694.93254140158683185
80.009497869018218807469 3939.51647425373676015 80.009497869018218807469 695.38817937883595732
82.009497869018190385759 3949.00426425587193080 82.009497869018190385759 695.83711753556497115
84.009497869018218807469 3958.16795071754449964 84.009497869018218807469 696.25519767939022131
86.009497869018190385759 3967.02482865836418569 86.009497869018190385759 696.65858555489376158
88.009497869018190385759 3975.59045237628924951 88.009497869018190385759 697.04854398528902948
91.009497869018218807469 3987.92435017512934792 91.009497869018218807469 697.61848993983994660
94.009497869018218807469 3999.68100728313947911 94.009497869018218807469 698.19027282444835691
97.009497869018218807469 4010.90282806835421070 97.009497869018218807469 698.81059820912878422
99.504748934509137825444 4019.85777841947992783 99.504748934509137825444 699.03881545986700985
nan nan nan nan

