Time Pressure difference Time.1 Pressure.1 difference.1
(hr) (psi) (hr) (psi)
0.000200000000020850166 0.01245895978901512 0.000200000000020850166 0.00994657333674743
0.000399999999999067768 0.02488283008315345 0.000399999999999067768 0.02590124222738792
0.000600000000019917934 0.03727689426584109 0.000600000000019917934 0.03783332123736564
0.000799999999998135536 0.04964379150307983 0.000799999999998135536 0.04994368554568109
0.001007140329434719206 0.06242547729606699 0.001007140329434719206 0.06261806861029068
0.001267914553977789183 0.07848017715074847 0.001267914553977789183 0.07863368322114136
0.001596209851982166583 0.09863715142416894 0.001596209851982166583 0.09869763690765811
0.002009509145224797066 0.12393136775312823 0.002009509145224797066 0.12380946119254004
0.002529822128153114136 0.15565232962200631 0.002529822128153114136 0.15520358440428714
0.003184857364431081805 0.19540338859888751 0.003184857364431081805 0.19439859033448936
0.004009497869034817086 0.24517323869064581 0.004009497869034817086 0.24325395393525642
0.005047658755856332391 0.30742132736453248 0.005047658755856332391 0.30403368655386376
0.006354625877790454069 0.38517861490848065 0.006354625877790454069 0.37947563780831739
0.008000000000009777068 0.48216483142889699 0.008000000000009777068 0.47286338294910113
0.010071403294361402914 0.60292223657206401 0.010071403294361402914 0.58809416649528079
0.012679145539692626699 0.75296400657960383 0.012679145539692626699 0.72973344351843683
0.015962098519750611558 0.93893287203830811 0.015962098519750611558 0.90304336844661093
0.020095091452091651263 1.16876226883819356 0.020095091452091651263 1.11395869686397142
0.025298221281360611101 1.45182335684536579 0.025298221281360611101 1.36898516517718627
0.031848573644296607199 1.79903862024515959 0.031848573644296607199 1.67498327062308494
0.040094978690191851456 2.22292824864392502 0.040094978690191851456 2.03878184583073985
0.050476587558435426217 2.73754431542983268 0.050476587558435426217 2.46657654928817260
0.063546258777947173257 3.35823819808035839 0.063546258777947173257 2.96306413293053161
0.080000000000012505552 4.10119357686535402 0.080000000000012505552 3.53029205061030371
0.100714032943542974863 4.98266107907267042 0.100714032943542974863 4.16618795003231845
0.126791455396883634421 6.01781081177069410 0.126791455396883634421 4.86305416723375750
0.159620985197506115583 7.21927053054914936 0.159620985197506115583 5.60597266061880894
0.200950914520774404082 8.59524157564673530 0.200950914520774404082 6.37203356920712416
0.252982212813464002465 10.14768150838659011 0.252982212813464002465 7.13046721801223260
0.318485736442809752589 11.87048402780973966 0.318485736442809752589 7.84452026628417887
0.400949786901833249431 13.74853212084950371 0.400949786901833249431 8.47588529222546683
0.504765875584169521062 15.75792632079201461 0.504765875584169521062 8.99016471328613598
0.635462587779443310865 17.86756236182652557 0.635462587779443310865 9.36359676266374485
0.800000000000011368684 20.04245675115879521 0.800000000000011368684 9.58858261650497745
1.007140329435344483500 22.24785612762212139 1.007140329435344483500 9.67533963529813335
1.267914553968907398485 24.45329440378124275 1.267914553968907398485 9.65046230043664366
1.596209851975117999245 26.63598808871037349 1.596209851975117999245 9.55078602700589130
2.009509145207687197399 28.78201209145513317 2.009509145207687197399 9.41559494466320679
2.529822128134725289783 30.88604804381301960 2.529822128134725289783 9.28140099433968402
3.184857364427983839050 32.95008711493289155 3.184857364427983839050 9.17501604253881631
4.009497869018204596614 34.97997417343088244 4.009497869018204596614 9.11213922747001881
5.009497869018190385759 36.91785415253978186 5.009497869018190385759 9.09822548360761729
6.009497869018190385759 38.48817975764346500 6.009497869018190385759 9.12110493386946253
7.009497869018204596614 39.80883543162382665 7.009497869018204596614 9.16288030458958502
8.009497869018190385759 40.94831971371220192 8.009497869018190385759 9.21296410021475687
9.009497869018204596614 41.94998998108664523 9.009497869018204596614 9.26674751788293705
10.009497869018190385759 42.84307822968818158 10.009497869018190385759 9.32096359918652873
11.009497869018190385759 43.64827092791852436 11.009497869018190385759 9.37148265619156895
12.009497869018204596614 44.38076095339296501 12.009497869018204596614 9.42004301491550144
13.009497869018190385759 45.05200255987036684 13.009497869018190385759 9.46631028090415327
14.009497869018204596614 45.67100773405785930 14.009497869018204596614 9.51016643887357738
15.009497869018190385759 46.24487005622039959 15.009497869018190385759 9.55194836575438444
16.009497869018190385759 46.77933524401610299 16.009497869018190385759 9.59138663616193021
17.009497869018204596614 47.27911494876881449 17.009497869018204596614 9.62794238516765866
18.009497869018190385759 47.74807823435601506 18.009497869018190385759 9.66203016079699495
19.009497869018204596614 48.18943545405227269 19.009497869018204596614 9.69263437038190823
20.009497869018190385759 48.60594002672291225 20.009497869018190385759 9.72153923494562378
21.009497869018190385759 48.99993692844333282 21.009497869018190385759 9.74891586618989514
22.009497869018204596614 49.37343339617919469 22.009497869018204596614 9.77530464472162031
23.009497869018190385759 49.72836009490677611 23.009497869018190385759 9.80126479260274053
24.009497869018204596614 50.06633796649214219 24.009497869018204596614 9.82589859252670195
25.009497869018204596614 50.38875538513784136 25.009497869018204596614 9.84966788962300654
26.009497869018190385759 50.69682962774211887 26.009497869018190385759 9.87172652034296760
27.009497869018204596614 50.99167092887686437 27.009497869018204596614 9.89200421157570808
28.009497869018190385759 51.27416402650979421 28.009497869018190385759 9.91083209351926087
29.009497869018190385759 51.54503543582767122 29.009497869018190385759 9.92871067937057639
30.009497869018190385759 51.80506257761389577 30.009497869018190385759 9.94556520807373268
31.009497869018218807469 52.05501113439556349 31.009497869018218807469 9.96105719356682506
32.009497869018190385759 52.29554394877030177 32.009497869018190385759 9.97559900425018320
33.009497869018190385759 52.52726030267017876 33.009497869018190385759 9.99045823918458886
34.009497869018218807469 52.75072466066043830 34.009497869018218807469 10.00441206060547294
35.009497869018190385759 52.96641538971526586 35.009497869018190385759 10.01790985539199497
36.009497869018190385759 53.17477669916008409 36.009497869018190385759 10.03110049037730533
37.009497869018190385759 53.37622106293481750 37.009497869018190385759 10.04382076396637657
38.009497869018218807469 53.57111300260782372 38.009497869018218807469 10.05607128116286475
39.009497869018190385759 53.75979439936298121 39.009497869018190385759 10.06764571443840772
40.009497869018190385759 53.94258261866696103 40.009497869018190385759 10.07848234724105829
41.009497869018218807469 54.11977594656296731 41.009497869018218807469 10.08925919585328401
42.009497869018190385759 54.29164791144073376 42.009497869018190385759 10.09945712141406382
43.009497869018190385759 54.45845237365612945 43.009497869018190385759 10.10925090503097046
44.009497869018218807469 54.62043765599945999 44.009497869018218807469 10.11855692786649996
46.009497869018190385759 54.93084713566121025 46.009497869018190385759 10.13619185565092451
48.009497869018218807469 55.22450881154524183 48.009497869018218807469 10.15271791077045371
50.009497869018190385759 55.50283811233735776 50.009497869018190385759 10.16820412201521684
52.009497869018190385759 55.76709617159538368 52.009497869018190385759 10.18278044799107462
54.009497869018218807469 56.01840306655338964 54.009497869018218807469 10.19654440075202828
56.009497869018190385759 56.25776197035840198 56.009497869018190385759 10.20944736693501831
58.009497869018218807469 56.48606054386512199 58.009497869018218807469 10.22136844968765068
60.009497869018190385759 56.70409843246839898 60.009497869018190385759 10.23282669015474866
62.009497869018190385759 56.91259583294156954 62.009497869018190385759 10.24366905035670783
64.009497869018218807469 57.11220319119283317 64.009497869018218807469 10.25390381452480426
66.009497869018190385759 57.30350825192105901 66.009497869018190385759 10.26330824104321593
68.009497869018190385759 57.48704290053722588 68.009497869018190385759 10.27212691205325612
70.009497869018190385759 57.66329938550529732 70.009497869018190385759 10.28066503445785251
72.009497869018190385759 57.83272682723777081 72.009497869018190385759 10.28872453301393364
74.009497869018218807469 57.99573587360519866 74.009497869018218807469 10.29642946534263004
76.009497869018190385759 58.15269551421165062 76.009497869018190385759 10.30375371491185099
78.009497869018190385759 58.30394391678253641 78.009497869018190385759 10.31057183088407925
80.009497869018218807469 58.44979932127206013 80.009497869018218807469 10.31733203826165912
82.009497869018190385759 58.59056771892984017 82.009497869018190385759 10.32399284177396126
84.009497869018218807469 58.72652745871727831 84.009497869018218807469 10.33019581126691833
86.009497869018190385759 58.85793514329917286 86.009497869018190385759 10.33618079458299377
88.009497869018190385759 58.98502154860963032 88.009497869018190385759 10.34196652797164795
91.009497869018218807469 59.16801706491289536 91.009497869018218807469 10.35042269940415238
94.009497869018218807469 59.34244817927505977 94.009497869018218807469 10.35890612499181529
97.009497869018218807469 59.50894403662245935 97.009497869018218807469 10.36810976571407572
99.504748934509137825444 59.64180680147595837 99.504748934509137825444 10.37149577833630509
nan nan nan nan

