Time Pressure difference Time.1 Pressure.1 difference.1
(hr) (psi) (hr) (psi)
0.000200000000020850166 0.01328955710828279 0.000200000000020850166 0.01060967822586392
0.000399999999999067768 0.02654168542203034 0.000399999999999067768 0.02762799170921378
0.000600000000019917934 0.03976202055023050 0.000600000000019917934 0.04035554265319002
0.000799999999998135536 0.05295337760328516 0.000799999999998135536 0.05327326458205982
0.001007140329434719206 0.06658717578247146 0.001007140329434719206 0.06679260651764339
0.001267914553977789183 0.08371218896079836 0.001267914553977789183 0.08387592876921746
0.001596209851982166583 0.10521296151911354 0.001596209851982166583 0.10527747936816864
0.002009509145224797066 0.13219345893667012 0.002009509145224797066 0.13206342527204271
0.002529822128153114136 0.16602915159680673 0.002529822128153114136 0.16555049003123962
0.003184857364431081805 0.20843028117214668 0.003184857364431081805 0.20735849635678866
0.004009497869034817086 0.26151812127002216 0.004009497869034817086 0.25947088419760689
0.005047658755856332391 0.32791608252216797 0.005047658755856332391 0.32430259899078806
0.006354625877790454069 0.41085718923571274 0.006354625877790454069 0.40477401366220522
0.008000000000009777068 0.51430915352415685 0.008000000000009777068 0.50438760847904118
0.010071403294361402914 0.64311705234353489 0.010071403294361402914 0.62730044426163289
0.012679145539692626699 0.80316160701824402 0.012679145539692626699 0.77838233975299931
0.015962098519750611558 1.00152839684086192 0.015962098519750611558 0.96324625967638500
0.020095091452091651263 1.24667975342740678 0.020095091452091651263 1.18822260998823626
0.025298221281360611101 1.54861158063505666 0.025298221281360611101 1.46025084285566531
0.031848573644296607199 1.91897452826150361 0.031848573644296607199 1.78664882199795727
0.040094978690191851456 2.37112346522018669 0.040094978690191851456 2.17470063555278914
0.050476587558435426217 2.92004726979182117 0.050476587558435426217 2.63101498590738370
0.063546258777947173257 3.58212074461904884 0.063546258777947173257 3.16060174179256714
0.080000000000012505552 4.37460648198971036 0.080000000000012505552 3.76564485398432369
0.100714032943542974863 5.31483848434418071 0.100714032943542974863 4.44393381336780635
0.126791455396883634421 6.41899819922207371 0.126791455396883634421 5.18725777838267543
0.159620985197506115583 7.70055523258576002 0.159620985197506115583 5.97970417132672871
0.200950914520774404082 9.16825768068984992 0.200950914520774404082 6.79683580715426494
0.252982212813464002465 10.82419360894569671 0.252982212813464002465 7.60583169921304858
0.318485736442809752589 12.66184962966372396 0.318485736442809752589 8.36748828403645817
0.400949786901833249431 14.66510092890613670 0.400949786901833249431 9.04094431170716284
0.504765875584169521062 16.80845474217815294 0.504765875584169521062 9.58950902750521195
0.635462587779443310865 19.05873318594829158 0.635462587779443310865 9.98783654684132749
0.800000000000011368684 21.37862053456938227 0.800000000000011368684 10.22782145760530881
1.007140329435344483500 23.73104653613026471 1.007140329435344483500 10.32036227765134129
1.267914553968907398485 26.08351403069999463 1.267914553968907398485 10.29382645379908467
1.596209851975117999245 28.41172062795773101 1.596209851975117999245 10.18750509547295202
2.009509145207687197399 30.70081289755214016 2.009509145207687197399 10.04330127430741904
2.529822128134725289783 32.94511791340055140 2.529822128134725289783 9.90016106062899759
3.184857364427983839050 35.14675958926175525 3.184857364427983839050 9.78668377870807049
4.009497869018204596614 37.31197245165960652 4.009497869018204596614 9.71961517596801983
5.009497869018190385759 39.37904442937576732 5.009497869018190385759 9.70477384918145880
6.009497869018190385759 41.05405840815303264 6.009497869018190385759 9.72917859612742575
7.009497869018204596614 42.46275779373208081 7.009497869018204596614 9.77373899156222237
8.009497869018190385759 43.67820769462634445 8.009497869018190385759 9.82716170689574042
9.009497869018204596614 44.74665597982575349 9.009497869018204596614 9.88453068574179916
10.009497869018190385759 45.69928344500073081 10.009497869018190385759 9.94236117246563111
11.009497869018190385759 46.55815565644642362 11.009497869018190385759 9.99624816660434057
12.009497869018204596614 47.33947835028583029 12.009497869018204596614 10.04804588257653464
13.009497869018190385759 48.05546939719505417 13.009497869018190385759 10.09739763296443016
14.009497869018204596614 48.71574158299505086 14.009497869018204596614 10.14417753479848372
15.009497869018190385759 49.32786139330175246 15.009497869018190385759 10.18874492347134364
16.009497869018190385759 49.89795759361717131 16.009497869018190385759 10.23081241190605972
17.009497869018204596614 50.43105594535340686 17.009497869018204596614 10.26980521084550446
18.009497869018190385759 50.93128344997974466 18.009497869018190385759 10.30616550485012795
19.009497869018204596614 51.40206448432243036 19.009497869018204596614 10.33880999507403509
20.009497869018190385759 51.84633602850443879 20.009497869018190385759 10.36964185060866583
21.009497869018190385759 52.26659939033955737 21.009497869018190385759 10.39884359060255470
22.009497869018204596614 52.66499562259113532 22.009497869018204596614 10.42699162103639665
23.009497869018190385759 53.04358410123388978 23.009497869018190385759 10.45468244544292524
24.009497869018204596614 53.40409383092494977 24.009497869018204596614 10.48095849869514851
25.009497869018204596614 53.74800574414702936 25.009497869018204596614 10.50631241559787377
26.009497869018190385759 54.07661826959159868 26.009497869018190385759 10.52984162169916615
27.009497869018204596614 54.39111565746866006 27.009497869018204596614 10.55147115901408839
28.009497869018190385759 54.69244162827711619 28.009497869018190385759 10.57155423308721076
29.009497869018190385759 54.98137113154950839 29.009497869018190385759 10.59062472466194649
30.009497869018190385759 55.25873341612149403 30.009497869018190385759 10.60860288861198164
31.009497869018218807469 55.52534521002193912 31.009497869018218807469 10.62512767313794804
32.009497869018190385759 55.78191354535498192 32.009497869018190385759 10.64063893786686243
33.009497869018190385759 56.02907765618152780 33.009497869018190385759 10.65648878846356240
34.009497869018218807469 56.26743963803779991 34.009497869018218807469 10.67137286464583745
35.009497869018190385759 56.49750974902961076 35.009497869018190385759 10.68577051241812725
36.009497869018190385759 56.71976181243741877 36.009497869018190385759 10.69984052306912581
37.009497869018190385759 56.93463580046380912 37.009497869018190385759 10.71340881489746799
38.009497869018218807469 57.14252053611501481 38.009497869018218807469 10.72647603324038812
39.009497869018190385759 57.34378069265384426 39.009497869018190385759 10.73882209540096966
40.009497869018190385759 57.53875479324475606 40.009497869018190385759 10.75038117039046170
41.009497869018218807469 57.72776100966716939 41.009497869018218807469 10.76187647557683569
42.009497869018190385759 57.91109110553678363 42.009497869018190385759 10.77275426284166748
43.009497869018190385759 58.08901586523320759 43.009497869018190385759 10.78320096536636896
44.009497869018218807469 58.26180016639941783 44.009497869018218807469 10.79312738972426544
46.009497869018190385759 58.59290361137195191 46.009497869018190385759 10.81193797936098555
48.009497869018218807469 58.90614273231492604 48.009497869018218807469 10.82956577148848432
50.009497869018190385759 59.20302731982651778 50.009497869018190385759 10.84608439681623082
52.009497869018190385759 59.48490258303507261 52.009497869018190385759 10.86163247785714425
54.009497869018218807469 59.75296327099028559 54.009497869018218807469 10.87631402746882969
56.009497869018190385759 60.00827943504896922 56.009497869018190385759 10.89007719139735109
58.009497869018218807469 60.25179791345613722 58.009497869018218807469 10.90279301300016179
60.009497869018190385759 60.48437166129962606 60.009497869018190385759 10.91501513616506536
62.009497869018190385759 60.70676888847101083 62.009497869018190385759 10.92658032038048788
64.009497869018218807469 60.91968340393902537 64.009497869018218807469 10.93749740215979038
66.009497869018190385759 61.12374213538245726 66.009497869018190385759 10.94752879044609628
68.009497869018190385759 61.31951242723970807 68.009497869018190385759 10.95693537285680641
70.009497869018190385759 61.50751934453898429 70.009497869018190385759 10.96604270342171006
72.009497869018190385759 61.68824194905361935 72.009497869018190385759 10.97463950188152992
74.009497869018218807469 61.86211826517887857 74.009497869018218807469 10.98285809636547228
76.009497869018190385759 62.02954188182575734 76.009497869018190385759 10.99067062923930926
78.009497869018190385759 62.19087351123470597 78.009497869018190385759 10.99794328627634954
80.009497869018218807469 62.34645260935686650 80.009497869018218807469 11.00515417414577080
82.009497869018190385759 62.49660556685849855 82.009497869018190385759 11.01225903122555749
84.009497869018218807469 62.64162928929842877 84.009497869018218807469 11.01887553201804693
86.009497869018190385759 62.78179748618578770 86.009497869018190385759 11.02525951422185990
88.009497869018190385759 62.91735631851693711 88.009497869018190385759 11.03143096316975580
91.009497869018218807469 63.11255153590709455 91.009497869018218807469 11.04045087936443004
94.009497869018218807469 63.29861139122673563 94.009497869018218807469 11.04949986665793737
97.009497869018218807469 63.47620697239729282 97.009497869018218807469 11.05931708342834874
99.504748934509137825444 63.61792725490769129 99.504748934509137825444 11.06292883022539186
nan nan nan nan

