Time Pressure difference Time.1 Pressure.1 difference.1
(hr) (psi) (hr) (psi)
0.000200000000020850166 0.14701572551037834 0.000200000000020850166 0.11736956537361960
0.000399999999999067768 0.29361739498121070 0.000399999999999067768 0.30563465828317743
0.000600000000019917934 0.43986735233692487 0.000600000000019917934 0.44643319060091452
0.000799999999998135536 0.58579673973634205 0.000799999999998135536 0.58933548943903680
0.001007140329434719206 0.73662063209359052 0.001007140329434719206 0.73889320960143001
0.001267914553977789183 0.92606609037883203 0.001267914553977789183 0.92787746200946808
0.001596209851982166583 1.16391838680519366 0.001596209851982166583 1.16463211551036561
0.002009509145224797066 1.46239013948691321 0.002009509145224797066 1.46095164207197237
0.002529822128153114136 1.83669748953967438 0.002529822128153114136 1.83140229597058823
0.003184857364431081805 2.30575998546687266 0.003184857364431081805 2.29390336594697430
0.004009497869034817086 2.89304421654962018 0.004009497869034817086 2.87039665643602593
0.005047658755856332391 3.62757166290148314 0.005047658755856332391 3.58759750133559274
0.006354625877790454069 4.54510765592007182 0.006354625877790454069 4.47781252613814562
0.008000000000009777068 5.68954501086098485 0.008000000000009777068 5.57978791879939351
0.010071403294361402914 7.11448239155035544 0.010071403294361402914 6.93951116464431372
0.012679145539692626699 8.88497527763932560 0.012679145539692626699 8.61085463351755465
0.015962098519750611558 11.07940789005203541 0.015962098519750611558 10.65591174767000915
0.020095091452091651263 13.79139477229068689 0.020095091452091651263 13.14471262299486298
0.025298221281360611101 17.13151561077531682 0.025298221281360611101 16.15402494909079678
0.031848573644296607199 21.22865571889288105 0.031848573644296607199 19.76480259335240319
0.040094978690191851456 26.23055333399831568 0.040094978690191851456 24.05762578080273073
0.050476587558435426217 32.30302292207202441 0.050476587558435426217 29.10560328160043397
0.063546258777947173257 39.62721073734822852 0.063546258777947173257 34.96415676858027410
0.080000000000012505552 48.39408420701116853 0.080000000000012505552 41.65744619720157971
0.100714032943542974863 58.79540073305749814 0.100714032943542974863 49.16101781038135954
0.126791455396883634421 71.01016757889418329 0.126791455396883634421 57.38403917335834592
0.159620985197506115583 85.18739226047996738 0.159620985197506115583 66.15047739530193383
0.200950914520774404082 101.42385059263146729 0.200950914520774404082 75.18999611664405336
0.252982212813464002465 119.74264179896178462 0.252982212813464002465 84.13951317254434059
0.318485736442809752589 140.07171152815493542 0.318485736442809752589 92.56533914215332004
0.400949786901833249431 162.23267902602412960 0.400949786901833249431 100.01544644826049080
0.504765875584169521062 185.94353058534579759 0.504765875584169521062 106.08394361677640916
0.635462587779443310865 210.83723586955298401 0.635462587779443310865 110.49044179943219035
0.800000000000011368684 236.50098966367377784 0.800000000000011368684 113.14527487475874068
1.007140329435344483500 262.52470230594104805 1.007140329435344483500 114.16900769651796566
1.267914553968907398485 288.54887396461867866 1.267914553968907398485 113.87545514515237244
1.596209851975117999245 314.30465944678240930 1.596209851975117999245 112.69927511866951875
2.009509145207687197399 339.62774267917058069 2.009509145207687197399 111.10402034702582341
2.529822128134725289783 364.45536691699356879 2.529822128134725289783 109.52053173320828705
3.184857364427983839050 388.81102795620813595 3.184857364427983839050 108.26518930195803136
4.009497869018204596614 412.76369524648441711 4.009497869018204596614 107.52324288414622799
5.009497869018190385759 435.63067899996946153 5.009497869018190385759 107.35906070656987765
6.009497869018190385759 454.16052114019288410 6.009497869018190385759 107.62903821965964823
7.009497869018204596614 469.74425809316113600 7.009497869018204596614 108.12198759415709048
8.009497869018190385759 483.19017262180398120 8.009497869018190385759 108.71297638253412288
9.009497869018204596614 495.00988177682245350 9.009497869018204596614 109.34762071101864933
10.009497869018190385759 505.54832311032060943 10.009497869018190385759 109.98737047040103221
11.009497869018190385759 515.04959694943863724 11.009497869018190385759 110.58349534306051964
12.009497869018204596614 523.69297925003695582 12.009497869018204596614 111.15650757600290888
13.009497869018190385759 531.61363020647036137 13.009497869018190385759 111.70246131466900863
14.009497869018204596614 538.91789126188268710 14.009497869018204596614 112.21996397870822193
15.009497869018190385759 545.68946666340059437 15.009497869018190385759 112.71299071590173924
16.009497869018190385759 551.99615587939001671 16.009497869018190385759 113.17836230671079534
17.009497869018204596614 557.89355639547204646 17.009497869018204596614 113.60972014497838245
18.009497869018190385759 563.42732316540093507 18.009497869018190385759 114.01195589740454750
19.009497869018204596614 568.63533835781697690 19.009497869018204596614 114.37308557050651814
20.009497869018190385759 573.55009231533040293 20.009497869018190385759 114.71416297235835202
21.009497869018190385759 578.19925575563138409 21.009497869018190385759 115.03720722104075946
22.009497869018204596614 582.60651407491445752 22.009497869018204596614 115.34859480771513063
23.009497869018190385759 586.79464911989987286 23.009497869018190385759 115.65492455271235883
24.009497869018204596614 590.78278800460725506 24.009497869018204596614 115.94560339181506947
25.009497869018204596614 594.58731354462645413 25.009497869018204596614 116.22608109755147154
26.009497869018190385759 598.22258960735700839 26.009497869018190385759 116.48637294004701914
27.009497869018204596614 601.70171696074703505 27.009497869018204596614 116.72564969659335077
28.009497869018190385759 605.03513551281560012 28.009497869018190385759 116.94781870352728959
29.009497869018190385759 608.23141814276641526 29.009497869018190385759 117.15878601657279034
30.009497869018190385759 611.29973841584398997 30.009497869018190385759 117.35766945527004168
31.009497869018218807469 614.24913138586771311 31.009497869018218807469 117.54047488408853894
32.009497869018190385759 617.08741859548956654 32.009497869018190385759 117.71206825015217134
33.009497869018190385759 619.82167157150809089 33.009497869018190385759 117.88740722237815817
34.009497869018218807469 622.45855099579307534 34.009497869018218807469 118.05206231514459603
35.009497869018190385759 625.00370159864007746 35.009497869018190385759 118.21133629362553563
36.009497869018190385759 627.46236505008891982 36.009497869018190385759 118.36698578645220437
37.009497869018190385759 629.83940854263096298 37.009497869018190385759 118.51708501480325708
38.009497869018218807469 632.13913343077229001 38.009497869018218807469 118.66164111772179979
39.009497869018190385759 634.36557391248322801 39.009497869018190385759 118.79821943037322285
40.009497869018190385759 636.52247490027014010 40.009497869018190385759 118.92609169744447684
41.009497869018218807469 638.61335616944313642 41.009497869018218807469 119.05325851106874779
42.009497869018190385759 640.64144535500065558 42.009497869018190385759 119.17359403268594065
43.009497869018190385759 642.60973800914234744 43.009497869018190385759 119.28916067936545176
44.009497869018218807469 644.52116434079346163 44.009497869018218807469 119.39897174882469244
46.009497869018190385759 648.18399620080219847 46.009497869018190385759 119.60706389668089855
48.009497869018218807469 651.64920397623393455 48.009497869018218807469 119.80207134709137051
50.009497869018190385759 654.93348972558089827 50.009497869018190385759 119.98480863977954414
52.009497869018190385759 658.05173482482553027 52.009497869018190385759 120.15680928629465996
54.009497869018218807469 661.01715618533000907 54.009497869018218807469 120.31922392887392448
56.009497869018190385759 663.84159125022927128 56.009497869018190385759 120.47147892983321071
58.009497869018218807469 666.53551441760851048 58.009497869018218807469 120.61214770631428905
60.009497869018190385759 669.10836150312707105 60.009497869018190385759 120.74735494382603918
62.009497869018190385759 671.56863082871052484 62.009497869018190385759 120.87529479420913958
64.009497869018218807469 673.92399765607547124 64.009497869018218807469 120.99606501139268744
66.009497869018190385759 676.18139737266847078 66.009497869018190385759 121.10703724430992168
68.009497869018190385759 678.34710622633929233 68.009497869018190385759 121.21109756222841725
70.009497869018190385759 680.42693274896248568 70.009497869018190385759 121.31184740660266641
72.009497869018190385759 682.42617656140566851 72.009497869018190385759 121.40694948956441124
74.009497869018218807469 684.34968330854133001 74.009497869018218807469 121.49786769104302664
76.009497869018190385759 686.20180706769747303 76.009497869018190385759 121.58429383595985485
78.009497869018190385759 687.98653821803395658 78.009497869018190385759 121.66474760443212233
80.009497869018218807469 689.70763199101043028 80.009497869018218807469 121.74451805148758865
82.009497869018190385759 691.36869908337212109 82.009497869018190385759 121.82311553293273221
84.009497869018218807469 692.97302401286390250 84.009497869018218807469 121.89631057294963057
86.009497869018190385759 694.52363469093018011 86.009497869018190385759 121.96693337607931085
88.009497869018190385759 696.02325427359357946 88.009497869018190385759 122.03520503006544118
91.009497869018218807469 698.18260136597223209 91.009497869018218807469 122.13498785296900451
94.009497869018218807469 700.24088851544570389 94.009497869018218807469 122.23509227490342255
97.009497869018218807469 702.20553963214501891 97.009497869018218807469 122.34369523542608249
99.504748934509137825444 703.77332025741634425 99.504748934509137825444 122.38365018436840614
nan nan nan nan

