Time Pressure difference Time.1 Pressure.1 difference.1
(hr) (psi) (hr) (psi)
0.000200000000020850166 0.42692702210358457 0.000200000000020850166 0.34083591300587840
0.000399999999999067768 0.85265164418272488 0.000399999999999067768 0.88754923365849270
0.000600000000019917934 1.27735491017615455 0.000600000000019917934 1.29642180773372928
0.000799999999998135536 1.70112725550553590 0.000799999999998135536 1.71140362469867191
0.001007140329434719206 2.13911302201189590 0.001007140329434719206 2.14571248437929407
0.001267914553977789183 2.68925407036564756 0.001267914553977789183 2.69451421171111116
0.001596209851982166583 3.37996638880152256 0.001596209851982166583 3.38203902470241768
0.002009509145224797066 4.24671486834052736 0.002009509145224797066 4.24253753686437207
0.002529822128153114136 5.33368649504741654 0.002529822128153114136 5.31830949225357230
0.003184857364431081805 6.69582278265521236 0.003184857364431081805 6.66139169546183574
0.004009497869034817086 8.40126964579946112 0.004009497869034817086 8.33550215484812007
0.005047658755856332391 10.53430415102464757 0.005047658755856332391 10.41822099257906586
0.006354625877790454069 13.19878720419727181 0.006354625877790454069 13.00336518889834281
0.008000000000009777068 16.52218155696353818 0.008000000000009777068 16.20345192238919907
0.010071403294361402914 20.66013530653605912 0.010071403294361402914 20.15202677190495706
0.012679145539692626699 25.80156662546108848 0.012679145539692626699 25.00553266456510215
0.015962098519750611558 32.17409974851268828 0.015962098519750611558 30.94428609210386938
0.020095091452091651263 40.04958707885543845 0.020095091452091651263 38.17165134587208541
0.025298221281360611101 49.74914702790120202 0.025298221281360611101 46.91055832673824710
0.031848573644296607199 61.64705672040080486 0.031848573644296607199 57.39609340668437909
0.040094978690191851456 76.17234132019849824 0.040094978690191851456 69.86225791713336264
0.050476587558435426217 93.80651854206226403 0.050476587558435426217 84.52135642227470669
0.063546258777947173257 115.07562892088694184 0.063546258777947173257 101.53433095508621875
0.080000000000012505552 140.53423323391945132 0.080000000000012505552 120.97134093424639900
0.100714032943542974863 170.73918630955682829 0.100714032943542974863 142.76137375444079680
0.126791455396883634421 206.21031715000910367 0.126791455396883634421 166.64065613054344794
0.159620985197506115583 247.38033684681755631 0.159620985197506115583 192.09799650387114411
0.200950914520774404082 294.53027799216141602 0.200950914520774404082 218.34835030483077389
0.252982212813464002465 347.72721968738051146 0.252982212813464002465 244.33734333721918119
0.318485736442809752589 406.76191935294713176 0.318485736442809752589 268.80556112467121466
0.400949786901833249431 471.11636734110965108 0.400949786901833249431 290.44033601359262775
0.504765875584169521062 539.97160859247310327 0.504765875584169521062 308.06297750860488804
0.635462587779443310865 612.26180359858892643 0.635462587779443310865 320.85924906727768757
0.800000000000011368684 686.78818467304142814 0.800000000000011368684 328.56876432557061207
1.007140329435344483500 762.35986997318468639 1.007140329435344483500 331.54163816954940103
1.267914553968907398485 837.93288823623731787 1.267914553968907398485 330.68917482829562005
1.596209851975117999245 912.72652517314213583 1.596209851975117999245 327.27360119206855416
2.009509145207687197399 986.26361433386250610 2.009509145207687197399 322.64105343712589047
2.529822128134725289783 1058.36191296799256634 2.529822128134725289783 318.04267407270651802
3.184857364427983839050 1129.08965180503378178 3.184857364427983839050 314.39721639099673212
4.009497869018204596614 1198.64711500956491363 4.009497869018204596614 312.24263752797264715
5.009497869018190385759 1265.05180229369648259 5.009497869018190385759 311.76585990495436818
6.009497869018190385759 1318.86162636191602360 6.009497869018190385759 312.54986240059361080
7.009497869018204596614 1364.11609412364327909 7.009497869018204596614 313.98136510393641174
8.009497869018190385759 1403.16242218987144952 8.009497869018190385759 315.69756983402561445
9.009497869018204596614 1437.48632335190222875 9.009497869018204596614 317.54054827945532224
10.009497869018190385759 1468.08948067064852694 10.009497869018190385759 319.39835266545833292
11.009497869018190385759 1495.68075046334161016 11.009497869018190385759 321.12947235216444142
12.009497869018204596614 1520.78074200293212925 12.009497869018204596614 322.79347397777115702
13.009497869018190385759 1543.78195438489115077 13.009497869018190385759 324.37889895898234727
14.009497869018204596614 1564.99319835371602494 14.009497869018204596614 325.88170330540128816
15.009497869018190385759 1584.65754725981878437 15.009497869018190385759 327.31343066651692197
16.009497869018190385759 1602.97188769495164706 16.009497869018190385759 328.66484873248219856
17.009497869018204596614 1620.09767224447796252 17.009497869018204596614 329.91749239841180952
18.009497869018190385759 1636.16748083059951568 18.009497869018190385759 331.08556684331040287
19.009497869018204596614 1651.29132155885804423 19.009497869018204596614 332.13427109175336227
20.009497869018190385759 1665.56354491570505161 20.009497869018190385759 333.12474445080334817
21.009497869018190385759 1679.06450541465824244 21.009497869018190385759 334.06285034810707657
22.009497869018204596614 1691.86298437574032505 22.009497869018204596614 334.96710582579419224
23.009497869018190385759 1704.02513925213861512 23.009497869018190385759 335.85667355985395943
24.009497869018204596614 1715.60651431846417836 24.009497869018204596614 336.70079177058164532
25.009497869018204596614 1726.65468453072321608 25.009497869018204596614 337.51528635108167009
26.009497869018190385759 1737.21136191063010301 26.009497869018190385759 338.27116209708572114
27.009497869018204596614 1747.31459049618047175 27.009497869018204596614 338.96601098332757829
28.009497869018190385759 1756.99468730840226272 28.009497869018190385759 339.61117973792664770
29.009497869018190385759 1766.27654760102814180 29.009497869018190385759 340.22381927976505267
30.009497869018190385759 1775.18681099290279235 30.009497869018190385759 340.80136779665986069
31.009497869018218807469 1783.75171487195484588 31.009497869018218807469 341.33222649955655470
32.009497869018190385759 1791.99397264452886702 32.009497869018190385759 341.83052587897293506
33.009497869018190385759 1799.93411970483134610 33.009497869018190385759 342.33970232939191192
34.009497869018218807469 1807.59149837196423505 34.009497869018218807469 342.81785327674754171
35.009497869018190385759 1814.98250068757624831 35.009497869018190385759 343.28037771143232249
36.009497869018190385759 1822.12234822455206995 36.009497869018190385759 343.73237680359568458
37.009497869018190385759 1829.02517508989990347 37.009497869018190385759 344.16825817858119763
38.009497869018218807469 1835.70347222269469967 38.009497869018218807469 344.58804256784742392
39.009497869018190385759 1842.16895475150499806 39.009497869018190385759 344.98465981475612807
40.009497869018190385759 1848.43249773298771288 40.009497869018190385759 345.35599509879358493
41.009497869018218807469 1854.50432243555769674 41.009497869018218807469 345.72528177790582049
42.009497869018190385759 1860.39380176536906220 42.009497869018190385759 346.07473069378858099
43.009497869018190385759 1866.10963467061674237 43.009497869018190385759 346.41033101239463576
44.009497869018218807469 1871.66033034558131476 44.009497869018218807469 346.72921739489203219
46.009497869018190385759 1882.29702851532397290 46.009497869018190385759 347.33350758697167748
48.009497869018218807469 1892.35983527561711526 48.009497869018218807469 347.89980040906760905
50.009497869018190385759 1901.89725264942694594 50.009497869018190385759 348.43046124772138228
52.009497869018190385759 1910.95249548000174400 52.009497869018190385759 348.92994335116082993
54.009497869018218807469 1919.56394508056291670 54.009497869018218807469 349.40158813243613167
56.009497869018190385759 1927.76597685094793633 56.009497869018190385759 349.84372977363989321
58.009497869018218807469 1935.58900796977832215 58.009497869018218807469 350.25222554263018537
60.009497869018190385759 1943.06043961925024632 60.009497869018190385759 350.64486124930272126
62.009497869018190385759 1950.20495054213097319 62.009497869018190385759 351.01639279222320056
64.009497869018218807469 1957.04482935154123879 64.009497869018218807469 351.36710404438326805
66.009497869018190385759 1963.60021609916157104 66.009497869018190385759 351.68936239308084168
68.009497869018190385759 1969.88933672507550909 68.009497869018190385759 351.99154885302488083
70.009497869018190385759 1975.92905894331511263 70.009497869018190385759 352.28412184742239788
72.009497869018190385759 1981.73477261334755894 72.009497869018190385759 352.56029399794408619
74.009497869018218807469 1987.32054926887144575 74.009497869018218807469 352.82431634574078316
76.009497869018190385759 1992.69903295365270424 76.009497869018190385759 353.07529396431283431
78.009497869018190385759 1997.88181154841504394 78.009497869018190385759 353.30892807162774716
80.009497869018218807469 2002.87979007558942612 80.009497869018218807469 353.54057784443290302
82.009497869018190385759 2007.70345383532935557 82.009497869018190385759 353.76882137812106066
84.009497869018218807469 2012.36234091871187957 84.009497869018218807469 353.98137646607978013
86.009497869018190385759 2016.86524424371827990 86.009497869018190385759 354.18646189437725980
88.009497869018190385759 2021.22007173235670052 88.009497869018190385759 354.38471969182842258
91.009497869018218807469 2027.49071809101542385 91.009497869018218807469 354.67448449958232004
94.009497869018218807469 2033.46789094315863622 94.009497869018218807469 354.96518321638620819
97.009497869018218807469 2039.17314898826316494 97.009497869018218807469 355.28056130513567723
99.504748934509137825444 2043.72591306390972932 99.504748934509137825444 355.39658867099075223
nan nan nan nan

