Time Pressure difference Time.1 Pressure.1 difference.1
(hr) (psi) (hr) (psi)
0.000200000000020850166 0.38705835077873624 0.000200000000020850166 0.30900687832828666
0.000399999999999067768 0.77302658791663370 0.000399999999999067768 0.80466525853085136
0.000600000000019917934 1.15806884852546310 0.000600000000019917934 1.17535517977415926
0.000799999999998135536 1.54226712269568011 0.000799999999998135536 1.55158383095249230
0.001007140329434719206 1.93935149466448142 0.001007140329434719206 1.94533466482636386
0.001267914553977789183 2.43811750348325251 0.001267914553977789183 2.44288642540345835
0.001596209851982166583 3.06432750424418199 0.001596209851982166583 3.06620658659791179
0.002009509145224797066 3.85013449153051690 0.002009509145224797066 3.84634726104824409
0.002529822128153114136 4.83559904025699616 0.002529822128153114136 4.82165802215985373
0.003184857364431081805 6.07053193913877198 0.003184857364431081805 6.03931620639146960
0.004009497869034817086 7.61671528198939463 0.004009497869034817086 7.55708950225529996
0.005047658755856332391 9.55055590345814132 0.005047658755856332391 9.44531319560670291
0.006354625877790454069 11.96621563649013353 0.006354625877790454069 11.78904314791172681
0.008000000000009777068 14.97925409639106853 0.008000000000009777068 14.69028909695207652
0.010071403294361402914 18.73078414950545323 0.010071403294361402914 18.27012543912006137
0.012679145539692626699 23.39208180440635587 0.012679145539692626699 22.67038564530610500
0.015962098519750611558 29.16951455799010517 0.015962098519750611558 28.05454731307471405
0.020095091452091651263 36.30954781857321478 0.020095091452091651263 34.60698351590737332
0.025298221281360611101 45.10331228599602582 0.025298221281360611101 42.52980579817125317
0.031848573644296607199 55.89013313561628848 0.031848573644296607199 52.03614694069050728
0.040094978690191851456 69.05897092453793107 0.040094978690191851456 63.33815601047498234
0.050476587558435426217 85.04637673268679521 0.050476587558435426217 76.62831146455255293
0.063546258777947173257 104.32926668702980066 0.063546258777947173257 92.05252572970852043
0.080000000000012505552 127.41041378795031846 0.080000000000012505552 109.67440637229343281
0.100714032943542974863 154.79467085652427727 0.100714032943542974863 129.42957231433734933
0.126791455396883634421 186.95332255234288255 0.126791455396883634421 151.07888279539542964
0.159620985197506115583 224.27867114906024426 0.159620985197506115583 174.15888398989096686
0.200950914520774404082 267.02550495009188580 0.200950914520774404082 197.95784288336795953
0.252982212813464002465 315.25463886054342311 0.252982212813464002465 221.51984823958002835
0.318485736442809752589 368.77637046395591369 0.318485736442809752589 243.70309627256185081
0.400949786901833249431 427.12106455439123920 0.400949786901833249431 263.31750307847113390
0.504765875584169521062 489.54624436593871906 0.504765875584169521062 279.29445042608926997
0.635462587779443310865 555.08560404074398775 0.635462587779443310865 290.89573942675372109
0.800000000000011368684 622.65232306933319251 0.800000000000011368684 297.88529995275462170
1.007140329435344483500 691.16673036479392067 1.007140329435344483500 300.58055133659530611
1.267914553968907398485 759.68234614413722738 1.267914553968907398485 299.80769546689833760
1.596209851975117999245 827.49136328926897477 1.596209851975117999245 296.71108590564972474
2.009509145207687197399 894.16117564120611405 2.009509145207687197399 292.51114961420358895
2.529822128134725289783 959.52655922779104003 2.529822128134725289783 288.34219089081955190
3.184857364427983839050 1023.64937303724866524 3.184857364427983839050 285.03716505487255972
4.009497869018204596614 1086.71119765458593065 4.009497869018204596614 283.08379200006862675
5.009497869018190385759 1146.91466900556929431 5.009497869018190385759 282.65153835741000421
6.009497869018190385759 1195.69945113745689014 6.009497869018190385759 283.36232661221129092
7.009497869018204596614 1236.72782074244696560 7.009497869018204596614 284.66014812924976241
8.009497869018190385759 1272.12779910599238065 8.009497869018190385759 286.21608471333837542
9.009497869018204596614 1303.24635541242514591 9.009497869018204596614 287.88695622222991233
10.009497869018190385759 1330.99163033564627767 10.009497869018190385759 289.57126914806150353
11.009497869018190385759 1356.00628349400221850 11.009497869018190385759 291.14072785235140373
12.009497869018204596614 1378.76230695207459576 12.009497869018204596614 292.64933633004153535
13.009497869018190385759 1399.61554619330604510 13.009497869018190385759 294.08670606008905679
14.009497869018204596614 1418.84597360473094341 14.009497869018204596614 295.44917070100581213
15.009497869018190385759 1436.67396307991339199 15.009497869018190385759 296.74719589610288040
16.009497869018190385759 1453.27801491410014023 16.009497869018190385759 297.97241149676398209
17.009497869018204596614 1468.80450440841786985 17.009497869018204596614 299.10807676587529613
18.009497869018190385759 1483.37363048066004012 18.009497869018190385759 300.16707032876001904
19.009497869018204596614 1497.08512810589081710 19.009497869018204596614 301.11784110653127300
20.009497869018190385759 1510.02453683019189157 20.009497869018190385759 302.01581889897738620
21.009497869018190385759 1522.26470724363957743 21.009497869018190385759 302.86631957629941780
22.009497869018204596614 1533.86799750796672015 22.009497869018204596614 303.68613096268506979
23.009497869018190385759 1544.89438694843715894 23.009497869018190385759 304.49262622352517837
24.009497869018204596614 1555.39423282568918694 24.009497869018204596614 305.25791627449621046
25.009497869018204596614 1565.41066729828207826 25.009497869018204596614 305.99634910428807189
26.009497869018190385759 1574.98150710185518619 26.009497869018190385759 306.68163723198824755
27.009497869018204596614 1584.14124352377461946 27.009497869018204596614 307.31159750628535221
28.009497869018190385759 1592.91736242357092124 28.009497869018190385759 307.89651703866502430
29.009497869018190385759 1601.33243420637950294 29.009497869018190385759 308.45194510577920255
30.009497869018190385759 1609.41061074453841684 30.009497869018190385759 308.97555913082396728
31.009497869018218807469 1617.17567924188892903 31.009497869018218807469 309.45684348014270881
32.009497869018190385759 1624.64823200846399232 32.009497869018190385759 309.90860906537233177
33.009497869018190385759 1631.84688673628693323 33.009497869018190385759 310.37023596400126735
34.009497869018218807469 1638.78917945785087795 34.009497869018218807469 310.80373468281004534
35.009497869018190385759 1645.48997144048735208 35.009497869018190385759 311.22306617417797270
36.009497869018190385759 1651.96306278723977812 36.009497869018190385759 311.63285523438833025
37.009497869018190385759 1658.22126768850853296 37.009497869018190385759 312.02803173388878122
38.009497869018218807469 1664.27591061434986841 38.009497869018218807469 312.40861446812630220
39.009497869018190385759 1670.13761267354334450 39.009497869018190385759 312.76819352855324041
40.009497869018190385759 1675.81623335325366497 40.009497869018190385759 313.10485158762213587
41.009497869018218807469 1681.32103940655611041 41.009497869018218807469 313.43965235117531165
42.009497869018190385759 1686.66052844875889605 42.009497869018190385759 313.75646790526360519
43.009497869018190385759 1691.84258707491721907 43.009497869018190385759 314.06072811629547914
44.009497869018218807469 1696.87492984638288362 44.009497869018218807469 314.34983522571928916
46.009497869018190385759 1706.51831768120814559 46.009497869018190385759 314.89769364888871905
48.009497869018218807469 1715.64140707867227320 48.009497869018218807469 315.41110309460208327
50.009497869018190385759 1724.28817068994749206 50.009497869018190385759 315.89220805727273955
52.009497869018190385759 1732.49778773089656170 52.009497869018190385759 316.34504591758934566
54.009497869018218807469 1740.30505526759179702 54.009497869018218807469 316.77264605002966391
56.009497869018190385759 1747.74113854580127736 56.009497869018190385759 317.17349819944786304
58.009497869018218807469 1754.83361422940993180 58.009497869018218807469 317.54384650362970888
60.009497869018190385759 1761.60732463535168790 60.009497869018190385759 317.89981584080754828
62.009497869018190385759 1768.08464387671824625 62.009497869018190385759 318.23665183108170140
64.009497869018218807469 1774.28577913972412716 64.009497869018218807469 318.55461183790390578
66.009497869018190385759 1780.22898969301400030 66.009497869018190385759 318.84677602174258482
68.009497869018190385759 1785.93079944335636355 68.009497869018190385759 319.12074273445449535
70.009497869018190385759 1791.40650090969779740 70.009497869018190385759 319.38599373715726415
72.009497869018190385759 1796.67004676618671510 72.009497869018190385759 319.63637549229952128
74.009497869018218807469 1801.73419447333481003 74.009497869018218807469 319.87574205664435567
76.009497869018190385759 1806.61040730817512667 76.009497869018190385759 320.10328207659489408
78.009497869018190385759 1811.30919101471090471 78.009497869018190385759 320.31509821279865946
80.009497869018218807469 1815.84043224751894741 80.009497869018218807469 320.52511532199559952
82.009497869018190385759 1820.21363713475375334 82.009497869018190385759 320.73204428444438463
84.009497869018218807469 1824.43745305081688457 84.009497869018218807469 320.92474987002560738
86.009497869018190385759 1828.51985178516088126 86.009497869018190385759 321.11068335171165700
88.009497869018190385759 1832.46800277680563340 88.009497869018190385759 321.29042680231913209
91.009497869018218807469 1838.15306348329409047 91.009497869018218807469 321.55313186148902105
94.009497869018218807469 1843.57205676947864958 94.009497869018218807469 321.81668361641243337
97.009497869018218807469 1848.74452807107127228 97.009497869018218807469 322.10261005485062924
99.504748934509137825444 1852.87213129918654886 99.504748934509137825444 322.20780218031461573
nan nan nan nan

