Time Pressure difference Time.1 Pressure.1 difference.1
(hr) (psi) (hr) (psi)
0.000200000000020850166 0.49420540496426624 0.000200000000020850166 0.39454740902431451
0.000399999999999067768 0.98701892663175339 0.000399999999999067768 1.02741594168638750
0.000600000000019917934 1.47865013921169641 0.000600000000019917934 1.50072174241550371
0.000799999999998135536 1.96920372962216694 0.000799999999998135536 1.98109952664534972
0.001007140329434719206 2.47621059941065758 0.001007140329434719206 2.48385005487486410
0.001267914553977789183 3.11304702697968905 0.001267914553977789183 3.11913610110527451
0.001596209851982166583 3.91260700649203486 0.001596209851982166583 3.91500626400377127
0.002009509145224797066 4.91594425420742009 0.002009509145224797066 4.91110862730408826
0.002529822128153114136 6.17420907500625038 0.002529822128153114136 6.15640884803672339
0.003184857364431081805 7.75100108108920516 0.003184857364431081805 7.71114408326807776
0.004009497869034817086 9.72520513472894876 0.004009497869034817086 9.64907350609850489
0.005047658755856332391 12.19437931879312131 0.005047658755856332391 12.06000289996993047
0.006354625877790454069 15.27875172470306708 0.006354625877790454069 15.05253363306325731
0.008000000000009777068 19.12587164667958106 0.008000000000009777068 18.75691419031434393
0.010071403294361402914 23.91591538402520456 0.010071403294361402914 23.32773527097947408
0.012679145539692626699 29.86757226099095064 0.012679145539692626699 28.94609325956465895
0.015962098519750611558 37.24433725751954682 0.015962098519750611558 35.82072028171556610
0.020095091452091651263 46.36090333058168511 0.020095091452091651263 44.18702830893752775
0.025298221281360611101 57.58899315486617354 0.025298221281360611101 54.30307821869505602
0.031848573644296607199 71.36186526972466027 0.031848573644296607199 66.44100306804904221
0.040094978690191851456 88.17615386287569379 0.040094978690191851456 80.87167988461935408
0.050476587558435426217 108.58925784538335790 0.050476587558435426217 97.84086978843083671
0.063546258777947173257 133.21011519052086669 0.063546258777947173257 117.53487727291108911
0.080000000000012505552 162.68067854899234703 0.080000000000012505552 140.03491800754204633
0.100714032943542974863 197.64555613654920307 0.100714032943542974863 165.25878868461529692
0.126791455396883634421 238.70649553357085892 0.126791455396883634421 192.90114863360574304
0.159620985197506115583 286.36439771178294222 0.159620985197506115583 222.37024887121273764
0.200950914520774404082 340.94458250065378024 0.200950914520774404082 252.75733157854924116
0.252982212813464002465 402.52469983266809095 0.252982212813464002465 282.84186631448523030
0.318485736442809752589 470.86253310311974474 0.318485736442809752589 311.16597056260576437
0.400949786901833249431 545.35844079369701376 0.400949786901833249431 336.21011659161013085
0.504765875584169521062 625.06441072475001874 0.504765875584169521062 356.60986696035001842
0.635462587779443310865 708.74664035245223204 0.635462587779443310865 371.42267158566187391
0.800000000000011368684 795.01745112929893367 0.800000000000011368684 380.34711045469742885
1.007140329435344483500 882.49829306234425985 1.007140329435344483500 383.78847220015927633
1.267914553968907398485 969.98067801665604293 1.267914553968907398485 382.80167125065344180
1.596209851975117999245 1056.56086085217816617 1.596209851975117999245 378.84784573790039985
2.009509145207687197399 1141.68647962772024584 2.009509145207687197399 373.48526613830716769
2.529822128134725289783 1225.14657240458291199 2.529822128134725289783 368.16223944214084440
3.184857364427983839050 1307.02012222567145727 3.184857364427983839050 363.94230302070633343
4.009497869018204596614 1387.53897554609170584 4.009497869018204596614 361.44818935631076329
5.009497869018190385759 1464.40821471741128335 5.009497869018190385759 360.89627751643547526
6.009497869018190385759 1526.69779705319092500 6.009497869018190385759 361.80382904348869033
7.009497869018204596614 1579.08380545441173126 7.009497869018204596614 363.46091874872018934
8.009497869018190385759 1624.28334864391740666 8.009497869018190385759 365.44757597518531611
9.009497869018204596614 1664.01626924977017552 9.009497869018204596614 367.58098487602313753
10.009497869018190385759 1699.44210311096458099 10.009497869018190385759 369.73155610106562108
11.009497869018190385759 1731.38141347410146409 11.009497869018190385759 371.73547869559894252
12.009497869018204596614 1760.43685115125413176 12.009497869018204596614 373.66170625831483676
13.009497869018190385759 1787.06276820819107343 13.009497869018190385759 375.49697447586476073
14.009497869018204596614 1811.61664011762854898 14.009497869018204596614 377.23660207531855804
15.009497869018190385759 1834.37984556340893505 15.009497869018190385759 378.89395184159059227
16.009497869018190385759 1855.58029801263865011 16.009497869018190385759 380.45833656775658937
17.009497869018204596614 1875.40489296782970996 17.009497869018204596614 381.90838127831722204
18.009497869018190385759 1894.00710329612184069 18.009497869018190385759 383.26052971161419691
19.009497869018204596614 1911.51427301074045317 19.009497869018204596614 384.47449669181565923
20.009497869018190385759 1928.03562106000890708 20.009497869018190385759 385.62105631950976203
21.009497869018190385759 1943.66416482825206913 21.009497869018190385759 386.70699602553247587
22.009497869018204596614 1958.47952471510802752 22.009497869018204596614 387.75375090729096428
23.009497869018190385759 1972.55828376463523455 23.009497869018190385759 388.78350343990877036
24.009497869018204596614 1985.96473933752167795 24.009497869018204596614 389.76064417022581665
25.009497869018204596614 1998.75396361046728089 25.009497869018204596614 390.70349295504593101
26.009497869018190385759 2010.97424190043761882 26.009497869018190385759 391.57848530693775047
27.009497869018204596614 2022.66961351211557485 27.009497869018204596614 392.38283372583646269
28.009497869018190385759 2033.87517305155529357 28.009497869018190385759 393.12967304293073312
29.009497869018190385759 2044.61973895449750671 29.009497869018190385759 393.83885694836618541
30.009497869018190385759 2054.93414891201791761 30.009497869018190385759 394.50741992025803029
31.009497869018218807469 2064.84877499769072529 31.009497869018218807469 395.12193534481741608
32.009497869018190385759 2074.38990996788834309 32.009497869018190385759 395.69876050192391403
33.009497869018190385759 2083.58132533925027019 33.009497869018190385759 396.28817682098872410
34.009497869018218807469 2092.44541153953059620 34.009497869018218807469 396.84167840401710237
35.009497869018190385759 2101.00114379203887438 35.009497869018190385759 397.37709093054911591
36.009497869018190385759 2109.26614240001663347 36.009497869018190385759 397.90031945163309501
37.009497869018190385759 2117.25676882974812543 37.009497869018190385759 398.40489030399959347
38.009497869018218807469 2124.98748243677709979 38.009497869018218807469 398.89082748612690921
39.009497869018190385759 2132.47184450806526002 39.009497869018190385759 399.34994667272354718
40.009497869018190385759 2139.72244387378941610 40.009497869018190385759 399.77979977389526312
41.009497869018218807469 2146.75111254699777419 41.009497869018218807469 400.20728143551355060
42.009497869018190385759 2153.56870048714881705 42.009497869018190385759 400.61179914942448477
43.009497869018190385759 2160.18527748836004321 43.009497869018190385759 401.00028589956184533
44.009497869018218807469 2166.61069368797825518 44.009497869018218807469 401.36942480537112488
46.009497869018190385759 2178.92360304789463044 46.009497869018190385759 402.06894360748663075
48.009497869018218807469 2190.57218285796125201 48.009497869018218807469 402.72447712722805591
50.009497869018190385759 2201.61257845604859540 50.009497869018190385759 403.33876350660358412
52.009497869018190385759 2212.09481480661679598 52.009497869018190385759 403.91695777031259240
54.009497869018218807469 2222.06332163995102746 54.009497869018218807469 404.46292789649709221
56.009497869018190385759 2231.55789149088332124 56.009497869018190385759 404.97474555508904359
58.009497869018218807469 2240.61373490665027930 58.009497869018218807469 405.44761517094349301
60.009497869018190385759 2249.26257115458020053 60.009497869018190385759 405.90212537613837185
62.009497869018190385759 2257.53296804001547571 62.009497869018190385759 406.33220566414939867
64.009497869018218807469 2265.45072658398248677 64.009497869018218807469 406.73818464281725937
66.009497869018190385759 2273.03916065953490033 66.009497869018190385759 407.11122689471420699
68.009497869018190385759 2280.31936838797628297 68.009497869018190385759 407.46103417811247027
70.009497869018190385759 2287.31087562504353627 70.009497869018190385759 407.79971303349481104
72.009497869018190385759 2294.03149748043142608 72.009497869018190385759 408.11940647621935341
74.009497869018218807469 2300.49752298633984537 74.009497869018218807469 408.42503545859096903
76.009497869018190385759 2306.72358873039547689 76.009497869018190385759 408.71556402483685133
78.009497869018190385759 2312.72310869904094943 78.009497869018190385759 408.98601595840176515
80.009497869018218807469 2318.50870641045867160 80.009497869018218807469 409.25417085104584203
82.009497869018190385759 2324.09251951755049959 82.009497869018190385759 409.51838272370048344
84.009497869018218807469 2329.48558919578545101 84.009497869018218807469 409.76443384692106520
86.009497869018190385759 2334.69809401753354905 86.009497869018190385759 410.00183818512539347
88.009497869018190385759 2339.73918809484848680 88.009497869018190385759 410.23133894287531120
91.009497869018218807469 2346.99801024154521656 91.009497869018218807469 410.56676707636472656
94.009497869018218807469 2353.91711111124413947 94.009497869018218807469 410.90327629134202425
97.009497869018218807469 2360.52144678602462591 97.009497869018218807469 411.26835403999172058
99.504748934509137825444 2365.79166979187994002 99.504748934509137825444 411.40266587400680010
nan nan nan nan

