Time Pressure difference Time.1 Pressure.1 difference.1
(hr) (psi) (hr) (psi)
0.000200000000020850166 0.13123437644429253 0.000200000000020850166 0.10477057248040621
0.000399999999999067768 0.26209914354254965 0.000399999999999067768 0.27282641812848601
0.000600000000019917934 0.39264995293352611 0.000600000000019917934 0.39851098370025140
0.000799999999998135536 0.52291460383244093 0.000799999999998135536 0.52607348774784068
0.001007140329434719206 0.65754836085190571 0.001007140329434719206 0.65957698936172859
0.001267914553977789183 0.82665786598788393 0.001267914553977789183 0.82827479659602243
0.001596209851982166583 1.03897799500124632 0.001596209851982166583 1.03961510876066532
0.002009509145224797066 1.30541040699961752 0.002009509145224797066 1.30412632456142163
0.002529822128153114136 1.63953787201846635 0.002529822128153114136 1.63481108905849126
0.003184857364431081805 2.05824902657494846 0.003184857364431081805 2.04766515152328799
0.004009497869034817086 2.58249144754146887 0.004009497869034817086 2.56227498145136767
0.005047658755856332391 3.23817131490640886 0.005047658755856332391 3.20248816503403155
0.006354625877790454069 4.05721474370266311 0.006354625877790454069 3.99714338491427634
0.008000000000009777068 5.07880289105104854 0.008000000000009777068 4.98082763373053261
0.010071403294361402914 6.35078089189240735 0.010071403294361402914 6.19459188708362518
0.012679145539692626699 7.93122086930516002 0.012679145539692626699 7.68652560506086768
0.015962098519750611558 9.89009291880351249 0.015962098519750611558 9.51205681430430339
0.020095091452091651263 12.31096256509564135 0.020095091452091651263 11.73369827363383244
0.025298221281360611101 15.29253935877118487 0.025298221281360611101 14.41997707319969457
0.031848573644296607199 18.94987346658234628 0.031848573644296607199 17.64315711722982982
0.040094978690191851456 23.41484421904934266 0.040094978690191851456 21.47516877608379460
0.050476587558435426217 28.83546678919423556 0.050476587558435426217 25.98127298583541744
0.063546258777947173257 35.37344235311310570 0.063546258777947173257 31.21094220020160037
0.080000000000012505552 43.19923900964838737 0.080000000000012505552 37.18574293309519874
0.100714032943542974863 52.48403003289878654 0.100714032943542974863 43.88384640700709127
0.126791455396883634421 63.38760721731798498 0.126791455396883634421 51.22417056152891490
0.159620985197506115583 76.04298292178437180 0.159620985197506115583 59.04957869185145114
0.200950914520774404082 90.53654459681226285 0.200950914520774404082 67.11875359564835719
0.252982212813464002465 106.88891188833875390 0.252982212813464002465 75.10758802972885917
0.318485736442809752589 125.03576509292928165 0.318485736442809752589 82.62894680486002130
0.400949786901833249431 144.81787167294811525 0.400949786901833249431 89.27932507810824347
0.504765875584169521062 165.98349057900927050 0.504765875584169521062 94.69640164661396398
0.635462587779443310865 188.20499021123939087 0.635462587779443310865 98.62988590005811318
0.800000000000011368684 211.11387777887262018 0.800000000000011368684 100.99973689385242892
1.007140329435344483500 234.34408454428634627 1.007140329435344483500 101.91357749180700409
1.267914553968907398485 257.57470105316247100 1.267914553968907398485 101.65153623126596472
1.596209851975117999245 280.56574120108263060 1.596209851975117999245 100.60161281779539877
2.009509145207687197399 303.17052736332743734 2.009509145207687197399 99.17760008378576231
2.529822128134725289783 325.33303939483045042 2.529822128134725289783 97.76409047371134875
3.184857364427983839050 347.07425094395978249 3.184857364427983839050 96.64350231474220720
4.009497869018204596614 368.45572796013863126 4.009497869018204596614 95.98119986268420689
5.009497869018190385759 388.86806374008568810 5.009497869018190385759 95.83464176066691209
6.009497869018190385759 405.40882678051121957 6.009497869018190385759 96.07563863675834170
7.009497869018204596614 419.31973321310431402 7.009497869018204596614 96.51567254167694898
8.009497869018190385759 431.32230098443517363 8.009497869018190385759 97.04322185559543357
9.009497869018204596614 441.87322780077931839 9.009497869018204596614 97.60974052170026027
10.009497869018190385759 451.28042401938222383 10.009497869018190385759 98.18081657809810281
11.009497869018190385759 459.76178710740845190 11.009497869018190385759 98.71295064521787310
12.009497869018204596614 467.47734870907254390 12.009497869018204596614 99.22445309044327644
13.009497869018190385759 474.54776029730118125 13.009497869018190385759 99.71180162552374782
14.009497869018204596614 481.06794813207613970 14.009497869018204596614 100.17375315613502096
15.009497869018190385759 487.11263125885483305 15.009497869018190385759 100.61385611927951800
16.009497869018190385759 492.74233123696950543 16.009497869018190385759 101.02927256757234886
17.009497869018204596614 498.00667746036486960 17.009497869018204596614 101.41432645709934945
18.009497869018190385759 502.94642406854995897 18.009497869018190385759 101.77338436039501346
19.009497869018204596614 507.59538678268404510 19.009497869018204596614 102.09574870135610070
20.009497869018190385759 511.98256828148140585 20.009497869018190385759 102.40021327476057422
21.009497869018190385759 516.13266897960306778 21.009497869018190385759 102.68858045720023142
22.009497869018204596614 520.06683177308752875 22.009497869018204596614 102.96654225773441738
23.009497869018190385759 523.80539299968472733 23.009497869018190385759 103.23998914874887589
24.009497869018204596614 527.36542658038388254 24.009497869018204596614 103.49946517461458484
25.009497869018204596614 530.76155672345191761 25.009497869018204596614 103.74983510402900322
26.009497869018190385759 534.00660541221702715 26.009497869018190385759 103.98218601427926444
27.009497869018204596614 537.11226711750305185 27.009497869018204596614 104.19577769526412681
28.009497869018190385759 540.08786107923651798 28.009497869018190385759 104.39409805173622203
29.009497869018190385759 542.94103992405143799 29.009497869018190385759 104.58241915603672112
30.009497869018190385759 545.67999248419971536 30.009497869018190385759 104.75995352504331493
31.009497869018218807469 548.31278394896662576 31.009497869018218807469 104.92313577223723087
32.009497869018190385759 550.84639626038040205 32.009497869018190385759 105.07630951143526943
33.009497869018190385759 553.28714185479259413 33.009497869018190385759 105.23282678607768048
34.009497869018218807469 555.64096642562321904 34.009497869018218807469 105.37980703837764906
35.009497869018190385759 557.91290877166738937 35.009497869018190385759 105.52198381012900086
36.009497869018190385759 560.10764789781956097 36.009497869018190385759 105.66092516530763135
37.009497869018190385759 562.22952852958019321 37.009497869018190385759 105.79491204711250418
38.009497869018218807469 564.28239029413578010 38.009497869018218807469 105.92395082824883445
39.009497869018190385759 566.26983433995667383 39.009497869018190385759 106.04586819208456916
40.009497869018190385759 568.19520358329191367 40.009497869018190385759 106.16001405760580667
41.009497869018218807469 570.06163997046326131 41.009497869018218807469 106.27353019632124642
42.009497869018190385759 571.87202466717576499 42.009497869018190385759 106.38094834556146395
43.009497869018190385759 573.62903166917794806 43.009497869018190385759 106.48410953299290327
44.009497869018218807469 575.33527664319422001 44.009497869018218807469 106.58213297352712345
46.009497869018190385759 578.60492316229806420 46.009497869018190385759 106.76788754618974053
48.009497869018218807469 581.69815948160987773 48.009497869018218807469 106.94196199344878551
50.009497869018190385759 584.62989478328688620 50.009497869018190385759 107.10508341856028380
52.009497869018190385759 587.41341300747137666 52.009497869018190385759 107.25862071883929616
54.009497869018218807469 590.06051230102900718 54.009497869018218807469 107.40360102125468700
56.009497869018190385759 592.58175942110847245 56.009497869018190385759 107.53951226504885597
58.009497869018218807469 594.98650439537925649 58.009497869018218807469 107.66508100337659926
60.009497869018190385759 597.28317015533377798 60.009497869018190385759 107.78577446963002728
62.009497869018190385759 599.47934277365129674 62.009497869018190385759 107.89998066375730446
64.009497869018218807469 601.58187361389786929 64.009497869018218807469 108.00778684632794580
66.009497869018190385759 603.59695358690180456 66.009497869018190385759 108.10684680565519500
68.009497869018190385759 605.53018521899218740 68.009497869018190385759 108.19973680696095641
70.009497869018190385759 607.38675352732241208 70.009497869018190385759 108.28967169628938905
72.009497869018190385759 609.17138924690448221 72.009497869018190385759 108.37456508108009245
74.009497869018218807469 610.88841786864145433 74.009497869018218807469 108.45572370160903120
76.009497869018190385759 612.54172608302940262 76.009497869018190385759 108.53287246373818675
78.009497869018190385759 614.13487592344267796 78.009497869018190385759 108.60468995197895481
80.009497869018218807469 615.67121951739909491 80.009497869018218807469 108.67589746968948816
82.009497869018190385759 617.15397997272771136 82.009497869018190385759 108.74605793335238957
84.009497869018218807469 618.58608923182202943 84.009497869018218807469 108.81139587867819785
86.009497869018190385759 619.97025017608461894 86.009497869018190385759 108.87443770294086676
88.009497869018190385759 621.30889364535471486 88.009497869018190385759 108.93538076130134584
91.009497869018218807469 623.23644641708256131 91.009497869018218807469 109.02445243372375216
94.009497869018218807469 625.07378748836401883 94.009497869018218807469 109.11381118324712247
97.009497869018218807469 626.82754385242333228 97.009497869018218807469 109.21075619885493779
99.504748934509137825444 628.22703164221343286 99.504748934509137825444 109.24642219847575575
nan nan nan nan

