Time Pressure difference Time.1 Pressure.1 difference.1
(hr) (psi) (hr) (psi)
0.000200000000020850166 0.70766891601605852 0.000200000000020850166 0.56496536552725374
0.000399999999999067768 1.41334474872311588 0.000399999999999067768 1.47119055851563374
0.000600000000019917934 2.11732759429977380 0.000600000000019917934 2.14893264628236835
0.000799999999998135536 2.81976735737493467 0.000799999999998135536 2.83680133899468556
0.001007140329434719206 3.54576711041660486 0.001007140329434719206 3.55670629706451047
0.001267914553977789183 4.45767406216251327 0.001267914553977789183 4.46639320696082898
0.001596209851982166583 5.60259020089279591 0.001596209851982166583 5.60602577635498012
0.002009509145224797066 7.03930168837768377 0.002009509145224797066 7.03237739573627429
0.002529822128153114136 8.84105232252995776 0.002529822128153114136 8.81556359416350865
0.003184857364431081805 11.09891247241681000 0.003184857364431081805 11.04183993099899475
0.004009497869034817086 13.92583995762868021 0.004009497869034817086 13.81682458352256582
0.005047658755856332391 17.46153139430544599 0.005047658755856332391 17.26911339625946340
0.006354625877790454069 21.87814532680170032 0.006354625877790454069 21.55421622751242694
0.008000000000009777068 27.38696242516135371 0.008000000000009777068 26.85864015150894346
0.010071403294361402914 34.24598303729323590 0.010071403294361402914 33.40374865693195261
0.012679145539692626699 42.76835557372149310 0.012679145539692626699 41.44885959184721003
0.015962098519750611558 53.33138713177589807 0.015962098519750611558 51.29286332776749902
0.020095091452091651263 66.38569687000939723 0.020095091452091651263 63.27285398187357401
0.025298221281360611101 82.46356666881676745 0.025298221281360611101 77.75835738206417602
0.031848573644296607199 102.18539362992505914 0.031848573644296607199 95.13904977139122821
0.040094978690191851456 126.26232452297495001 0.040094978690191851456 115.80280884318602830
0.050476587558435426217 155.49251711641446150 0.050476587558435426217 140.10154799956816873
0.063546258777947173257 190.74792965096435182 0.063546258777947173257 168.30204275045420559
0.080000000000012505552 232.94779516595207269 0.080000000000012505552 200.52058847466526004
0.100714032943542974863 283.01514929132764564 0.100714032943542974863 236.63947556183566689
0.126791455396883634421 341.81165410857539655 0.126791455396883634421 276.22147669887743859
0.159620985197506115583 410.05456613519174880 0.159620985197506115583 318.41924712314829549
0.200950914520774404082 488.20972149673457352 0.200950914520774404082 361.93150673096465653
0.252982212813464002465 576.38830967635840352 0.252982212813464002465 405.01053798309482090
0.318485736442809752589 674.24349277959322535 0.318485736442809752589 445.56875112494140012
0.400949786901833249431 780.91662446425175403 0.400949786901833249431 481.43028459840644473
0.504765875584169521062 895.05021502098657038 0.504765875584169521062 510.64135571465249086
0.635462587779443310865 1014.87754215174652472 0.635462587779443310865 531.85229611930071769
0.800000000000011368684 1138.41154346581970458 0.800000000000011368684 544.63149261748276331
1.007140329435344483500 1263.67822804893648936 1.007140329435344483500 549.55929128493392000
1.267914553968907398485 1388.94712213477464502 1.267914553968907398485 548.14625866480128025
1.596209851975117999245 1512.92412343874934777 1.596209851975117999245 542.48464633393473378
2.009509145207687197399 1634.81828679465138521 2.009509145207687197399 534.80579285687008451
2.529822128134725289783 1754.32752888857930884 2.529822128134725289783 527.18357647849416026
3.184857364427983839050 1871.56494812818846185 3.184857364427983839050 521.14091121620469949
4.009497869018204596614 1986.86253305087416265 4.009497869018204596614 517.56950812029708686
5.009497869018190385759 2096.93411586425963833 5.009497869018190385759 516.77920746891265935
6.009497869018190385759 2186.12861023414870942 6.009497869018190385759 518.07876024378538204
7.009497869018204596614 2261.14185251623348449 7.009497869018204596614 520.45160130068836679
8.009497869018190385759 2325.86455973885267667 8.009497869018190385759 523.29636089219809492
9.009497869018204596614 2382.75943092572151727 9.009497869018204596614 526.35125901575088392
10.009497869018190385759 2433.48684344628918552 10.009497869018190385759 529.43073243379490123
11.009497869018190385759 2479.22178870577226917 11.009497869018190385759 532.30021487168119165
12.009497869018204596614 2520.82722215272042376 12.009497869018204596614 535.05844324720033001
13.009497869018190385759 2558.95374540063676250 13.009497869018190385759 537.68642395535584910
14.009497869018204596614 2594.11323929448644776 14.009497869018204596614 540.17745372801925896
15.009497869018190385759 2626.70861919331855461 15.009497869018190385759 542.55066717484908168
16.009497869018190385759 2657.06624186011458733 16.009497869018190385759 544.79076093399771707
17.009497869018204596614 2685.45372909006891859 17.009497869018204596614 546.86712747752301311
18.009497869018190385759 2712.09084371142171221 18.009497869018190385759 548.80331313326939835
19.009497869018204596614 2737.15993379016936160 19.009497869018204596614 550.54163223769239721
20.009497869018190385759 2760.81739351786154657 20.009497869018190385759 552.18342854491152139
21.009497869018190385759 2783.19641753558153141 21.009497869018190385759 553.73842119958601415
22.009497869018204596614 2804.41101690297819005 22.009497869018204596614 555.23730382018811724
23.009497869018190385759 2824.57085339070454211 23.009497869018190385759 556.71184021983572165
24.009497869018204596614 2843.76799649675376713 24.009497869018204596614 558.11104005551658247
25.009497869018204596614 2862.08130587582945736 25.009497869018204596614 559.46113613058673764
26.009497869018190385759 2879.57992285575255664 26.009497869018190385759 560.71406635548055419
27.009497869018204596614 2896.32690876020615178 27.009497869018204596614 561.86583921750025183
28.009497869018190385759 2912.37251670575642493 28.009497869018190385759 562.93526291189402855
29.009497869018190385759 2927.75801275501180498 29.009497869018190385759 563.95076658824859805
30.009497869018190385759 2942.52755440846931378 30.009497869018190385759 564.90810381858807432
31.009497869018218807469 2956.72463243366837560 31.009497869018218807469 565.78804859459569343
32.009497869018190385759 2970.38689629015289029 32.009497869018190385759 566.61402344141038157
33.009497869018190385759 2983.54838519166605693 33.009497869018190385759 567.45802798568468006
34.009497869018218807469 2996.24116072551305479 34.009497869018218807469 568.25060504239081638
35.009497869018190385759 3008.49239413582699854 35.009497869018190385759 569.01727978626524873
36.009497869018190385759 3020.32731651229278214 36.009497869018190385759 569.76650785343099415
37.009497869018190385759 3031.76935637469796347 37.009497869018190385759 570.48901939329016386
38.009497869018218807469 3042.83921854812433594 38.009497869018218807469 571.18484877005073486
39.009497869018190385759 3053.55632188381741798 39.009497869018190385759 571.84227658010161122
40.009497869018190385759 3063.93869274028338623 40.009497869018190385759 572.45779732329208400
41.009497869018218807469 3074.00327376477662256 41.009497869018218807469 573.06992232446646085
42.009497869018190385759 3083.76560136983380289 42.009497869018190385759 573.64916449631880369
43.009497869018190385759 3093.24009482366818702 43.009497869018190385759 574.20545140575916321
44.009497869018218807469 3102.44085886076936731 44.009497869018218807469 574.73403350281716939
46.009497869018190385759 3120.07211730555627582 46.009497869018190385759 575.73569740097252634
48.009497869018218807469 3136.75210049576980964 48.009497869018218807469 576.67437733176188885
50.009497869018190385759 3152.56120478076218205 50.009497869018190385759 577.55399413046427526
52.009497869018190385759 3167.57106254661766798 52.009497869018190385759 578.38192944589297895
54.009497869018218807469 3181.84529418023248581 54.009497869018218807469 579.16372196271515804
56.009497869018190385759 3195.44087991635751678 56.009497869018190385759 579.89661044190904704
58.009497869018218807469 3208.40823889153944037 58.009497869018218807469 580.57372794225864254
60.009497869018190385759 3220.79279096420532369 60.009497869018190385759 581.22455600078978932
62.009497869018190385759 3232.63544331108096230 62.009497869018190385759 581.84040206026099895
64.009497869018218807469 3243.97314125975299248 64.009497869018218807469 582.42173666500877971
66.009497869018190385759 3254.83926870911591323 66.009497869018190385759 582.95590809125462783
68.009497869018190385759 3265.26403675051460596 68.009497869018190385759 583.45680860462493911
70.009497869018190385759 3275.27540509670097890 70.009497869018190385759 583.94177395720600998
72.009497869018190385759 3284.89888378710520556 72.009497869018190385759 584.39955347519151019
74.009497869018218807469 3294.15779762077545456 74.009497869018218807469 584.83719363146133219
76.009497869018190385759 3303.07310520722194269 76.009497869018190385759 585.25321100699318322
78.009497869018190385759 3311.66401447324824403 78.009497869018190385759 585.64047999421563873
80.009497869018218807469 3319.94860144825361203 80.009497869018218807469 586.02445977326226512
82.009497869018190385759 3327.94424643521551843 82.009497869018190385759 586.40279341276095693
84.009497869018218807469 3335.66675965514150448 84.009497869018218807469 586.75512207996098368
86.009497869018190385759 3343.13071613939291638 86.009497869018190385759 587.09506913231393810
88.009497869018190385759 3350.34922396102683706 88.009497869018190385759 587.42369878878957934
91.009497869018218807469 3360.74336928705270111 91.009497869018218807469 587.90400932615591501
94.009497869018218807469 3370.65105658282345757 94.009497869018218807469 588.38586789953512834
97.009497869018218807469 3380.10802128015620838 97.009497869018218807469 588.90863469255953078
99.504748934509137825444 3387.65462632383469099 99.504748934509137825444 589.10096020950220463
nan nan nan nan

