Time Pressure difference Time.1 Pressure.1 difference.1
(hr) (psi) (hr) (psi)
0.000200000000020850166 0.11794481933600975 0.000200000000020850166 0.09416089425454229
0.000399999999999067768 0.23555745812051931 0.000399999999999067768 0.24519842641927228
0.000600000000019917934 0.35288793238329563 0.000600000000019917934 0.35815544104706137
0.000799999999998135536 0.46996122622915582 0.000799999999998135536 0.47280022316578091
0.001007140329434719206 0.59096118506943418 0.001007140329434719206 0.59278438284408519
0.001267914553977789183 0.74294567702708547 0.001267914553977789183 0.74439886782680498
0.001596209851982166583 0.93376503348213269 0.001596209851982166583 0.93433762939249676
0.002009509145224797066 1.17321694806294730 0.002009509145224797066 1.17206289928937912
0.002529822128153114136 1.47350872042165970 0.002529822128153114136 1.46926059902725159
0.003184857364431081805 1.84981874540280167 0.003184857364431081805 1.84030665516649927
0.004009497869034817086 2.32097332627144670 0.004009497869034817086 2.30280409725376112
0.005047658755856332391 2.91025523238424100 0.005047658755856332391 2.87818556604324360
0.006354625877790454069 3.64635755446695065 0.006354625877790454069 3.59236937125207145
0.008000000000009777068 4.56449373752689169 0.008000000000009777068 4.47644002525148998
0.010071403294361402914 5.70766383954887235 0.010071403294361402914 5.56729144282199240
0.012679145539692626699 7.12805926228691611 0.012679145539692626699 6.90814326530786893
0.015962098519750611558 8.88856452196264968 0.015962098519750611558 8.54881055462791650
0.020095091452091651263 11.06428281166823346 0.020095091452091651263 10.54547566364559508
0.025298221281360611101 13.74392777813612732 0.025298221281360611101 12.95972623034402993
0.031848573644296607199 17.03089893832084201 0.031848573644296607199 15.85650829523187078
0.040094978690191851456 21.04372075382915597 0.040094978690191851456 19.30046814053100590
0.050476587558435426217 25.91541951940241262 0.050476587558435426217 23.35025799992803286
0.063546258777947173257 31.79132160849405508 0.063546258777947173257 28.05034045840903545
0.080000000000012505552 38.82463252765867878 0.080000000000012505552 33.42009807911087904
0.100714032943542974863 47.16919154855460050 0.100714032943542974863 39.43991259363928492
0.126791455396883634421 56.96860901809590416 0.126791455396883634421 46.03691278314624213
0.159620985197506115583 68.34242768919861533 0.159620985197506115583 53.06987452052472065
0.200950914520774404082 81.36828691612241471 0.200950914520774404082 60.32191778849410468
0.252982212813464002465 96.06471827939306252 0.252982212813464002465 67.50175633051580348
0.318485736442809752589 112.37391546326554703 0.318485736442809752589 74.26145852082356669
0.400949786901833249431 130.15277074404195901 0.400949786901833249431 80.23838076640107886
0.504765875584169521062 149.17503583683111401 0.504765875584169521062 85.10689261910876269
0.635462587779443310865 169.14625702529110640 0.635462587779443310865 88.64204935321677681
0.800000000000011368684 189.73525724430328410 0.800000000000011368684 90.77191543624712722
1.007140329435344483500 210.61303800815610998 1.007140329435344483500 91.59321521415566281
1.267914553968907398485 231.49118702246244084 1.267914553968907398485 91.35770977746688004
1.596209851975117999245 252.15402057312485340 1.596209851975117999245 90.41410772232244142
2.009509145207687197399 272.46971446577521192 2.009509145207687197399 89.13429880947833794
2.529822128134725289783 292.38792148142988481 2.529822128134725289783 87.86392941308234583
3.184857364427983839050 311.92749135469807698 3.184857364427983839050 86.85681853603412605
4.009497869018204596614 331.14375550847904606 4.009497869018204596614 86.26158468671619062
5.009497869018190385759 349.48901931070997762 5.009497869018190385759 86.12986791148544796
6.009497869018190385759 364.35476837235813719 6.009497869018190385759 86.34646004063091596
7.009497869018204596614 376.85697541937224742 7.009497869018204596614 86.74193355011472306
8.009497869018190385759 387.64409328980877945 8.009497869018190385759 87.21606014869969670
9.009497869018204596614 397.12657182095358621 9.009497869018204596614 87.72520983595846644
10.009497869018190385759 405.58114057438149302 10.009497869018190385759 88.23845540563247880
11.009497869018190385759 413.20363145096206381 11.009497869018190385759 88.71670247861352721
12.009497869018204596614 420.13787035878675624 12.009497869018204596614 89.17640720786674535
13.009497869018190385759 426.49229090010607024 13.009497869018190385759 89.61440399255931766
14.009497869018204596614 432.35220654908107463 14.009497869018204596614 90.02957562133653369
15.009497869018190385759 437.78476986555307349 15.009497869018190385759 90.42511119580817081
16.009497869018190385759 442.84437364335241227 16.009497869018190385759 90.79846015566629092
17.009497869018204596614 447.57562151501144854 17.009497869018204596614 91.14452124625384499
18.009497869018190385759 452.01514061857022853 18.009497869018190385759 91.46721885554489972
19.009497869018204596614 456.19332229836157921 19.009497869018204596614 91.75693870628207094
20.009497869018190385759 460.13623225297692443 20.009497869018190385759 92.03057142415191549
21.009497869018190385759 463.86606958926353173 21.009497869018190385759 92.28973686659767850
22.009497869018204596614 467.40183615049636501 22.009497869018204596614 92.53955063669801007
23.009497869018190385759 470.76180889845079491 23.009497869018190385759 92.78530670330594887
24.009497869018204596614 473.96133274945896119 24.009497869018204596614 93.01850667591943989
25.009497869018204596614 477.01355097930490956 25.009497869018204596614 93.24352268843112768
26.009497869018190385759 479.92998714262540716 26.009497869018190385759 93.45234439258010184
27.009497869018204596614 482.72115146003437758 27.009497869018204596614 93.64430653625004197
28.009497869018190385759 485.39541945095942310 28.009497869018190385759 93.82254381864900949
29.009497869018190385759 487.95966879250192960 29.009497869018190385759 93.99179443137478529
30.009497869018190385759 490.42125906807820002 30.009497869018190385759 94.15135063643134572
31.009497869018218807469 492.78743873894467242 31.009497869018218807469 94.29800809909927750
32.009497869018190385759 495.06448271502546277 32.009497869018190385759 94.43567057356840166
33.009497869018190385759 497.25806419861100949 33.009497869018190385759 94.57633799761411808
34.009497869018218807469 499.37352678758543334 34.009497869018218807469 94.70843417373181694
35.009497869018190385759 501.41539902263787098 35.009497869018190385759 94.83621329771088426
36.009497869018190385759 503.38788608538214930 36.009497869018190385759 94.96108464223848955
37.009497869018190385759 505.29489272911632725 37.009497869018190385759 95.08150323221504152
38.009497869018218807469 507.13986975802077950 38.009497869018218807469 95.19747479500844634
39.009497869018190385759 508.92605364730286510 39.009497869018190385759 95.30704609668359240
40.009497869018190385759 510.65644879004730683 40.009497869018190385759 95.40963288721533786
41.009497869018218807469 512.33387896079614166 41.009497869018218807469 95.51165372074440540
42.009497869018190385759 513.96093356163896715 42.009497869018190385759 95.60819408271980535
43.009497869018190385759 515.54001580394469784 43.009497869018190385759 95.70090856762652720
44.009497869018218807469 517.07347647679489455 44.009497869018218807469 95.78900558380286157
46.009497869018190385759 520.01201955092608387 46.009497869018190385759 95.95594956682874965
48.009497869018218807469 522.79201674929493038 48.009497869018218807469 96.11239622196031007
50.009497869018190385759 525.42686746346032578 50.009497869018190385759 96.25899902174404588
52.009497869018190385759 527.92851042443635379 52.009497869018190385759 96.39698824098215368
54.009497869018218807469 530.30754903003878553 54.009497869018218807469 96.52728699378586441
56.009497869018190385759 532.57347998605962403 56.009497869018190385759 96.64943507365148889
58.009497869018218807469 534.73470648192324006 58.009497869018218807469 96.76228799037643569
60.009497869018190385759 536.79879849403414482 60.009497869018190385759 96.87075933346496015
62.009497869018190385759 538.77257388518023618 62.009497869018190385759 96.97340034337682368
64.009497869018218807469 540.66219020995879418 64.009497869018218807469 97.07028944416813943
66.009497869018190385759 542.47321145151931887 66.009497869018190385759 97.15931801520909517
68.009497869018190385759 544.21067279175247222 68.009497869018190385759 97.24280143410415178
70.009497869018190385759 545.87923418278353438 70.009497869018190385759 97.32362899286766833
72.009497869018190385759 547.48314729785090549 72.009497869018190385759 97.39992557919856608
74.009497869018218807469 549.02629960346257576 74.009497869018218807469 97.47286560524356958
76.009497869018190385759 550.51218420120358132 76.009497869018190385759 97.54220183449886861
78.009497869018190385759 551.94400241220807857 78.009497869018190385759 97.60674666570261593
80.009497869018218807469 553.32476690804219288 80.009497869018218807469 97.67074329554371559
82.009497869018190385759 554.65737440586917728 82.009497869018190385759 97.73379890212683563
84.009497869018218807469 555.94445994252362198 84.009497869018218807469 97.79252034666015447
86.009497869018190385759 557.18845268989889519 86.009497869018190385759 97.84917818871899442
88.009497869018190385759 558.39153732683780618 88.009497869018190385759 97.90394979813159182
91.009497869018218807469 560.12389488117537439 91.009497869018218807469 97.98400155435932390
94.009497869018218807469 561.77517609713720503 94.009497869018218807469 98.06431131658918332
97.009497869018218807469 563.35133688002599683 97.009497869018218807469 98.15143911542658373
99.504748934509137825444 564.60910438730570604 99.504748934509137825444 98.18349336825035323
nan nan nan nan

