Time Pressure difference Time.1 Pressure.1 difference.1
(hr) (psi) (hr) (psi)
0.000200000000020850166 0.34802027677315556 0.000200000000020850166 0.27784094853981139
0.000399999999999067768 0.69506038698941963 0.000399999999999067768 0.72350803288503585
0.000600000000019917934 1.04126791315916112 0.000600000000019917934 1.05681077323041350
0.000799999999998135536 1.38671657598603004 0.000799999999998135536 1.39509361624269168
0.001007140329434719206 1.74375166580347130 0.001007140329434719206 1.74913138318078643
0.001267914553977789183 2.19221294841090719 0.001267914553977789183 2.19650088464388205
0.001596209851982166583 2.75526442978178565 0.001596209851982166583 2.75695399095391647
0.002009509145224797066 3.46181620590404870 0.002009509145224797066 3.45841094931161885
0.002529822128153114136 4.34788840744137595 0.002529822128153114136 4.33535345769308744
0.003184857364431081805 5.45826798819559045 0.003184857364431081805 5.43020062334340281
0.004009497869034817086 6.84850580075870496 0.004009497869034817086 6.79489377992482968
0.005047658755856332391 8.58730241104927394 0.005047658755856332391 8.49267431107126036
0.006354625877790454069 10.75932264311022735 0.006354625877790454069 10.60001948277900041
0.008000000000009777068 13.46847095791385662 0.008000000000009777068 13.20865049704489103
0.010071403294361402914 16.84162780824632222 0.010071403294361402914 16.42743038410151257
0.012679145539692626699 21.03279458379026323 0.012679145539692626699 20.38388752228166823
0.015962098519750611558 26.22752489227007189 0.015962098519750611558 25.22501142527533347
0.020095091452091651263 32.64742604288021255 0.020095091452091651263 31.11657959906693094
0.025298221281360611101 40.55426576788055115 0.025298221281360611101 38.24031894728273073
0.031848573644296607199 50.25314545884813100 0.031848573644296607199 46.78786602607151224
0.040094978690191851456 62.09379574545364022 0.040094978690191851456 56.94997289353867131
0.050476587558435426217 76.46873787767331976 0.050476587558435426217 68.89970494344962049
0.063546258777947173257 93.80678699971133483 0.063546258777947173257 82.76825811319285719
0.080000000000012505552 114.56000724710553129 0.080000000000012505552 98.61282461371447994
0.100714032943542974863 139.18233280876324898 0.100714032943542974863 116.37551673756942705
0.126791455396883634421 168.09751534212804813 0.126791455396883634421 135.84131307139631417
0.159620985197506115583 201.65829015333957841 0.159620985197506115583 156.59350298661871648
0.200950914520774404082 240.09374801306543645 0.200950914520774404082 177.99213769985232148
0.252982212813464002465 283.45857013426541471 0.252982212813464002465 199.17771762314168882
0.318485736442809752589 331.58218717681876342 0.318485736442809752589 219.12359943820476360
0.400949786901833249431 384.04233057572946564 0.400949786901833249431 236.75972916283132008
0.504765875584169521062 440.17140856079038258 0.504765875584169521062 251.12526765779270477
0.635462587779443310865 499.10057530702084705 0.635462587779443310865 261.55646957040727330
0.800000000000011368684 559.85262524903578196 0.800000000000011368684 267.84107442103902486
1.007140329435344483500 621.45678116491126275 1.007140329435344483500 270.26448714599450796
1.267914553968907398485 683.06202367895605221 1.267914553968907398485 269.56958025886353880
1.596209851975117999245 744.03193394464312860 1.596209851975117999245 266.78528968769791163
2.009509145207687197399 803.97753775464673254 2.009509145207687197399 263.00895212092552811
2.529822128134725289783 862.75027535717686078 2.529822128134725289783 259.26046777522185494
3.184857364427983839050 920.40576674379212818 3.184857364427983839050 256.28878145491756868
4.009497869018204596614 977.10727857783592754 4.009497869018204596614 254.53242242066255585
5.009497869018190385759 1031.23872599427795649 5.009497869018190385759 254.14376517543945511
6.009497869018190385759 1075.10315456350758723 6.009497869018190385759 254.78286448608699288
7.009497869018204596614 1111.99346972335888495 7.009497869018204596614 255.94978984153573265
8.009497869018190385759 1143.82306400302741167 8.009497869018190385759 257.34879719933218212
9.009497869018204596614 1171.80305347168678054 9.009497869018204596614 258.85114733286332012
10.009497869018190385759 1196.74998521595671264 10.009497869018190385759 260.36558320394368593
11.009497869018190385759 1219.24170125319074032 11.009497869018190385759 261.77674886295119450
12.009497869018204596614 1239.70258929811006965 12.009497869018204596614 263.13320154997296640
13.009497869018190385759 1258.45260483904553439 13.009497869018190385759 264.42560051325602899
14.009497869018204596614 1275.74348270468294686 14.009497869018204596614 265.65064919253529752
15.009497869018190385759 1291.77337023708969355 15.009497869018190385759 266.81775768340577315
16.009497869018190385759 1306.70276448284971593 16.009497869018190385759 267.91940003678996618
17.009497869018204596614 1320.66327756894224876 17.009497869018204596614 268.94052395901661612
18.009497869018190385759 1333.76298534634474890 18.009497869018190385759 269.89270915826273267
19.009497869018204596614 1346.09156368319372632 19.009497869018204596614 270.74758674600127506
20.009497869018190385759 1357.72592474645989569 20.009497869018190385759 271.55499596281441654
21.009497869018190385759 1368.73157153451711565 21.009497869018190385759 272.31971652890439373
22.009497869018204596614 1379.16457286660556747 22.009497869018204596614 273.05684307589058335
23.009497869018190385759 1389.07885865106254641 23.009497869018190385759 273.78199654003662999
24.009497869018204596614 1398.51970719734708837 24.009497869018204596614 274.47010068457922216
25.009497869018204596614 1407.52590042485030608 25.009497869018204596614 275.13405638346932847
26.009497869018190385759 1416.13144093492996944 26.009497869018190385759 275.75022746824691922
27.009497869018204596614 1424.36734127996055577 27.009497869018204596614 276.31665097668144426
28.009497869018190385759 1432.25831514050696569 28.009497869018190385759 276.84257647897135257
29.009497869018190385759 1439.82465650745280072 29.009497869018190385759 277.34198497708473496
30.009497869018190385759 1447.08808133468164669 30.009497869018190385759 277.81278814552626955
31.009497869018218807469 1454.06997768744940913 31.009497869018218807469 278.24553094030000011
32.009497869018190385759 1460.78886096898372671 32.009497869018190385759 278.65173218538842548
33.009497869018190385759 1467.26147112125386229 33.009497869018190385759 279.06680014788952349
34.009497869018218807469 1473.50357552111495352 34.009497869018218807469 279.45657689291289216
35.009497869018190385759 1479.52853655271292155 35.009497869018190385759 279.83361529394971967
36.009497869018190385759 1485.34876246320504833 36.009497869018190385759 280.20207369787272000
37.009497869018190385759 1490.97577502464605459 37.009497869018190385759 280.55739334012741892
38.009497869018218807469 1496.41975653951203640 38.009497869018218807469 280.89959112048268253
39.009497869018190385759 1501.69025688887245451 39.009497869018190385759 281.22290362331284541
40.009497869018190385759 1506.79614114809714920 40.009497869018190385759 281.52560689960017726
41.009497869018218807469 1511.74574144065877590 41.009497869018218807469 281.82664020416837047
42.009497869018190385759 1516.54669832624449555 42.009497869018190385759 282.11150225816618331
43.009497869018190385759 1521.20610297079451811 43.009497869018190385759 282.38507528053179385
44.009497869018218807469 1525.73089185758476560 44.009497869018218807469 282.64502351840422989
46.009497869018190385759 1534.40166332280296047 46.009497869018190385759 283.13762583451580213
48.009497869018218807469 1542.60461280249728588 48.009497869018218807469 283.59925364085472665
50.009497869018190385759 1550.37927793795688558 50.009497869018190385759 284.03183514162503798
52.009497869018190385759 1557.76088639323097595 52.009497869018190385759 284.43900051388396832
54.009497869018218807469 1564.78072565905790725 54.009497869018218807469 284.82347359433998690
56.009497869018190385759 1571.46681770534496536 56.009497869018190385759 285.18389644971819052
58.009497869018218807469 1577.84395785863239325 58.009497869018218807469 285.51689202794176481
60.009497869018190385759 1583.93448288028389470 60.009497869018190385759 285.83695887832266180
62.009497869018190385759 1589.75851026683449163 62.009497869018190385759 286.13982213996399651
64.009497869018218807469 1595.33420914065322904 64.009497869018218807469 286.42571321905955983
66.009497869018190385759 1600.67799717032812623 66.009497869018190385759 286.68841019980709461
68.009497869018190385759 1605.80473168833987074 68.009497869018190385759 286.93474507668764772
70.009497869018190385759 1610.72816283511451729 70.009497869018190385759 287.17324329585602527
72.009497869018190385759 1615.46083604084174112 72.009497869018190385759 287.39837195552257754
74.009497869018218807469 1620.01422206937195369 74.009497869018218807469 287.61359639857079173
76.009497869018190385759 1624.39862803031201111 76.009497869018190385759 287.81818710320442278
78.009497869018190385759 1628.62350007545887820 78.009497869018190385759 288.00863980936196640
80.009497869018218807469 1632.69772770753297664 80.009497869018218807469 288.19747493544235795
82.009497869018190385759 1636.62985828210707950 82.009497869018190385759 288.38353338021931904
84.009497869018218807469 1640.42766701350251424 84.009497869018218807469 288.55680299472260231
86.009497869018190385759 1644.09832166949036036 86.009497869018190385759 288.72398352868492566
88.009497869018190385759 1647.64826859116215019 88.009497869018190385759 288.88559834800798853
91.009497869018218807469 1652.75994334656684259 91.009497869018218807469 289.12180740335600149
94.009497869018218807469 1657.63238580775009723 94.009497869018218807469 289.35877775810467938
97.009497869018218807469 1662.28317008965427704 97.009497869018218807469 289.61586612227984006
99.504748934509137825444 1665.99446998789517238 99.504748934509137825444 289.71044874152750026
nan nan nan nan

