Time Pressure difference Time.1 Pressure.1 difference.1
(hr) (psi) (hr) (psi)
0.000200000000020850166 0.48756062641012476 0.000200000000020850166 0.38924256991138256
0.000399999999999067768 0.97374808392073831 0.000399999999999067768 1.01360194583178043
0.000600000000019917934 1.45876912893658139 0.000600000000019917934 1.48054397108890856
0.000799999999998135536 1.94272704082052439 0.000799999999998135536 1.95446289435431986
0.001007140329434719206 2.44291701151942142 0.001007140329434719206 2.45045375161604229
0.001267914553977789183 3.07119093249929032 0.001267914553977789183 3.07719813672066556
0.001596209851982166583 3.86000052573247787 0.001596209851982166583 3.86236752431968666
0.002009509145224797066 4.84984752473908554 0.002009509145224797066 4.84507691466806723
0.002529822128153114136 6.09119449920784728 0.002529822128153114136 6.07363360302110333
0.003184857364431081805 7.64678594050313176 0.003184857364431081805 7.60746483508968296
0.004009497869034817086 9.59444607409393768 0.004009497869034817086 9.51933806399970095
0.005047658755856332391 12.03042127753203694 0.005047658755856332391 11.89785160047453694
0.006354625877790454069 15.07332313008521041 0.006354625877790454069 14.85014662623215465
0.008000000000009777068 18.86871706991750486 0.008000000000009777068 18.50472038607482617
0.010071403294361402914 23.59435685785343395 0.010071403294361402914 23.01408504884865991
0.012679145539692626699 29.46599145748182380 0.012679145539692626699 28.55690208968816179
0.015962098519750611558 36.74357305909911986 0.015962098519750611558 35.33909715187737532
0.020095091452091651263 45.73756345386798472 0.020095091452091651263 43.59291700394341262
0.025298221281360611101 56.81468736454864654 0.025298221281360611101 53.57295279726722015
0.031848573644296607199 70.40237800559391701 0.031848573644296607199 65.54767865705005647
0.040094978690191851456 86.99059213026559689 0.040094978690191851456 79.78432956684295618
0.050476587558435426217 107.12923421048743933 0.050476587558435426217 96.52536229547713731
0.063546258777947173257 131.41905481821135027 0.063546258777947173257 115.95457640201480842
0.080000000000012505552 160.49337530799749629 0.080000000000012505552 138.15209558054988292
0.100714032943542974863 194.98813689437713492 0.100714032943542974863 163.03682177793137953
0.126791455396883634421 235.49699643395982207 0.126791455396883634421 190.30751974441440666
0.159620985197506115583 282.51412009549005688 0.159620985197506115583 219.38039678554937950
0.200950914520774404082 336.36045366030884907 0.200950914520774404082 249.35891367497211490
0.252982212813464002465 397.11260302819522394 0.252982212813464002465 279.03895046487872378
0.318485736442809752589 464.53160828828788453 0.318485736442809752589 306.98222642058755127
0.400949786901833249431 538.02589032924390722 0.400949786901833249431 331.68964443575657697
0.504765875584169521062 616.66018335366095471 0.504765875584169521062 351.81511244659748172
0.635462587779443310865 699.21727375947796190 0.635462587779443310865 366.42875331224121283
0.800000000000011368684 784.32814086201426562 0.800000000000011368684 375.23319972589479221
1.007140329435344483500 870.63276979427905644 1.007140329435344483500 378.62829106133358437
1.267914553968907398485 956.93892100130608469 1.267914553968907398485 377.65475802375391368
1.596209851975117999245 1042.35500053819941968 1.596209851975117999245 373.75409319016392828
2.009509145207687197399 1126.33607317894416155 2.009509145207687197399 368.46361550115346972
2.529822128134725289783 1208.67401344788277129 2.529822128134725289783 363.21215891182635005
3.184857364427983839050 1289.44674243104054767 3.184857364427983839050 359.04896113135231417
4.009497869018204596614 1368.88298932026168586 4.009497869018204596614 356.58838176832676936
5.009497869018190385759 1444.71869250272357021 5.009497869018190385759 356.04389059184478583
6.009497869018190385759 1506.17076784911432696 6.009497869018190385759 356.93923974542491351
7.009497869018204596614 1557.85242655754586849 7.009497869018204596614 358.57404925293906217
8.009497869018190385759 1602.44424479660392535 8.009497869018190385759 360.53399512173746189
9.009497869018204596614 1641.64294125985725259 9.009497869018204596614 362.63871953315225483
10.009497869018190385759 1676.59246138846447138 10.009497869018190385759 364.76037551483284460
11.009497869018190385759 1708.10233564587815636 11.009497869018190385759 366.73735461229671273
12.009497869018204596614 1736.76711197611120951 12.009497869018204596614 368.63768331702658543
13.009497869018190385759 1763.03503350959363161 13.009497869018190385759 370.44827565938248881
14.009497869018204596614 1787.25876932613095960 14.009497869018204596614 372.16451330791932151
15.009497869018190385759 1809.71591486675811211 15.009497869018190385759 373.79957937985494709
16.009497869018190385759 1830.63131921582998984 16.009497869018190385759 375.34293036180361014
17.009497869018204596614 1850.18936499515302785 17.009497869018204596614 376.77347867289438454
18.009497869018190385759 1868.54146157113200388 18.009497869018190385759 378.10744695918907610
19.009497869018204596614 1885.81324076857913496 19.009497869018204596614 379.30509169427864435
20.009497869018190385759 1902.11245304575663795 20.009497869018190385759 380.43623539420542556
21.009497869018190385759 1917.53086513308244321 21.009497869018190385759 381.50757423023122783
22.009497869018204596614 1932.14702690381250250 22.009497869018204596614 382.54025509677273931
23.009497869018190385759 1946.03649171401821150 23.009497869018190385759 383.55616221718730685
24.009497869018204596614 1959.26269242205921728 24.009497869018204596614 384.52016492087830102
25.009497869018204596614 1971.87996073839417477 25.009497869018204596614 385.45033674724697903
26.009497869018190385759 1983.93593276564160988 26.009497869018190385759 386.31356449608819048
27.009497869018204596614 1995.47405568338126614 27.009497869018204596614 387.10709814632940606
28.009497869018190385759 2006.52895223741643349 28.009497869018190385759 387.84389592638711974
29.009497869018190385759 2017.12905338872269567 29.009497869018190385759 388.54354458603518196
30.009497869018190385759 2027.30478220395707467 30.009497869018190385759 389.20311847595206700
31.009497869018218807469 2037.08610239268023179 31.009497869018218807469 389.80937150824843229
32.009497869018190385759 2046.49895319521124293 32.009497869018190385759 390.37844103299050857
33.009497869018190385759 2055.56678651115953471 33.009497869018190385759 390.95993242675695001
34.009497869018218807469 2064.31169172051158966 34.009497869018218807469 391.50599197169418630
35.009497869018190385759 2072.75238891752360360 35.009497869018190385759 392.03420567434005761
36.009497869018190385759 2080.90626149379795606 36.009497869018190385759 392.55039919009857385
37.009497869018190385759 2088.78945092951607876 37.009497869018190385759 393.04818589655093319
38.009497869018218807469 2096.41622216871928686 38.009497869018218807469 393.52758946950672225
39.009497869018190385759 2103.79995416173824196 39.009497869018190385759 393.98053562502303748
40.009497869018190385759 2110.95306647716688531 40.009497869018190385759 394.40460918870002160
41.009497869018218807469 2117.88723204216421436 41.009497869018218807469 394.82634319772517983
42.009497869018190385759 2124.61315493438087287 42.009497869018190385759 395.22542201800365547
43.009497869018190385759 2131.14076955574319072 43.009497869018190385759 395.60868541687869993
44.009497869018218807469 2137.47979360477847877 44.009497869018218807469 395.97286111050897262
46.009497869018190385759 2149.62715124220858343 46.009497869018190385759 396.66297461780618505
48.009497869018218807469 2161.11911149180377834 48.009497869018218807469 397.30969424148378266
50.009497869018190385759 2172.01106479613554257 50.009497869018190385759 397.91572130819542963
52.009497869018190385759 2182.35236351509956876 52.009497869018190385759 398.48614153138402116
54.009497869018218807469 2192.18684000445591664 54.009497869018218807469 399.02477088276265249
56.009497869018190385759 2201.55375177335918124 56.009497869018190385759 399.52970695939035295
58.009497869018218807469 2210.48783594992210055 58.009497869018218807469 399.99621866444340412
60.009497869018190385759 2219.02038532392998604 60.009497869018190385759 400.44461780805585249
62.009497869018190385759 2227.17958359578005911 62.009497869018190385759 400.86891550395915829
64.009497869018218807469 2234.99088488201277869 64.009497869018218807469 401.26943594173735619
66.009497869018190385759 2242.47728959184405539 66.009497869018190385759 401.63746249949110734
68.009497869018190385759 2249.65961217435688013 68.009497869018190385759 401.98256649168405374
70.009497869018190385759 2256.55711595277398374 70.009497869018190385759 402.31669168178393647
72.009497869018190385759 2263.18737650590492194 72.009497869018190385759 402.63208672527861154
74.009497869018218807469 2269.56646385375006503 74.009497869018218807469 402.93360641040823111
76.009497869018190385759 2275.70881778948250940 76.009497869018190385759 403.22022871021715673
78.009497869018190385759 2281.62767194342359289 78.009497869018190385759 403.48704431526363123
80.009497869018218807469 2287.33548010578033427 80.009497869018218807469 403.75159376397294864
82.009497869018190385759 2292.84421673412134624 82.009497869018190385759 404.01225320808765673
84.009497869018218807469 2298.16477455113590622 84.009497869018218807469 404.25499608091206483
86.009497869018190385759 2303.30719527444080086 86.009497869018190385759 404.48920842801447861
88.009497869018190385759 2308.28050993559008930 88.009497869018190385759 404.71562346129047683
91.009497869018218807469 2315.44173447359116835 91.009497869018218807469 405.04654163668254796
94.009497869018218807469 2322.26780541563084626 94.009497869018218807469 405.37852635801306178
97.009497869018218807469 2328.78334329982590134 97.009497869018218807469 405.73869549827753644
99.504748934509137825444 2333.98270616442596292 99.504748934509137825444 405.87120145889406331
nan nan nan nan

