Time Pressure difference Time.1 Pressure.1 difference.1
(hr) (psi) (hr) (psi)
0.000200000000020850166 0.67942860716095765 0.000200000000020850166 0.54241979929729300
0.000399999999999067768 1.35694366720130133 0.000399999999999067768 1.41248107613355445
0.000600000000019917934 2.03283330063053391 0.000600000000019917934 2.06317711814433968
0.000799999999998135536 2.70724142996795392 0.000799999999998135536 2.72359565175780816
0.001007140329434719206 3.40426936187885332 0.001007140329434719206 3.41477200821451854
0.001267914553977789183 4.27978566062081711 0.001267914553977789183 4.28815685832624283
0.001596209851982166583 5.37901265766467951 0.001596209851982166583 5.38231113269762229
0.002009509145224797066 6.75839058813725924 0.002009509145224797066 6.75174261703318379
0.002529822128153114136 8.48824037538674503 0.002529822128153114136 8.46376880284712563
0.003184857364431081805 10.65599812492599874 0.003184857364431081805 10.60120312624082040
0.004009497869034817086 13.37011394992988400 0.004009497869034817086 13.26544895460265039
0.005047658755856332391 16.76470971894583784 0.005047658755856332391 16.57997037340403779
0.006354625877790454069 21.00507379967581301 0.006354625877790454069 20.69407144848024060
0.008000000000009777068 26.29405547392251563 0.008000000000009777068 25.78681648349098410
0.010071403294361402914 32.87935930106321791 0.010071403294361402914 32.07073521287598794
0.012679145539692626699 41.06163715880772713 0.012679145539692626699 39.79479711987208645
0.015962098519750611558 51.20313928848906926 0.015962098519750611558 49.24596502595517933
0.020095091452091651263 63.73650239397616701 0.020095091452091651263 60.74788093564857405
0.025298221281360611101 79.17276705996728481 0.025298221281360611101 74.65532434099588954
0.031848573644296607199 98.10757275736938254 0.031848573644296607199 91.34242102464556012
0.040094978690191851456 121.22368715938203820 0.040094978690191851456 111.18156999263635498
0.050476587558435426217 149.28741666810685729 0.050476587558435426217 134.51064115451498537
0.063546258777947173257 183.13592306864887860 0.063546258777947173257 161.58576404914501268
0.080000000000012505552 223.65175639172394995 0.080000000000012505552 192.51859315994855137
0.100714032943542974863 271.72111751209627073 0.100714032943542974863 227.19611620842908906
0.126791455396883634421 328.17128293522853255 0.126791455396883634421 265.19855391981428738
0.159620985197506115583 393.69088626594697189 0.159620985197506115583 305.71237575907900919
0.200950914520774404082 468.72717392526857338 0.200950914520774404082 347.48823064076179890
0.252982212813464002465 553.38689825734866190 0.252982212813464002465 388.84814562226711132
0.318485736442809752589 647.33706231655787633 0.318485736442809752589 427.78783852136393762
0.400949786901833249431 749.75328499032627860 0.400949786901833249431 462.21827793602869860
0.504765875584169521062 859.33224869385799138 0.504765875584169521062 490.26364903120395411
0.635462587779443310865 974.37773413160641667 0.635462587779443310865 510.62814345726292231
0.800000000000011368684 1092.98197482985960960 0.800000000000011368684 522.89737202007142969
1.007140329435344483500 1213.24975415965968750 1.007140329435344483500 527.62852144492489970
1.267914553968907398485 1333.51965481953720882 1.267914553968907398485 526.27187745047820044
1.596209851975117999245 1452.54921710433904991 1.596209851975117999245 520.83619800605470118
2.009509145207687197399 1569.57905938735325435 2.009509145207687197399 513.46377764896681128
2.529822128134725289783 1684.31915332260336982 2.529822128134725289783 506.14573422465741714
3.184857364427983839050 1796.87808400100698236 3.184857364427983839050 500.34420818645008922
4.009497869018204596614 1907.57459159109748725 4.009497869018204596614 496.91532587136509846
5.009497869018190385759 2013.25364645183640278 5.009497869018190385759 496.15656303940210137
6.009497869018190385759 2098.88873611682356568 6.009497869018190385759 497.40425572701462897
7.009497869018204596614 2170.90849220455265822 7.009497869018204596614 499.68240594361861895
8.009497869018190385759 2233.04836838777191588 8.009497869018190385759 502.41364226504464341
9.009497869018204596614 2287.67278696859148113 9.009497869018204596614 505.34663130854949031
10.009497869018190385759 2336.37586612566246913 10.009497869018190385759 508.30321494230537382
11.009497869018190385759 2380.28570793582366605 11.009497869018190385759 511.05818751764695662
12.009497869018204596614 2420.23083065836317473 12.009497869018204596614 513.70634574672521921
13.009497869018190385759 2456.83587293159735054 13.009497869018190385759 516.22945398530646344
14.009497869018204596614 2490.59228843062192027 14.009497869018204596614 518.62107646657250370
15.009497869018190385759 2521.88691373255232975 15.009497869018190385759 520.89958421247240494
16.009497869018190385759 2551.03308197367778121 16.009497869018190385759 523.05028455869739901
17.009497869018204596614 2578.28773520619279225 17.009497869018204596614 525.04379140447645113
18.009497869018190385759 2603.86186638021490580 18.009497869018190385759 526.90271143546283383
19.009497869018204596614 2627.93054676098427080 19.009497869018204596614 528.57166099816004134
20.009497869018190385759 2650.64392945728923223 20.009497869018190385759 530.14793961236807718
21.009497869018190385759 2672.12989383110971175 21.009497869018190385759 531.64087856955563893
22.009497869018204596614 2692.49790120497164025 22.009497869018204596614 533.07994662548583165
23.009497869018190385759 2711.85323717558276257 23.009497869018190385759 534.49564002326951595
24.009497869018204596614 2730.28429710603813874 24.009497869018204596614 535.83900324578951313
25.009497869018204596614 2747.86679366951648262 25.009497869018204596614 537.13522224744122013
26.009497869018190385759 2764.66710903287048495 26.009497869018190385759 538.33815290936979636
27.009497869018204596614 2780.74578798808533975 27.009497869018204596614 539.44396300459527538
28.009497869018190385759 2796.15107824566757699 28.009497869018190385759 540.47071016658367171
29.009497869018190385759 2810.92259910046868754 29.009497869018190385759 541.44568904834204659
30.009497869018190385759 2825.10274589921118604 30.009497869018190385759 542.36482268028760245
31.009497869018218807469 2838.73327386237178871 31.009497869018218807469 543.20965228917759759
32.009497869018190385759 2851.85033000627345245 32.009497869018190385759 544.00266569844336573
33.009497869018190385759 2864.48659517228043114 33.009497869018190385759 544.81298931019955489
34.009497869018218807469 2876.67285149468261807 34.009497869018218807469 545.57393770501846575
35.009497869018190385759 2888.43518591913880300 35.009497869018190385759 546.31001744737682202
36.009497869018190385759 2899.79782266086294840 36.009497869018190385759 547.02934674190908027
37.009497869018190385759 2910.78325529871244726 37.009497869018190385759 547.72302566163307347
38.009497869018218807469 2921.41136240887999520 38.009497869018218807469 548.39108719941475556
39.009497869018190385759 2931.70078791192781864 39.009497869018190385759 549.02227962737458711
40.009497869018190385759 2941.66883880463819878 40.009497869018190385759 549.61323733621236443
41.009497869018218807469 2951.33178161923387961 41.009497869018218807469 550.20093481386572876
42.009497869018190385759 2960.70453277056822117 42.009497869018190385759 550.75706168778026495
43.009497869018190385759 2969.80093611004758714 43.009497869018190385759 551.29114935435563893
44.009497869018218807469 2978.63453350717054491 44.009497869018218807469 551.79863779965307913
46.009497869018190385759 2995.56219713139125815 46.009497869018190385759 552.76032919483043315
48.009497869018218807469 3011.57654718960066020 48.009497869018218807469 553.66155006734879862
50.009497869018190385759 3026.75477172613045695 50.009497869018190385759 554.50606478722977499
52.009497869018190385759 3041.16564455766820174 52.009497869018190385759 555.30096043044648013
54.009497869018218807469 3054.87024722937849219 54.009497869018218807469 556.05155465434381767
56.009497869018190385759 3067.92328611687844386 56.009497869018190385759 556.75519641018956918
58.009497869018218807469 3080.37316832544502176 58.009497869018218807469 557.40529278963333581
60.009497869018190385759 3092.26350118394339006 60.009497869018190385759 558.03014883643902522
62.009497869018190385759 3103.63355942307998703 62.009497869018190385759 558.62141887945244889
64.009497869018218807469 3114.51881402638264262 64.009497869018218807469 559.17955468541924802
66.009497869018190385759 3124.95131667142823062 66.009497869018190385759 559.69240941155658220
68.009497869018190385759 3134.96007284263032489 68.009497869018190385759 560.17332093730419729
70.009497869018190385759 3144.57192648955560799 70.009497869018190385759 560.63893321243494938
72.009497869018190385759 3153.81136964536653977 72.009497869018190385759 561.07844453369318671
74.009497869018218807469 3162.70079630727013864 74.009497869018218807469 561.49862017668476710
76.009497869018190385759 3171.26032870834205823 76.009497869018190385759 561.89803591985969433
78.009497869018190385759 3179.50840826187459243 78.009497869018190385759 562.26985051087831380
80.009497869018218807469 3187.46238965336988258 80.009497869018218807469 562.63850715320256768
82.009497869018190385759 3195.13895960564104826 82.009497869018190385759 563.00174297140665658
84.009497869018218807469 3202.55329741538207600 84.009497869018218807469 563.34001157442253316
86.009497869018190385759 3209.71939648124816813 86.009497869018190385759 563.66639266459253577
88.009497869018190385759 3216.64984178417853400 88.009497869018190385759 563.98190799205372059
91.009497869018218807469 3226.62919727324970154 91.009497869018218807469 564.44305120750652804
94.009497869018218807469 3236.14150737646696143 94.009497869018218807469 564.90568068288700943
97.009497869018218807469 3245.22108146381151528 97.009497869018218807469 565.40758589027439029
99.504748934509137825444 3252.46653090715562939 99.504748934509137825444 565.59223644527321539
nan nan nan nan

