Time Pressure difference Time.1 Pressure.1 difference.1
(hr) (psi) (hr) (psi)
0.000200000000020850166 0.82063015143646223 0.000200000000020850166 0.65514763044709701
0.000399999999999067768 1.63894907481037366 0.000399999999999067768 1.70602848804395091
0.000600000000019917934 2.45530476897673289 0.000600000000019917934 2.49195475883448347
0.000799999999998135536 3.26987106700285857 0.000799999999998135536 3.28962408794219385
0.001007140329434719206 4.11175810456761237 0.001007140329434719206 4.12444345246447952
0.001267914553977789183 5.16922766832929970 0.001267914553977789183 5.17933860149917802
0.001596209851982166583 6.49690037380526153 0.001596209851982166583 6.50088435098441408
0.002009509145224797066 8.16294608933937837 0.002009509145224797066 8.15491651054863809
0.002529822128153114136 10.25230011110281580 0.002529822128153114136 10.22274275942904609
0.003184857364431081805 12.87056986238005685 0.003184857364431081805 12.80438715003169925
0.004009497869034817086 16.14874398842386682 0.004009497869034817086 16.02232709920222220
0.005047658755856332391 20.24881809574387148 0.005047658755856332391 20.02568548768116230
0.006354625877790454069 25.37043143530526024 0.006354625877790454069 24.99479534364117583
0.008000000000009777068 31.75859023011668114 0.008000000000009777068 31.14593482358079868
0.010071403294361402914 39.71247798221327940 0.010071403294361402914 38.73580243315583260
0.012679145539692626699 49.59522923337656408 0.012679145539692626699 48.06510947974770431
0.015962098519750611558 61.84437850492322752 0.015962098519750611558 59.48045653501677776
0.020095091452091651263 76.98247477414237494 0.020095091452091651263 73.37274616677358097
0.025298221281360611101 95.62676510421475484 0.025298221281360611101 90.17048954633732194
0.031848573644296607199 118.49667712014785081 0.031848573644296607199 110.32556475837385790
0.040094978690191851456 146.41687397734651199 0.040094978690191851456 134.28776424538472156
0.050476587558435426217 180.31291890964496361 0.050476587558435426217 162.46517537978095902
0.063546258777947173257 221.19595598022627314 0.063546258777947173257 195.16715755569100565
0.080000000000012505552 270.13195026286462053 0.080000000000012505552 232.52856973353198100
0.100714032943542974863 328.19127640825320213 0.100714032943542974863 274.41291297546200667
0.126791455396883634421 396.37313880196307991 0.126791455396883634421 320.31316781513021397
0.159620985197506115583 475.50928561217062907 0.159620985197506115583 369.24673257942549753
0.200950914520774404082 566.13991178259823300 0.200950914520774404082 419.70461109177585968
0.252982212813464002465 668.39395535239680157 0.252982212813464002465 469.66010742640577291
0.318485736442809752589 781.86921463173496250 0.318485736442809752589 516.69240153925125014
0.400949786901833249431 905.56998235995399682 0.400949786901833249431 558.27831124791737238
0.504765875584169521062 1037.92208032950088636 0.504765875584169521062 592.15218244844675155
0.635462587779443310865 1176.87677423230707063 0.635462587779443310865 616.74890676745201290
0.800000000000011368684 1320.12981800965940238 0.800000000000011368684 631.56797500712787041
1.007140329435344483500 1465.39212360604369678 1.007140329435344483500 637.28237064497034225
1.267914553968907398485 1610.65699139572461718 1.267914553968907398485 635.64378352209348577
1.596209851975117999245 1754.42374877638985708 1.596209851975117999245 629.07843964545475046
2.009509145207687197399 1895.77519642384459075 2.009509145207687197399 620.17385368848317739
2.529822128134725289783 2034.36103115248397444 2.529822128134725289783 611.33494549384056427
3.184857364427983839050 2170.31240463691301557 3.184857364427983839050 604.32772333522336794
4.009497869018204596614 2304.01429888998109163 4.009497869018204596614 600.18623711602526782
5.009497869018190385759 2431.65599351395394478 5.009497869018190385759 599.26978518695500497
6.009497869018190385759 2535.08810670344973914 6.009497869018190385759 600.77677831086862170
7.009497869018204596614 2622.07529376295588008 7.009497869018204596614 603.52838272896724447
8.009497869018190385759 2697.12932514317662935 8.009497869018190385759 606.82723540081190094
9.009497869018204596614 2763.10600675424029760 9.009497869018204596614 610.36976984455600359
10.009497869018190385759 2821.93075272879514159 10.009497869018190385759 613.94080239975266977
11.009497869018190385759 2874.96611178556668165 11.009497869018190385759 617.26832428781801809
12.009497869018204596614 2923.21278813014987463 12.009497869018204596614 620.46683324910100055
13.009497869018190385759 2967.42523527679486506 13.009497869018190385759 623.51430383555350545
14.009497869018204596614 3008.19704274994455773 14.009497869018204596614 626.40296277380639367
15.009497869018190385759 3045.99544103638345405 15.009497869018190385759 629.15499902435544755
16.009497869018190385759 3081.19888140586044756 16.009497869018190385759 631.75266643519921672
17.009497869018204596614 3114.11770462557251449 17.009497869018204596614 634.16047176970982946
18.009497869018190385759 3145.00675303624939261 18.009497869018190385759 636.40571992449542904
19.009497869018204596614 3174.07748190691017953 19.009497869018204596614 638.42151719582170699
20.009497869018190385759 3201.51124976014898493 20.009497869018190385759 640.32538427508507084
21.009497869018190385759 3227.46251235346744579 21.009497869018190385759 642.12859171970774241
22.009497869018204596614 3252.06347969500257022 22.009497869018204596614 643.86673259899748700
23.009497869018190385759 3275.44131825119256973 23.009497869018190385759 645.57664100610065816
24.009497869018204596614 3297.70279405961582597 24.009497869018204596614 647.19918729442531458
25.009497869018204596614 3318.93935470107908259 25.009497869018204596614 648.76479166316869396
26.009497869018190385759 3339.23117814728129815 26.009497869018190385759 650.21772013992347183
27.009497869018204596614 3358.65139184868985467 27.009497869018204596614 651.55334406912004397
28.009497869018190385759 3377.25827054611181666 28.009497869018190385759 652.79347389313522854
29.009497869018190385759 3395.09966737318245578 29.009497869018190385759 653.97107674787525866
30.009497869018190385759 3412.22678844550227950 30.009497869018190385759 655.08122837178984810
31.009497869018218807469 3428.69006671885472315 31.009497869018218807469 656.10163381626830414
32.009497869018190385759 3444.53316142567018687 32.009497869018190385759 657.05945441327878598
33.009497869018190385759 3459.79554526920901480 33.009497869018190385759 658.03818268762495336
34.009497869018218807469 3474.51439764883389216 34.009497869018218807469 658.95727439188044627
35.009497869018190385759 3488.72122700257841643 35.009497869018190385759 659.84632914181929664
36.009497869018190385759 3502.44529191801075285 36.009497869018190385759 660.71515229951853598
37.009497869018190385759 3515.71376067864048309 37.009497869018190385759 661.55299431991863912
38.009497869018218807469 3528.55064310510215364 38.009497869018218807469 662.35989505259396992
39.009497869018190385759 3540.97845777137490586 39.009497869018190385759 663.12226439100982134
40.009497869018190385759 3553.01810848286368127 40.009497869018190385759 663.83603727161096231
41.009497869018218807469 3564.68924234694759434 41.009497869018218807469 664.54587236686961660
42.009497869018190385759 3576.00987576689612979 42.009497869018190385759 665.21757573047295864
43.009497869018190385759 3586.99672967815058655 43.009497869018190385759 665.86265961137326030
44.009497869018218807469 3597.66616027516420218 44.009497869018218807469 666.47561631547341676
46.009497869018190385759 3618.11179800221816549 46.009497869018190385759 667.63717022554089908
48.009497869018218807469 3637.45431372044686213 48.009497869018218807469 668.72568638941390873
50.009497869018190385759 3655.78693699928726346 50.009497869018190385759 669.74571150340216263
52.009497869018190385759 3673.19273450241598766 52.009497869018190385759 670.70580550767874684
54.009497869018218807469 3689.74548198364982454 54.009497869018218807469 671.61239119620017846
56.009497869018190385759 3705.51125511427380843 56.009497869018190385759 672.46226656878650374
58.009497869018218807469 3720.54852115591620532 58.009497869018218807469 673.24746855275998314
60.009497869018190385759 3734.90995008525214871 60.009497869018190385759 674.00218465819284575
62.009497869018190385759 3748.64297886308486341 62.009497869018190385759 674.71633478349508550
64.009497869018218807469 3761.79045019323484667 64.009497869018218807469 675.39046458336713386
66.009497869018190385759 3774.39107685986664364 66.009497869018190385759 676.00990281004646931
68.009497869018190385759 3786.47989238205218498 68.009497869018190385759 676.59075927390779270
70.009497869018190385759 3798.08931952528246256 70.009497869018190385759 677.15313693629059344
72.009497869018190385759 3809.24894035406077819 72.009497869018190385759 677.68398924118434934
74.009497869018218807469 3819.98580287479626350 74.009497869018218807469 678.19148745056781991
76.009497869018190385759 3830.32421120274057103 76.009497869018190385759 678.67391135552736614
78.009497869018190385759 3840.28643931874330519 78.009497869018190385759 679.12299792756459738
80.009497869018218807469 3849.89344862778671086 80.009497869018218807469 679.56827025350128224
82.009497869018190385759 3859.16539375351248964 82.009497869018190385759 680.00699517817815831
84.009497869018218807469 3868.12060861417830893 84.009497869018218807469 680.41556410211433104
86.009497869018190385759 3876.77599477197236411 86.009497869018190385759 680.80977500319988849
88.009497869018190385759 3885.14675266842050405 88.009497869018190385759 681.19086197573244590
91.009497869018218807469 3897.20005734226288041 91.009497869018218807469 681.74784180075357654
94.009497869018218807469 3908.68925340825035164 94.009497869018218807469 682.30661676612760402
97.009497869018218807469 3919.65578054553316178 97.009497869018218807469 682.91282990170043377
99.504748934509137825444 3928.40700799055002790 99.504748934509137825444 683.13585526641793422
nan nan nan nan

