Time Pressure difference Time.1 Pressure.1 difference.1
(hr) (psi) (hr) (psi)
0.000200000000020850166 0.61048902966174068 0.000200000000020850166 0.48738209350062378
0.000399999999999067768 1.21925867407451882 0.000399999999999067768 1.26916086914200799
0.000600000000019917934 1.82656781902621335 0.000600000000019917934 1.85383274063091652
0.000799999999998135536 2.43254578365091190 0.000799999999998135536 2.44724059173837327
0.001007140329434719206 3.05884838750728250 0.001007140329434719206 3.06828536190424339
0.001267914553977789183 3.84552868038667484 0.001267914553977789183 3.85305047783592736
0.001596209851982166583 4.83322041978427830 0.001596209851982166583 4.83618420847524710
0.002009509145224797066 6.07263701990328375 0.002009509145224797066 6.06666359843446212
0.002529822128153114136 7.62696415147830997 0.002529822128153114136 7.60497563581006908
0.003184857364431081805 9.57476604134548737 0.003184857364431081805 9.52553092638997789
0.004009497869034817086 12.01348869584164269 0.004009497869034817086 11.91944374282756591
0.005047658755856332391 15.06364504086209166 0.005047658755856332391 14.89765064113932524
0.006354625877790454069 18.87375213051555178 0.006354625877790454069 18.59430625260755221
0.008000000000009777068 23.62607674001595370 0.008000000000009777068 23.17030576450595447
0.010071403294361402914 29.54318959203113337 0.010071403294361402914 28.81661415826876294
0.012679145539692626699 36.89523632240058504 0.012679145539692626699 35.75693873240340537
0.015962098519750611558 46.00771072987708976 0.015962098519750611558 44.24912505388393669
0.020095091452091651263 57.26935117307149170 0.020095091452091651263 54.58397614633459938
0.025298221281360611101 71.13934448542292444 0.025298221281360611101 67.08027309368212343
0.031848573644296607199 88.15289239201281646 0.031848573644296607199 82.07418026053116478
0.040094978690191851456 108.92348418355231843 0.040094978690191851456 99.90031044570625340
0.050476587558435426217 134.13967145606176246 0.050476587558435426217 120.86225091512044116
0.063546258777947173257 164.55367170593754622 0.063546258777947173257 145.19014251359607215
0.080000000000012505552 200.95848526640233445 0.080000000000012505552 172.98431047990487741
0.100714032943542974863 244.15039287456079364 0.100714032943542974863 204.14320955158359538
0.126791455396883634421 294.87272977676400387 0.126791455396883634421 238.28965419445412977
0.159620985197506115583 353.74425599690835043 0.159620985197506115583 274.69266037032161876
0.200950914520774404082 421.16683720668993374 0.200950914520774404082 312.22964489114906428
0.252982212813464002465 497.23639391094297935 0.252982212813464002465 349.39289368259937874
0.318485736442809752589 581.65371736267729830 0.318485736442809752589 384.38149304792483463
0.400949786901833249431 673.67807392162569613 0.400949786901833249431 415.31837931904783545
0.504765875584169521062 772.13838971880886675 0.504765875584169521062 440.51807095102066114
0.635462587779443310865 875.51055572949974248 0.635462587779443310865 458.81624137052352808
0.800000000000011368684 982.08038080678090864 0.800000000000011368684 469.84054820874388270
1.007140329435344483500 1090.14495025348378476 1.007140329435344483500 474.09164212960854456
1.267914553968907398485 1198.21142578528088052 1.267914553968907398485 472.87265272139541139
1.596209851975117999245 1305.16341634680816242 1.596209851975117999245 467.98851532328870917
2.009509145207687197399 1410.31859248130149354 2.009509145207687197399 461.36415228849710957
2.529822128134725289783 1513.41635414683787531 2.529822128134725289783 454.78864872264455244
3.184857364427983839050 1614.55426863171192053 3.184857364427983839050 449.57578608440195467
4.009497869018204596614 1714.01873449811341743 4.009497869018204596614 446.49482214603096963
5.009497869018190385759 1808.97485347444921899 5.009497869018190385759 445.81304869677325087
6.009497869018190385759 1885.92080812452991267 6.009497869018190385759 446.93414175960367629
7.009497869018204596614 1950.63293614956751298 7.009497869018204596614 448.98113492488960219
8.009497869018190385759 2006.46766597189798631 8.009497869018190385759 451.43524091052307767
9.009497869018204596614 2055.54950907324564469 9.009497869018204596614 454.07062837626386909
10.009497869018190385759 2099.31083325472127399 10.009497869018190385759 456.72721636013994839
11.009497869018190385759 2138.76527546800753043 11.009497869018190385759 459.20265015338691228
12.009497869018204596614 2174.65728671625493007 12.009497869018204596614 461.58210773085954770
13.009497869018190385759 2207.54812543364823796 13.009497869018190385759 463.84920376430352462
14.009497869018204596614 2237.87937896883522626 14.009497869018204596614 465.99815550480531101
15.009497869018190385759 2265.99863275479947333 15.009497869018190385759 468.04546992196486599
16.009497869018190385759 2292.18742695678884047 16.009497869018190385759 469.97794517193466390
17.009497869018204596614 2316.67663248967210166 17.009497869018204596614 471.76917687321537187
18.009497869018190385759 2339.65583348344489423 18.009497869018190385759 473.43947787905278801
19.009497869018204596614 2361.28233724856181652 19.009497869018204596614 474.93908414871350487
20.009497869018190385759 2381.69106130942282107 20.009497869018190385759 476.35542251233556499
21.009497869018190385759 2400.99690949372325122 21.009497869018190385759 477.69687744330485657
22.009497869018204596614 2419.29823641278062496 22.009497869018204596614 478.98992759135944652
23.009497869018190385759 2436.68964465043200107 23.009497869018190385759 480.26197483753435336
24.009497869018204596614 2453.25056035811485344 24.009497869018204596614 481.46903103380833500
25.009497869018204596614 2469.04901387175368654 25.009497869018204596614 482.63372659152730648
26.009497869018190385759 2484.14465175936402375 26.009497869018190385759 483.71459949680541968
27.009497869018204596614 2498.59187551496643209 27.009497869018204596614 484.70820636720969787
28.009497869018190385759 2512.43403729898000165 28.009497869018190385759 485.63077258244385348
29.009497869018190385759 2525.70673635555567671 29.009497869018190385759 486.50682328915820563
30.009497869018190385759 2538.44806630308085005 30.009497869018190385759 487.33269519561287098
31.009497869018218807469 2550.69554558538266065 31.009497869018218807469 488.09180248477440500
32.009497869018190385759 2562.48165348974453082 32.009497869018190385759 488.80435120825899276
33.009497869018190385759 2573.83575483083859581 33.009497869018190385759 489.53245372004488445
34.009497869018218807469 2584.78550837236116422 34.009497869018218807469 490.21619096966816187
35.009497869018190385759 2595.35435409604815504 35.009497869018190385759 490.87758291420772139
36.009497869018190385759 2605.56405825884394289 36.009497869018190385759 491.52392402848795427
37.009497869018190385759 2615.43483208380621363 37.009497869018190385759 492.14721743435245571
38.009497869018218807469 2624.98453712778336921 38.009497869018218807469 492.74749277698037986
39.009497869018190385759 2634.22992556878580217 39.009497869018190385759 493.31464000748206900
40.009497869018190385759 2643.18654831468120392 40.009497869018190385759 493.84563501481176218
41.009497869018218807469 2651.86902138158575326 41.009497869018218807469 494.37370059681080647
42.009497869018190385759 2660.29074766059602553 42.009497869018190385759 494.87339894928908279
43.009497869018190385759 2668.46416630915018686 43.009497869018190385759 495.35329434651754354
44.009497869018218807469 2676.40144514397343301 44.009497869018218807469 495.80928946545839153
46.009497869018190385759 2691.61150964739908886 46.009497869018190385759 496.67340092689522635
48.009497869018218807469 2706.00093176571681397 48.009497869018218807469 497.48317762775229767
50.009497869018190385759 2719.63906750453043060 50.009497869018190385759 498.24200197874557716
52.009497869018190385759 2732.58771240817350190 52.009497869018190385759 498.95624195156261749
54.009497869018218807469 2744.90175026111637635 54.009497869018218807469 499.63067563684933248
56.009497869018190385759 2756.63033654756191027 56.009497869018190385759 500.26292097981581719
58.009497869018218807469 2767.81696664939090624 58.009497869018218807469 500.84705403469496332
60.009497869018190385759 2778.50082319095145067 60.009497869018190385759 501.40850781758274479
62.009497869018190385759 2788.71719581413708511 62.009497869018190385759 501.93978346747860542
64.009497869018218807469 2798.49795636844919500 64.009497869018218807469 502.44128691171539458
66.009497869018190385759 2807.87190434413150797 66.009497869018190385759 502.90210381111751303
68.009497869018190385759 2816.86510212632447292 68.009497869018190385759 503.33421869060958898
70.009497869018190385759 2825.50166988975979621 70.009497869018190385759 503.75258668843480336
72.009497869018190385759 2833.80361453465047816 72.009497869018190385759 504.14750211768267718
74.009497869018218807469 2841.79105780665486236 74.009497869018218807469 504.52504380178879728
76.009497869018190385759 2849.48208019637058896 76.009497869018190385759 504.88393203068073944
78.009497869018190385759 2856.89325192234400674 78.009497869018190385759 505.21801971331984760
80.009497869018218807469 2864.04016674233116646 80.009497869018218807469 505.54926987482133427
82.009497869018190385759 2870.93781822756272959 82.009497869018190385759 505.87564924692406976
84.009497869018218807469 2877.59984547714657310 84.009497869018218807469 506.17959475207896958
86.009497869018190385759 2884.03882202165959825 86.009497869018190385759 506.47285893456665917
88.009497869018190385759 2890.26605588187203466 88.009497869018190385759 506.75635987061065180
91.009497869018218807469 2899.23283618073219259 91.009497869018218807469 507.17071227080350582
94.009497869018218807469 2907.77996078447813488 94.009497869018218807469 507.58640012459892432
97.009497869018218807469 2915.93825779450071423 97.009497869018218807469 508.03737851998971564
99.504748934509137825444 2922.44853327232203810 99.504748934509137825444 508.20329313847901176
nan nan nan nan

