Time Pressure difference Time.1 Pressure.1 difference.1
(hr) (psi) (hr) (psi)
0.000200000000020850166 0.52410690845790242 0.000200000000020850166 0.41841918503250836
0.000399999999999067768 1.04673771883132161 0.000399999999999067768 1.08957892303211845
0.000600000000019917934 1.56811468544971500 0.000600000000019917934 1.59152171338518111
0.000799999999998135536 2.08834882922955867 0.000799999999998135536 2.10096437195498442
0.001007140329434719206 2.62603174492121827 0.001007140329434719206 2.63413341953956115
0.001267914553977789183 3.30139945214148556 0.001267914553977789183 3.30785694083601367
0.001596209851982166583 4.14933616991003973 0.001596209851982166583 4.15188059258215070
0.002009509145224797066 5.21337953681492827 0.002009509145224797066 5.20825133416618424
0.002529822128153114136 6.54777466609906522 0.002529822128153114136 6.52889745060701188
0.003184857364431081805 8.21996921372653411 0.003184857364431081805 8.17770070007085259
0.004009497869034817086 10.31362090758649863 0.004009497869034817086 10.23288299554311997
0.005047658755856332391 12.93219050446800011 0.005047658755856332391 12.78968374769920402
0.006354625877790454069 16.20318040048341857 0.006354625877790454069 15.96327516380321931
0.008000000000009777068 20.28306724210893464 0.008000000000009777068 19.89178630939218806
0.010071403294361402914 25.36292875179815809 0.010071403294361402914 24.73916127056815029
0.012679145539692626699 31.67468587678199654 0.012679145539692626699 30.69745352400890681
0.015962098519750611558 39.49777615041148948 0.015962098519750611558 37.98802436598743526
0.020095091452091651263 49.16593277579335108 0.020095091452091651263 46.86052918141106716
0.025298221281360611101 61.07336921129504503 0.025298221281360611101 57.58864261512029969
0.031848573644296607199 75.67955795831305466 0.031848573644296607199 70.46096291754443541
0.040094978690191851456 93.51118165962111561 0.040094978690191851456 85.76475631461312332
0.050476587558435426217 115.15936420241494886 0.050476587558435426217 103.76065350672244847
0.063546258777947173257 141.26988686591374744 0.063546258777947173257 124.64623119194436640
0.080000000000012505552 172.52354313346921799 0.080000000000012505552 148.50761892900675321
0.100714032943542974863 209.60394272632365187 0.100714032943542974863 175.25763976469286831
0.126791455396883634421 253.14924148182052477 0.126791455396883634421 204.57247863496675677
0.159620985197506115583 303.69064698510089784 0.159620985197506115583 235.82458325669787769
0.200950914520774404082 361.57316228220594212 0.200950914520774404082 268.05021214464636614
0.252982212813464002465 426.87913545279593563 0.252982212813464002465 299.95498763771462336
0.318485736442809752589 499.35169476986305881 0.318485736442809752589 329.99281920168783699
0.400949786901833249431 578.35491788373576583 0.400949786901833249431 356.55224129295123703
0.504765875584169521062 662.88343389465080691 0.504765875584169521062 378.18626227223677461
0.635462587779443310865 751.62879002083570867 0.635462587779443310865 393.89530381605487719
0.800000000000011368684 843.11934733207999670 0.800000000000011368684 403.35970873430937900
1.007140329435344483500 935.89314776863727730 1.007140329435344483500 407.00928732487483330
1.267914553968907398485 1028.66858458573096868 1.267914553968907398485 405.96278077170143206
1.596209851975117999245 1120.48723226508309381 1.596209851975117999245 401.76973220271457876
2.009509145207687197399 1210.76330864721262515 2.009509145207687197399 396.08269400549886541
2.529822128134725289783 1299.27308770973422725 2.529822128134725289783 390.43760182855606899
3.184857364427983839050 1386.10033130151032310 3.184857364427983839050 385.96234152279947693
4.009497869018204596614 1471.49091356232565886 4.009497869018204596614 383.31732350223882122
5.009497869018190385759 1553.01106468350690193 5.009497869018190385759 382.73201867709377666
6.009497869018190385759 1619.06942847153504772 6.009497869018190385759 383.69448088477537340
7.009497869018204596614 1674.62501049030902323 7.009497869018204596614 385.45183147973517634
8.009497869018190385759 1722.55931595682659463 8.009497869018190385759 387.55868981570068854
9.009497869018204596614 1764.69624520437810133 9.009497869018204596614 389.82117891894216655
10.009497869018190385759 1802.26549086221621110 10.009497869018190385759 392.10186873911328576
11.009497869018190385759 1836.13726370110589414 11.009497869018190385759 394.22703707045872079
12.009497869018204596614 1866.95067743939739557 12.009497869018204596614 396.26980949411205302
13.009497869018190385759 1895.18757435187990268 13.009497869018190385759 398.21611915003472859
14.009497869018204596614 1921.22705867936724644 14.009497869018204596614 400.06100152861517927
15.009497869018190385759 1945.36753369833786564 15.009497869018190385759 401.81862791940113766
16.009497869018190385759 1967.85070259827716654 16.009497869018190385759 403.47766449454525173
17.009497869018204596614 1988.87476884487500683 17.009497869018204596614 405.01544300271956445
18.009497869018190385759 2008.60249105857656104 18.009497869018190385759 406.44940209752695637
19.009497869018204596614 2027.16891810046604405 19.009497869018204596614 407.73681918073225461
20.009497869018190385759 2044.68987712414354974 20.009497869018190385759 408.95275048337924773
21.009497869018190385759 2061.26401345651629526 21.009497869018190385759 410.10439410438823415
22.009497869018204596614 2076.97576486593789014 22.009497869018204596614 411.21448205462286296
23.009497869018190385759 2091.90634799241161090 23.009497869018190385759 412.30653894215532773
24.009497869018204596614 2106.12395045710309205 24.009497869018204596614 413.34280079228989280
25.009497869018204596614 2119.68697653479830478 25.009497869018204596614 414.34269589014115809
26.009497869018190385759 2132.64663300701886328 26.009497869018190385759 415.27062895576085566
27.009497869018204596614 2145.04962374142041881 27.009497869018204596614 416.12364383361813225
28.009497869018190385759 2156.93316671517914074 28.009497869018190385759 416.91567006737693646
29.009497869018190385759 2168.32782400048381533 29.009497869018190385759 417.66776257885550194
30.009497869018190385759 2179.26629909829125609 30.009497869018190385759 418.37677641963500719
31.009497869018218807469 2189.78080172024010608 31.009497869018218807469 419.02847260937778628
32.009497869018190385759 2199.89921544493699912 32.009497869018190385759 419.64019811212438071
33.009497869018190385759 2209.64675006565903459 33.009497869018190385759 420.26527659503176437
34.009497869018218807469 2219.04715072511544349 34.009497869018218807469 420.85226734947025307
35.009497869018190385759 2228.12054072735554655 35.009497869018190385759 421.42007458348990667
36.009497869018190385759 2236.88560647800068182 36.009497869018190385759 421.97496062853866761
37.009497869018190385759 2245.35969938079142594 37.009497869018190385759 422.51006013751890578
38.009497869018218807469 2253.55815364303589377 38.009497869018218807469 423.02539856091777892
39.009497869018190385759 2261.49535106653593175 39.009497869018190385759 423.51229638737572714
40.009497869018190385759 2269.18464215859012256 40.009497869018190385759 423.96815740727379307
41.009497869018218807469 2276.63857481874902078 41.009497869018218807469 424.42150350556141802
42.009497869018190385759 2283.86865547460683956 42.009497869018190385759 424.85049624081824504
43.009497869018190385759 2290.88556318513474253 43.009497869018190385759 425.26248807163619858
44.009497869018218807469 2297.69974406237724907 44.009497869018218807469 425.65396143225075321
46.009497869018190385759 2310.75763617348138723 46.009497869018190385759 426.39580406104886379
48.009497869018218807469 2323.11100400567011093 48.009497869018218807469 427.09100011307714340
50.009497869018190385759 2334.81938992565847002 50.009497869018190385759 427.74245339944013722
52.009497869018190385759 2345.93584561844591008 52.009497869018190385759 428.35563084549113455
54.009497869018218807469 2356.50748899967902616 54.009497869018218807469 428.93463445830195724
56.009497869018190385759 2366.57652021974354284 56.009497869018190385759 429.47741923573306622
58.009497869018218807469 2376.18028021192640153 58.009497869018218807469 429.97889945019386460
60.009497869018190385759 2385.35240739250411934 60.009497869018190385759 430.46090943250976579
62.009497869018190385759 2394.12319803907530513 62.009497869018190385759 430.91701138500548041
64.009497869018218807469 2402.52001424284526365 64.009497869018218807469 431.34755379767676686
66.009497869018190385759 2410.56758046414552155 66.009497869018190385759 431.74316667321789964
68.009497869018190385759 2418.28827134926586950 68.009497869018190385759 432.11413876704028780
70.009497869018190385759 2425.70279415025606795 70.009497869018190385759 432.47330911619366134
72.009497869018190385759 2432.83004186580228634 72.009497869018190385759 432.81234535545280551
74.009497869018218807469 2439.68728908299181057 74.009497869018218807469 433.13646617541326123
76.009497869018190385759 2446.29005796450337584 76.009497869018190385759 433.44457294062522124
78.009497869018190385759 2452.65257409931882648 78.009497869018190385759 433.73138835252359513
80.009497869018218807469 2458.78822478151141695 80.009497869018218807469 434.01576774287383387
82.009497869018190385759 2464.70988204298191704 82.009497869018190385759 434.29596554395800467
84.009497869018218807469 2470.42925509670658357 84.009497869018218807469 434.55690379396168055
86.009497869018190385759 2475.95713836145205278 86.009497869018190385759 434.80867209212459557
88.009497869018190385759 2481.30323981151150292 88.009497869018190385759 435.05205861000729328
91.009497869018218807469 2489.00125119733593237 91.009497869018218807469 435.40778155493472923
94.009497869018218807469 2496.33898674150441366 94.009497869018218807469 435.76465099132235537
97.009497869018218807469 2503.34291247391865909 97.009497869018218807469 436.15181747770549237
99.504748934509137825444 2508.93200611542215483 99.504748934509137825444 436.29425574201388827
nan nan nan nan

