Time Pressure difference Time.1 Pressure.1 difference.1
(hr) (psi) (hr) (psi)
0.000200000000020850166 0.72095847312434136 0.000200000000020850166 0.57557504375311774
0.000399999999999067768 1.43988643414514628 0.000399999999999067768 1.49881855022484767
0.000600000000019917934 2.15708961485000428 0.000600000000019917934 2.18928818893555865
0.000799999999998135536 2.87272073497821978 0.000799999999998135536 2.89007460357674573
0.001007140329434719206 3.61235428619907672 0.001007140329434719206 3.62349890358215410
0.001267914553977789183 4.54138625112331162 0.001267914553977789183 4.55026913573004776
0.001596209851982166583 5.70780316241190988 0.001596209851982166583 5.71130325572314845
0.002009509145224797066 7.17149514731435378 0.002009509145224797066 7.16444082100831725
0.002529822128153114136 9.00708147412676396 0.002529822128153114136 8.98111408419474877
0.003184857364431081805 11.30734275358895680 0.003184857364431081805 11.24919842735578435
0.004009497869034817086 14.18735807889870237 0.004009497869034817086 14.07629546772017193
0.005047658755856332391 17.78944747682761474 0.005047658755856332391 17.59341599525025046
0.006354625877790454069 22.28900251603741722 0.006354625877790454069 21.95899024117463227
0.008000000000009777068 27.90127157868550967 0.008000000000009777068 27.36302775998798609
0.010071403294361402914 34.88910008963677001 0.010071403294361402914 34.03104910119358806
0.012679145539692626699 43.57151718073973257 0.012679145539692626699 42.22724193160021144
0.015962098519750611558 54.33291552861675910 0.015962098519750611558 52.25610958744388768
0.020095091452091651263 67.63237662343681222 0.020095091452091651263 64.46107659186181138
0.025298221281360611101 84.01217824945182144 0.025298221281360611101 79.21860822491984777
0.031848573644296607199 104.10436815818657408 0.031848573644296607199 96.92569859338918548
0.040094978690191851456 128.63344798819511539 0.040094978690191851456 117.97750947873882410
0.050476587558435426217 158.41256438620629865 0.050476587558435426217 142.73256298547556753
0.063546258777947173257 194.33005039558341309 0.063546258777947173257 171.46264449224676696
0.080000000000012505552 237.32240164794177417 0.080000000000012505552 204.28623332864955842
0.100714032943542974863 288.32998777567183879 0.100714032943542974863 241.08340937520347325
0.126791455396883634421 348.23065230779752710 0.126791455396883634421 281.40873447726011136
0.159620985197506115583 417.75512136777746264 0.159620985197506115583 324.39895129447501176
0.200950914520774404082 497.37797917742432219 0.200950914520774404082 368.72834253811890903
0.252982212813464002465 587.21250328530413753 0.252982212813464002465 412.61636968230789080
0.318485736442809752589 686.90534240925705944 0.318485736442809752589 453.93623940897788316
0.400949786901833249431 795.58172539315796712 0.400949786901833249431 490.47122891011360934
0.504765875584169521062 911.85866976316469845 0.504765875584169521062 520.23086474215767794
0.635462587779443310865 1033.93627533769495130 0.635462587779443310865 541.84013266614203985
0.800000000000011368684 1159.79016400038904067 0.800000000000011368684 554.85931407508803659
1.007140329435344483500 1287.40927458506689618 1.007140329435344483500 559.87965356258530392
1.267914553968907398485 1415.03063616547478887 1.267914553968907398485 558.44008511860033650
1.596209851975117999245 1541.33584406670706812 1.596209851975117999245 552.67215142940756323
2.009509145207687197399 1665.51909969220378116 2.009509145207687197399 544.84909413117748045
2.529822128134725289783 1787.27264680198004498 2.529822128134725289783 537.08373753912303528
3.184857364427983839050 1906.71170771745005368 3.184857364427983839050 530.92759499491285169
4.009497869018204596614 2024.17450550253352048 4.009497869018204596614 527.28912329626507471
5.009497869018190385759 2136.31316029363551934 5.009497869018190385759 526.48398131809415190
6.009497869018190385759 2227.18266864230190549 6.009497869018190385759 527.80793883991282200
7.009497869018204596614 2303.60461030996521004 7.009497869018204596614 530.22534029225062113
8.009497869018190385759 2369.54276743347918455 8.009497869018190385759 533.12352259909380336
9.009497869018204596614 2427.50608690554690838 9.009497869018204596614 536.23578970149264933
10.009497869018190385759 2479.18612689128940474 10.009497869018190385759 539.37309360626045418
11.009497869018190385759 2525.77994436221888463 11.009497869018190385759 542.29646303828542386
12.009497869018204596614 2568.16670050300626826 12.009497869018204596614 545.10648912977706004
13.009497869018190385759 2607.00921479783164614 13.009497869018190385759 547.78382158832039295
14.009497869018204596614 2642.82898087748162652 14.009497869018204596614 550.32163126281773202
15.009497869018190385759 2676.03648058662020048 15.009497869018190385759 552.73941209832037202
16.009497869018190385759 2706.96419945373145310 16.009497869018190385759 555.02157334590378923
17.009497869018204596614 2735.88478503542182807 17.009497869018204596614 557.13693268836857442
18.009497869018190385759 2763.02212716140138582 18.009497869018190385759 559.10947863811952629
19.009497869018204596614 2788.56199827449199802 19.009497869018204596614 560.88044223276642697
20.009497869018190385759 2812.66372954636563009 20.009497869018190385759 562.55307039552008064
21.009497869018190385759 2835.46301692592078325 21.009497869018190385759 564.13726479018862392
22.009497869018204596614 2857.07601252556924010 22.009497869018204596614 565.66429544122456718
23.009497869018190385759 2877.61443749193858821 23.009497869018190385759 567.16652266527864867
24.009497869018204596614 2897.17209032767868848 24.009497869018204596614 568.59199855421184111
25.009497869018204596614 2915.82931161997612435 25.009497869018204596614 569.96744854618464160
26.009497869018190385759 2933.65654112534411979 26.009497869018190385759 571.24390797717978785
27.009497869018204596614 2950.71802441767476921 27.009497869018204596614 572.41731037651436509
28.009497869018190385759 2967.06495833403369033 28.009497869018190385759 573.50681714498114161
29.009497869018190385759 2982.73938388656097231 29.009497869018190385759 574.54139131291071863
30.009497869018190385759 2997.78628782459099966 30.009497869018190385759 575.51670670720000089
31.009497869018218807469 3012.24997764369027209 31.009497869018218807469 576.41317626773366101
32.009497869018190385759 3026.16880983550800011 32.009497869018190385759 577.25466237927730617
33.009497869018190385759 3039.57746284784752788 33.009497869018190385759 578.11451677414822825
34.009497869018218807469 3052.50860036355061311 34.009497869018218807469 578.92197790703676219
35.009497869018190385759 3064.98990388485663061 35.009497869018190385759 579.70305029868347901
36.009497869018190385759 3077.04707832473013696 36.009497869018190385759 580.46634837650015015
37.009497869018190385759 3088.70399217516160206 37.009497869018190385759 581.20242820818771179
38.009497869018218807469 3099.98173908423950706 38.009497869018218807469 581.91132480329099508
39.009497869018190385759 3110.90010257647099934 39.009497869018190385759 582.58109867550251693
40.009497869018190385759 3121.47744753352799307 40.009497869018190385759 583.20817849368245334
41.009497869018218807469 3131.73103477444374221 41.009497869018218807469 583.83179880004331608
42.009497869018190385759 3141.67669247537060073 42.009497869018190385759 584.42191875916046229
43.009497869018190385759 3151.32911068890143724 43.009497869018190385759 584.98865237112545401
44.009497869018218807469 3160.70265902716846540 44.009497869018218807469 585.52716089254136023
46.009497869018190385759 3178.66502091692836984 46.009497869018190385759 586.54763538033353143
48.009497869018218807469 3195.65824322808475699 48.009497869018218807469 587.50394310325020797
50.009497869018190385759 3211.76423210058874247 50.009497869018190385759 588.40007852728058424
52.009497869018190385759 3227.05596512965303191 52.009497869018190385759 589.24356192375012142
54.009497869018218807469 3241.59825745122270746 54.009497869018218807469 590.04003599018403747
56.009497869018190385759 3255.44915935140625152 56.009497869018190385759 590.78668763330642832
58.009497869018218807469 3268.66003680499534312 58.009497869018218807469 591.47652095525870664
60.009497869018190385759 3281.27716262550484316 60.009497869018190385759 592.13957113695482803
62.009497869018190385759 3293.34221219955225024 62.009497869018190385759 592.76698238064147972
64.009497869018218807469 3304.89282466369240865 64.009497869018218807469 593.35923406716869977
66.009497869018190385759 3315.96301084449805785 66.009497869018190385759 593.90343688170071346
68.009497869018190385759 3326.58354917775386639 68.009497869018190385759 594.41374397748165848
70.009497869018190385759 3336.78292444124008398 70.009497869018190385759 594.90781666062775912
72.009497869018190385759 3346.58712573615912333 72.009497869018190385759 595.37419297707299393
74.009497869018218807469 3356.01991588595410576 74.009497869018218807469 595.82005172782680802
76.009497869018190385759 3365.10264708904742292 76.009497869018190385759 596.24388163623257242
78.009497869018190385759 3373.85488798448250236 78.009497869018190385759 596.63842328049202024
80.009497869018218807469 3382.29505405760983194 80.009497869018218807469 597.02961394740805190
82.009497869018190385759 3390.44085200207382513 82.009497869018190385759 597.41505244398661034
84.009497869018218807469 3398.30838894443968456 84.009497869018218807469 597.77399761197898442
86.009497869018190385759 3405.91251362557886750 86.009497869018190385759 598.12032864653588149
88.009497869018190385759 3413.26658027954408681 88.009497869018190385759 598.45512975195936178
91.009497869018218807469 3423.85592082295988803 91.009497869018218807469 598.94446020552038590
94.009497869018218807469 3433.94966797405049874 94.009497869018218807469 599.43536776619305328
97.009497869018218807469 3443.58422825255320276 97.009497869018218807469 599.96795177598789905
99.504748934509137825444 3451.27255357874219044 99.504748934509137825444 600.16388903972756452
nan nan nan nan

