Time Pressure difference Time.1 Pressure.1 difference.1
(hr) (psi) (hr) (psi)
0.000200000000020850166 0.75916594981065433 0.000200000000020850166 0.60607786865247637
0.000399999999999067768 1.51619377973348346 0.000399999999999067768 1.57824902638883713
0.000600000000019917934 2.27140542393191724 0.000600000000019917934 2.30531037406347972
0.000799999999998135536 3.02496169558766459 0.000799999999998135536 3.04323523925016737
0.001007140329434719206 3.80379241657368228 0.001007140329434719206 3.81552764732037941
0.001267914553977789183 4.78205879438560721 0.001267914553977789183 4.79141243094154756
0.001596209851982166583 6.01029042677936154 0.001596209851982166583 6.01397600890663320
0.002009509145224797066 7.55155134175728016 0.002009509145224797066 7.54412316866544064
0.002529822128153114136 9.48441528496758401 0.002529822128153114136 9.45707174303456277
0.003184857364431081805 11.90657981195887949 0.003184857364431081805 11.84535410438155267
0.004009497869034817086 14.93922267755001698 0.004009497869034817086 14.82227425978829061
0.005047658755856332391 18.73220621407884678 0.005047658755856332391 18.52578596734876726
0.006354625877790454069 23.47021693509008955 0.006354625877790454069 23.12271553045347261
0.008000000000009777068 29.37991039506745850 0.008000000000009777068 28.81314213436522920
0.010071403294361402914 36.73806161512442969 0.010071403294361402914 35.83453787844577931
0.012679145539692626699 45.88060680091718524 0.012679145539692626699 44.46509115839008075
0.015962098519750611558 57.21230966953424257 0.015962098519750611558 55.02544258401348998
0.020095091452091651263 71.21658091454061434 0.020095091452091651263 67.87721659557799114
0.025298221281360611101 88.46443654377760879 0.025298221281360611101 83.41682939812989162
0.031848573644296607199 109.62141992693838688 0.031848573644296607199 102.06231395663331796
0.040094978690191851456 135.45042795070315833 0.040094978690191851456 124.22977380595308716
0.050476587558435426217 166.80770028685776651 0.050476587558435426217 150.29673106995929288
0.063546258777947173257 204.62864753636316095 0.063546258777947173257 180.54937449990040932
0.080000000000012505552 249.89939528366218724 0.080000000000012505552 215.11246228385451218
0.100714032943542974863 303.61014841816131593 0.100714032943542974863 253.85971908863592716
0.126791455396883634421 366.68527213056097480 0.126791455396883634421 296.32210059011032399
0.159620985197506115583 439.89421766146153914 0.159620985197506115583 341.59060078703936369
0.200950914520774404082 523.73672000940769067 0.200950914520774404082 388.26924548368742762
0.252982212813464002465 618.33205991102295229 0.252982212813464002465 434.48313581754536017
0.318485736442809752589 723.30816009454019877 0.318485736442809752589 477.99276822558272215
0.400949786901833249431 837.74389056376298868 0.400949786901833249431 516.46394380627168630
0.504765875584169521062 960.18297714692698719 0.504765875584169521062 547.80070319623519026
0.635462587779443310865 1088.73013324729618034 0.635462587779443310865 570.55516273831085527
0.800000000000011368684 1221.25369803727585349 0.800000000000011368684 584.26430076570329675
1.007140329435344483500 1355.63603337644121893 1.007140329435344483500 589.55069511083286216
1.267914553968907398485 1490.02073900373716242 1.267914553968907398485 588.03483617327276534
1.596209851975117999245 1623.01954087208559940 1.596209851975117999245 581.96122857889236002
2.009509145207687197399 1753.78393677266603845 2.009509145207687197399 573.72358529481130063
2.529822128134725289783 1881.98986080300642243 2.529822128134725289783 565.54670058843146307
3.184857364427983839050 2007.75864153657744282 3.184857364427983839050 559.06431085869860453
4.009497869018204596614 2131.44642630105499848 4.009497869018204596614 555.23301692717313927
5.009497869018190385759 2249.52791302809100671 5.009497869018190385759 554.38520613449088614
6.009497869018190385759 2345.21308656574183260 6.009497869018190385759 555.77932730377926873
7.009497869018204596614 2425.68503896694528521 7.009497869018204596614 558.32483989299191762
8.009497869018190385759 2495.11761455553005362 8.009497869018190385759 561.37661250641917832
9.009497869018204596614 2556.15272284754610155 9.009497869018204596614 564.65381542300019646
10.009497869018190385759 2610.57156679566696766 10.009497869018190385759 567.95738197709920314
11.009497869018190385759 2659.63464187450244935 11.009497869018190385759 571.03567651727303200
12.009497869018204596614 2704.26770076007778698 12.009497869018204596614 573.99462104218446257
13.009497869018190385759 2745.16868931476756188 13.009497869018190385759 576.81383978309304439
14.009497869018204596614 2782.88673792859208334 14.009497869018204596614 579.48614167536334207
15.009497869018190385759 2817.85408209236265975 15.009497869018190385759 582.03205375330048810
16.009497869018190385759 2850.42082753538079487 16.009497869018190385759 584.43515903013371826
17.009497869018204596614 2880.87407087831297758 17.009497869018204596614 586.66262266954936422
18.009497869018190385759 2909.44956708009294744 18.009497869018190385759 588.73970446456360150
19.009497869018204596614 2936.34293366691917981 19.009497869018204596614 590.60452096860433358
20.009497869018190385759 2961.72194562831600706 20.009497869018190385759 592.36579071602011481
21.009497869018190385759 2985.72949017314704179 21.009497869018190385759 594.03394011317095647
22.009497869018204596614 3008.48787494051885005 22.009497869018204596614 595.64189635170407655
23.009497869018190385759 3030.11474178298612969 23.009497869018190385759 597.22373469592696438
24.009497869018204596614 3050.70886009158766683 24.009497869018204596614 598.72475423796038285
25.009497869018204596614 3070.35482813439921301 25.009497869018204596614 600.17309674102853023
26.009497869018190385759 3089.12681865041986384 26.009497869018190385759 601.51720263956485724
27.009497869018204596614 3107.09248193289704432 27.009497869018204596614 602.75278995867984122
28.009497869018190385759 3124.30572801533025995 28.009497869018190385759 603.90003556510691851
29.009497869018190385759 3140.81082588976596526 29.009497869018190385759 604.98943739631374683
30.009497869018190385759 3156.65514639594039181 30.009497869018190385759 606.01644001195938927
31.009497869018218807469 3171.88534512250316766 31.009497869018218807469 606.96041832800528937
32.009497869018190385759 3186.54181127840320187 32.009497869018190385759 607.84649932564445862
33.009497869018190385759 3200.66106110936971163 33.009497869018190385759 608.75192204098095772
34.009497869018218807469 3214.27748932290887751 34.009497869018218807469 609.60217489289357218
35.009497869018190385759 3227.42024441331659546 35.009497869018190385759 610.42464052188552159
36.009497869018190385759 3240.11639353548753206 36.009497869018190385759 611.22838988032378893
37.009497869018190385759 3252.39107010149518828 37.009497869018190385759 612.00347855101790628
38.009497869018218807469 3264.26648562557011246 38.009497869018218807469 612.74994339885711270
39.009497869018190385759 3275.76347206785112576 39.009497869018190385759 613.45521219978036243
40.009497869018190385759 3286.90136756410720409 40.009497869018190385759 614.11552435855514886
41.009497869018218807469 3297.69834767723705227 41.009497869018218807469 614.77219366732663275
42.009497869018190385759 3308.17107940378900821 42.009497869018190385759 615.39358726483021655
43.009497869018190385759 3318.33503130144663373 43.009497869018190385759 615.99035514655383849
44.009497869018218807469 3328.20533450556695243 44.009497869018218807469 616.55740213799867888
46.009497869018190385759 3347.11961879962291277 46.009497869018190385759 617.63195707099635001
48.009497869018218807469 3365.01340358348988957 48.009497869018218807469 618.63894469627973649
50.009497869018190385759 3381.97293564508981945 50.009497869018190385759 619.58257116812717413
52.009497869018190385759 3398.07506005587856635 52.009497869018190385759 620.47075529758944867
54.009497869018218807469 3413.38802685531982206 54.009497869018218807469 621.30943881915686688
56.009497869018190385759 3427.97296272717221655 56.009497869018190385759 622.09565955857374320
58.009497869018218807469 3441.88395580618180247 58.009497869018218807469 622.82205086763428881
60.009497869018190385759 3455.16973115174096165 60.009497869018190385759 623.52023965342937117
62.009497869018190385759 3467.87417275390635041 62.009497869018190385759 624.18090080173533352
64.009497869018218807469 3480.03691445001686589 64.009497869018218807469 624.80453909837808624
66.009497869018190385759 3491.69376948372291736 66.009497869018190385759 625.37758215423320962
68.009497869018190385759 3502.87714740606861596 68.009497869018190385759 625.91493317444508193
70.009497869018190385759 3513.61704255678932896 70.009497869018190385759 626.43518943296510315
72.009497869018190385759 3523.94082133968822745 72.009497869018190385759 626.92628154498231652
74.009497869018218807469 3533.87350589834341008 74.009497869018218807469 627.39576875487750840
76.009497869018190385759 3543.43757999929675861 76.009497869018190385759 627.84205969529557478
78.009497869018190385759 3552.65364932928241615 78.009497869018190385759 628.25751022853660288
80.009497869018218807469 3561.54110530951129476 80.009497869018218807469 628.66943219807706100
82.009497869018190385759 3570.11859300679179796 82.009497869018190385759 629.07529715876000864
84.009497869018218807469 3578.40307315117297549 84.009497869018218807469 629.45326476653087866
86.009497869018190385759 3586.41018139836296541 86.009497869018190385759 629.81794974992362768
88.009497869018190385759 3594.15397969528021349 88.009497869018190385759 630.17049377107230157
91.009497869018218807469 3605.30450648869282304 91.009497869018218807469 630.68575648369312603
94.009497869018218807469 3615.93317572382738945 94.009497869018218807469 631.20267988283467275
97.009497869018218807469 3626.07832329819575534 97.009497869018218807469 631.76348839084437259
99.504748934509137825444 3634.17409443660199031 99.504748934509137825444 631.96980942662560210
nan nan nan nan

