Time Pressure difference Time.1 Pressure.1 difference.1
(hr) (psi) (hr) (psi)
0.000200000000020850166 0.28904786710515068 0.000200000000020850166 0.23076050141254026
0.000399999999999067768 0.57728165792915997 0.000399999999999067768 0.60090881967539966
0.000600000000019917934 0.86482394696751330 0.000600000000019917934 0.87773305270688284
0.000799999999998135536 1.15173596287145208 0.000799999999998135536 1.15869350465980103
0.001007140329434719206 1.44827107326875426 0.001007140329434719206 1.45273919175874378
0.001267914553977789183 1.82074010989736457 0.001267914553977789183 1.82430145073047956
0.001596209851982166583 2.28838191304071925 0.001596209851982166583 2.28978517625766820
0.002009509145224797066 2.87520773187257506 0.002009509145224797066 2.87237949966692918
0.002529822128153114136 3.61113404723054643 0.002529822128153114136 3.60072315817946143
0.003184857364431081805 4.53335861549418961 0.003184857364431081805 4.51004729576015251
0.004009497869034817086 5.68801913762298206 0.004009497869034817086 5.64349173129794934
0.005047658755856332391 7.13217479485715433 0.005047658755856332391 7.05358152804963989
0.006354625877790454069 8.93614386587675114 0.006354625877790454069 8.80383479715296424
0.008000000000009777068 11.18622408915041255 0.008000000000009777068 10.97043048441914692
0.010071403294361402914 13.98779588847188293 0.010071403294361402914 13.64378466269051593
0.012679145539692626699 17.46876495264680784 0.012679145539692626699 16.92981588962773287
0.015962098519750611558 21.78324263128874705 0.015962098519750611558 20.95060614796137699
0.020095091452091651263 27.11528463704609493 0.020095091452091651263 25.84384176724413607
0.025298221281360611101 33.68230187881248838 0.025298221281360611101 31.76045583211072554
0.031848573644296607199 41.73769598968770822 0.031848573644296607199 38.85961187845557419
0.040094978690191851456 51.57193536853905869 0.040094978690191851456 47.29973882327316659
0.050476587558435426217 63.51102811797210279 0.050476587558435426217 57.22457594348560406
0.063546258777947173257 77.91112619546431972 0.063546258777947173257 68.74308788398833769
0.080000000000012505552 95.14769098327620611 0.080000000000012505552 81.90277557415905108
0.100714032943542974863 115.59773703448593096 0.100714032943542974863 96.65556044074978104
0.126791455396883634421 139.61321083308010316 0.126791455396883634421 112.82285667982317534
0.159620985197506115583 167.48707630874025654 0.159620985197506115583 130.05856572635636326
0.200950914520774404082 199.40960455500422199 0.200950914520774404082 147.83117880560527624
0.252982212813464002465 235.42621099456891898 0.252982212813464002465 165.42683945788380129
0.318485736442809752589 275.39522944518597569 0.318485736442809752589 181.99287017779295184
0.400949786901833249431 318.96594520370848613 0.400949786901833249431 196.64053877963078776
0.504765875584169521062 365.58389064237479715 0.504765875584169521062 208.57182134823833053
0.635462587779443310865 414.52744679437535069 0.635462587779443310865 217.23544489379887068
0.800000000000011368684 464.98499662688402623 0.800000000000011368684 222.45511670291546125
1.007140329435344483500 516.15026216083322197 1.007140329435344483500 224.46787953891669076
1.267914553968907398485 567.31643016772488863 1.267914553968907398485 223.89072537013009878
1.596209851975117999245 617.95492365808070190 1.596209851975117999245 221.57823582653671224
2.009509145207687197399 667.74268052175909816 2.009509145207687197399 218.44180271618637335
2.529822128134725289783 716.55631461646203206 2.529822128134725289783 215.32850306868070334
3.184857364427983839050 764.44202106644308969 3.184857364427983839050 212.86037218690054829
4.009497869018204596614 811.53540082359654662 4.009497869018204596614 211.40163007730447475
5.009497869018190385759 856.49421633892302452 5.009497869018190385759 211.07883121969672402
6.009497869018190385759 892.92577037732837653 6.009497869018190385759 211.60963446577153491
7.009497869018204596614 923.56498201367276124 7.009497869018204596614 212.57882306647834980
8.009497869018190385759 950.00101735812302195 8.009497869018190385759 213.74076712498234087
9.009497869018204596614 973.23976756121010112 9.009497869018204596614 214.98854241488413663
10.009497869018190385759 993.95941492876590928 10.009497869018190385759 216.24635550112748206
11.009497869018190385759 1012.63988552770979368 11.009497869018190385759 217.41839762364440958
12.009497869018204596614 1029.63365411871677679 12.009497869018204596614 218.54499794603961504
13.009497869018190385759 1045.20645938899247085 13.009497869018190385759 219.61839851697635595
14.009497869018204596614 1059.56737943014218217 14.009497869018204596614 220.63586138186701646
15.009497869018190385759 1072.88098530431307154 15.009497869018190385759 221.60520208550173038
16.009497869018190385759 1085.28057766117353822 16.009497869018190385759 222.52016995895681362
17.009497869018204596614 1096.87546681143658134 17.009497869018204596614 223.36826333588970783
18.009497869018190385759 1107.75541503705949253 18.009497869018190385759 224.15909973049028281
19.009497869018204596614 1117.99490253401290829 19.009497869018204596614 224.86911739286028933
20.009497869018190385759 1127.65780861997154716 20.009497869018190385759 225.53971025073846590
21.009497869018190385759 1136.79853673988532137 21.009497869018190385759 226.17484809560556869
22.009497869018204596614 1145.46365479135715759 22.009497869018204596614 226.78706775754162095
23.009497869018190385759 1153.69795420183709211 23.009497869018190385759 227.38934318838360582
24.009497869018204596614 1161.53904082261760777 24.009497869018204596614 227.96084734661948801
25.009497869018204596614 1169.01912493519785130 25.009497869018204596614 228.51229503925375752
26.009497869018190385759 1176.16644736361718060 26.009497869018190385759 229.02405527195688251
27.009497869018204596614 1183.00676554994333856 27.009497869018204596614 229.49449770855642328
28.009497869018190385759 1189.56060541502733940 28.009497869018190385759 229.93130456964686914
29.009497869018190385759 1195.84482211120189277 29.009497869018190385759 230.34608776139734232
30.009497869018190385759 1201.87745180064257511 30.009497869018190385759 230.73711282731059669
31.009497869018218807469 1207.67625831797727187 31.009497869018218807469 231.09652689075034004
32.009497869018190385759 1213.25661961147079637 32.009497869018190385759 231.43389689860424596
33.009497869018190385759 1218.63243902194813018 33.009497869018190385759 231.77863114908248576
34.009497869018218807469 1223.81681212732223685 34.009497869018218807469 232.10235980604696238
35.009497869018190385759 1228.82083704139427027 35.009497869018190385759 232.41550864509426333
36.009497869018190385759 1233.65481942051383157 36.009497869018190385759 232.72153137675348944
37.009497869018190385759 1238.32832866008789097 37.009497869018190385759 233.01664172401993369
38.009497869018218807469 1242.84982166050144770 38.009497869018218807469 233.30085372297844515
39.009497869018190385759 1247.22723006522119249 39.009497869018190385759 233.56938057497109185
40.009497869018190385759 1251.46791675307349578 40.009497869018190385759 233.82079045599252254
41.009497869018218807469 1255.57880196026098929 41.009497869018218807469 234.07081334379614646
42.009497869018190385759 1259.56623154542489829 42.009497869018190385759 234.30740521680627353
43.009497869018190385759 1263.43609506882216920 43.009497869018190385759 234.53462099671853025
44.009497869018218807469 1267.19415361918731833 44.009497869018218807469 234.75052072650279911
46.009497869018190385759 1274.39565354733986169 46.009497869018190385759 235.15965105110143440
48.009497869018218807469 1281.20860442784965016 48.009497869018218807469 235.54305552987455030
50.009497869018190385759 1287.66584420622666585 50.009497869018190385759 235.90233563075301504
52.009497869018190385759 1293.79663118101279906 52.009497869018190385759 236.24050639339290569
54.009497869018218807469 1299.62695114403868502 54.009497869018218807469 236.55983009744704759
56.009497869018190385759 1305.18007771231509651 56.009497869018190385759 236.85917891289238923
58.009497869018218807469 1310.47660461767100060 58.009497869018218807469 237.13574803275352565
60.009497869018190385759 1315.53508363326704966 60.009497869018190385759 237.40157921159018883
62.009497869018190385759 1320.37222332424425986 62.009497869018190385759 237.65312196827559887
64.009497869018218807469 1325.00311403567388879 64.009497869018218807469 237.89056849697547591
66.009497869018190385759 1329.44139144456835311 66.009497869018190385759 238.10875119220258966
68.009497869018190385759 1333.69939529246357779 68.009497869018190385759 238.31334435963555052
70.009497869018190385759 1337.78854574372280695 70.009497869018190385759 238.51142879942219110
72.009497869018190385759 1341.71926239191634522 72.009497869018190385759 238.69840916592326607
74.009497869018218807469 1345.50107226764066581 74.009497869018218807469 238.87716359594898563
76.009497869018190385759 1349.14253592971022044 76.009497869018190385759 239.04708618595498137
78.009497869018190385759 1352.65149886935478207 78.009497869018190385759 239.20526647651061580
80.009497869018218807469 1356.03534425351199388 80.009497869018218807469 239.36210328767052147
82.009497869018190385759 1359.30117107917226349 82.009497869018190385759 239.51663392915591544
84.009497869018218807469 1362.45543704224087378 84.009497869018218807469 239.66054282139251086
86.009497869018190385759 1365.50409532454091277 86.009497869018190385759 239.79939443432544977
88.009497869018190385759 1368.45249992774324710 88.009497869018190385759 239.93362344894219973
91.009497869018218807469 1372.69799590597926908 91.009497869018218807469 240.12980662617636085
94.009497869018218807469 1376.74479775918143787 94.009497869018218807469 240.32662209981012325
97.009497869018218807469 1380.60750164964110809 97.009497869018218807469 240.54014656456658372
99.504748934509137825444 1383.68991779424231936 99.504748934509137825444 240.61870205740228812
nan nan nan nan

