Time Pressure difference Time.1 Pressure.1 difference.1
(hr) (psi) (hr) (psi)
0.000200000000020850166 0.62460918408929111 0.000200000000020850166 0.49865487661560420
0.000399999999999067768 1.24745921483542621 0.000399999999999067768 1.29851561033304752
0.000600000000019917934 1.86881496586083329 0.000600000000019917934 1.89671050469993063
0.000799999999998135536 2.48880874735440250 0.000799999999998135536 2.50384343535681175
0.001007140329434719206 3.12959726177615893 0.001007140329434719206 3.13925250632923980
0.001267914553977789183 3.93447288115752336 0.001267914553977789183 3.94216865215322043
0.001596209851982166583 4.94500919139833695 0.001596209851982166583 4.94804153030392690
0.002009509145224797066 6.21309257002349558 0.002009509145224797066 6.20698098778600738
0.002529822128153114136 7.80337012504991634 0.002529822128153114136 7.78087303146826148
0.003184857364431081805 9.79622321509089211 0.003184857364431081805 9.74584932876906684
0.004009497869034817086 12.29135169969104169 0.004009497869034817086 12.19513155728752274
0.005047658755856332391 15.41205587854189574 0.005047658755856332391 15.24222215256703628
0.006354625877790454069 19.31028789407849899 0.006354625877790454069 19.02437864212364360
0.008000000000009777068 24.17253021563537274 0.008000000000009777068 23.70621759851493593
0.010071403294361402914 30.22650146014613881 0.010071403294361402914 29.48312088029674882
0.012679145539692626699 37.74859552985746802 0.012679145539692626699 36.58396996839096715
0.015962098519750611558 47.07183465152051127 0.015962098519750611558 45.27257420479009653
0.020095091452091651263 58.59394841108811391 0.020095091452091651263 55.84646266944709936
0.025298221281360611101 72.78474428984766575 0.025298221281360611101 68.63178961421627378
0.031848573644296607199 90.19180282829066186 0.031848573644296607199 83.97249463390400592
0.040094978690191851456 111.44280286534878144 0.040094978690191851456 102.21092987098109006
0.050476587558435426217 137.24222168021557877 0.050476587558435426217 123.65770433764703284
0.063546258777947173257 168.35967499709528283 0.063546258777947173257 148.54828186425066860
0.080000000000012505552 205.60650465351636740 0.080000000000012505552 176.98530813726321753
0.100714032943542974863 249.79740876417650952 0.100714032943542974863 208.86488922828689851
0.126791455396883634421 301.69291536343746429 0.126791455396883634421 243.80111558398573379
0.159620985197506115583 361.92609593153071046 0.159620985197506115583 281.04609605235629033
0.200950914520774404082 430.90811099242296223 0.200950914520774404082 319.45128293625049309
0.252982212813464002465 508.73709962044773647 0.252982212813464002465 357.47408986301326195
0.318485736442809752589 595.10693259419497281 0.318485736442809752589 393.27194934971356588
0.400949786901833249431 689.25974365858849069 0.400949786901833249431 424.92438265023668009
0.504765875584169521062 789.99737288237315624 0.504765875584169521062 450.70692429274492952
0.635462587779443310865 895.76045973956979651 0.635462587779443310865 469.42831770154242577
0.800000000000011368684 1004.79516512476084245 0.800000000000011368684 480.70760850744954951
1.007140329435344483500 1115.35918719812252675 1.007140329435344483500 485.05702704961305471
1.267914553968907398485 1225.92515944289971230 1.267914553968907398485 483.80984332855700814
1.596209851975117999245 1335.35086951401331135 1.596209851975117999245 478.81273948722872547
2.009509145207687197399 1442.93820618495055896 2.009509145207687197399 472.03515989244874618
2.529822128134725289783 1548.42054192982595850 2.529822128134725289783 465.30756984956286715
3.184857364427983839050 1651.89770069530231922 3.184857364427983839050 459.97413759927928822
4.009497869018204596614 1753.66270522800164144 4.009497869018204596614 456.82191327049696383
5.009497869018190385759 1850.81508818066117783 5.009497869018190385759 456.12437091152855828
6.009497869018190385759 1929.54074518319248455 6.009497869018190385759 457.27139401798905283
7.009497869018204596614 1995.74961630540815349 7.009497869018204596614 459.36573260342447611
8.009497869018190385759 2052.87576164743859408 8.009497869018190385759 461.87660022409977501
9.009497869018204596614 2103.09283105181020801 9.009497869018204596614 464.57294222986456589
10.009497869018190385759 2147.86632191503440481 10.009497869018190385759 467.29097510588462683
11.009497869018190385759 2188.23331585298228674 11.009497869018190385759 469.82366383040402980
12.009497869018204596614 2224.95548246343378196 12.009497869018204596614 472.25815648109710310
13.009497869018190385759 2258.60706166816771656 13.009497869018190385759 474.57768874932821745
14.009497869018204596614 2289.63985440076749001 14.009497869018204596614 476.77634413552874548
15.009497869018190385759 2318.40948548518235839 15.009497869018190385759 478.87101140315314751
16.009497869018190385759 2345.20400690000724353 16.009497869018190385759 480.84818335958482294
17.009497869018204596614 2370.25962943160993746 17.009497869018204596614 482.68084490973865286
18.009497869018190385759 2393.77032214904829743 18.009497869018190385759 484.38977872795607027
19.009497869018204596614 2415.89703076315436192 19.009497869018204596614 485.92406976847968281
20.009497869018190385759 2436.77779333970875086 20.009497869018190385759 487.37316697860723025
21.009497869018190385759 2456.53017134595893367 21.009497869018190385759 488.74564875832004418
22.009497869018204596614 2475.25479426178344511 22.009497869018204596614 490.06860618871058932
23.009497869018190385759 2493.04845275799289084 23.009497869018190385759 491.37007493581739936
24.009497869018204596614 2509.99241005347266764 24.009497869018204596614 492.60504943867198335
25.009497869018204596614 2526.15626997491062866 25.009497869018204596614 493.79668353310000839
26.009497869018190385759 2541.60105867080528697 26.009497869018190385759 494.90255621986085544
27.009497869018204596614 2556.38243590102729286 27.009497869018204596614 495.91914447366218610
28.009497869018190385759 2570.54475652902465299 28.009497869018190385759 496.86304895509891821
29.009497869018190385759 2584.12444318282678068 29.009497869018190385759 497.75936205911148136
30.009497869018190385759 2597.16047055771014129 30.009497869018190385759 498.60433576476310691
31.009497869018218807469 2609.69122487103140884 31.009497869018218807469 499.38100063748350976
32.009497869018190385759 2621.74993663168424973 32.009497869018190385759 500.11003007974250067
33.009497869018190385759 2633.36664984053140870 33.009497869018190385759 500.85497305778739019
34.009497869018218807469 2644.56966298777615521 34.009497869018218807469 501.55452463835439403
35.009497869018190385759 2655.38295820439179806 35.009497869018190385759 502.23121408365193474
36.009497869018190385759 2665.82880518455885976 36.009497869018190385759 502.89250458424891121
37.009497869018190385759 2675.92788262179919911 37.009497869018190385759 503.53021430018105775
38.009497869018218807469 2685.69846519740576696 38.009497869018218807469 504.14437356229819898
39.009497869018190385759 2695.15769255473060184 39.009497869018190385759 504.72463848384558105
40.009497869018190385759 2704.32147528250379764 40.009497869018190385759 505.26791500835162196
41.009497869018218807469 2713.20476745435689736 41.009497869018218807469 505.80819435211122936
42.009497869018190385759 2721.82128196022904376 42.009497869018190385759 506.31945035355835216
43.009497869018190385759 2730.18374566596094155 43.009497869018190385759 506.81044537221941937
44.009497869018218807469 2738.30460782077261683 44.009497869018218807469 507.27698731704055035
46.009497869018190385759 2753.86646973448159770 46.009497869018190385759 508.16108502996632978
48.009497869018218807469 2768.58870841880161606 48.009497869018218807469 508.98959125995884278
50.009497869018190385759 2782.54228403184606577 50.009497869018190385759 509.76596665036288414
52.009497869018190385759 2795.79042140264846239 52.009497869018190385759 510.49672645928575321
54.009497869018218807469 2808.38927373654314579 54.009497869018218807469 511.18675929103500266
56.009497869018190385759 2820.38913344730144672 56.009497869018190385759 511.83362799567555612
58.009497869018218807469 2831.83450193243834292 58.009497869018218807469 512.43127161100755984
60.009497869018190385759 2842.76546808108241748 60.009497869018190385759 513.00571139975807000
62.009497869018190385759 2853.21813775813734537 62.009497869018190385759 513.54927505788293729
64.009497869018218807469 2863.22511998513436993 64.009497869018218807469 514.06237790151010358
66.009497869018190385759 2872.81588036297534927 66.009497869018190385759 514.53385315096647901
68.009497869018190385759 2882.01708408026615871 68.009497869018190385759 514.97596252426990304
70.009497869018190385759 2890.85340919333248166 70.009497869018190385759 515.40400706082027682
72.009497869018190385759 2899.34737160552003843 72.009497869018190385759 515.80805658843189576
74.009497869018218807469 2907.51955846340752032 74.009497869018218807469 516.19433052917713667
76.009497869018190385759 2915.38846844581075857 76.009497869018190385759 516.56151957424754073
78.009497869018190385759 2922.97105502803151467 78.009497869018190385759 516.90333445498845322
80.009497869018218807469 2930.28327263977280381 80.009497869018218807469 517.24224618485118299
82.009497869018190385759 2937.34046164234950993 82.009497869018190385759 517.57617446760127677
84.009497869018218807469 2944.15657659702628735 84.009497869018218807469 517.88715000484808115
86.009497869018190385759 2950.74448185073197237 86.009497869018190385759 518.18719716842736034
88.009497869018190385759 2957.11574697029618619 88.009497869018190385759 518.47725526897852433
91.009497869018218807469 2966.28992218763323763 91.009497869018218807469 518.90119133012819930
94.009497869018218807469 2975.03473538765638295 94.009497869018218807469 519.32649373292304062
97.009497869018218807469 2983.38172770267283340 97.009497869018218807469 519.78790292113239957
99.504748934509137825444 2990.04258098066156890 99.504748934509137825444 519.95765502059350638
nan nan nan nan

