Time Pressure difference Time.1 Pressure.1 difference.1
(hr) (psi) (hr) (psi)
0.000200000000020850166 0.23672023599128719 0.000200000000020850166 0.18898489339820107
0.000399999999999067768 0.47277377157991551 0.000399999999999067768 0.49212360232037045
0.000600000000019917934 0.70826099105098062 0.000600000000019917934 0.71883310350994711
0.000799999999998135536 0.94323203855851689 0.000799999999998135536 0.94893002536794047
0.001007140329434719206 1.18608406862527294 0.001007140329434719206 1.18974330359552294
0.001267914553977789183 1.49112336586422112 0.001267914553977789183 1.49403998120168602
0.001596209851982166583 1.87410587705920983 0.001596209851982166583 1.87525510124550410
0.002009509145224797066 2.35469598730943641 0.002009509145224797066 2.35237976265826099
0.002529822128153114136 2.95739426281812001 0.002529822128153114136 2.94886810368145547
0.003184857364431081805 3.71266438337886262 0.003184857364431081805 3.69357321635529789
0.004009497869034817086 4.65829153512227023 0.004009497869034817086 4.62182512476987206
0.005047658755856332391 5.84100521992611732 0.005047658755856332391 5.77664004452341207
0.006354625877790454069 7.31839368326113338 0.006354625877790454069 7.21003711835803074
0.008000000000009777068 9.16113179714904291 0.008000000000009777068 8.98440427603292235
0.010071403294361402914 11.45552249486921426 0.010071403294361402914 11.17378916341033523
0.012679145539692626699 14.30631612501247041 0.012679145539692626699 13.86493542685030000
0.015962098519750611558 17.83972456872785628 0.015962098519750611558 17.15782400048560774
0.020095091452091651263 22.20648310792568125 0.020095091452091651263 21.16521524041545632
0.025298221281360611101 27.58464378006194906 0.025298221281360611101 26.01071813836653845
0.031848573644296607199 34.18173378465802870 0.031848573644296607199 31.82468214183861832
0.040094978690191851456 42.23563672423457405 0.040094978690191851456 38.73685507078405976
0.050476587558435426217 52.01334199316681861 0.050476587558435426217 46.86495443647527281
0.063546258777947173257 63.80652576352680683 0.063546258777947173257 56.29821852568010598
0.080000000000012505552 77.92267796044171746 0.080000000000012505552 67.07554896159577140
0.100714032943542974863 94.67056050238072373 0.100714032943542974863 79.15757105061403820
0.126791455396883634421 114.33840542364318082 0.126791455396883634421 92.39802917744140132
0.159620985197506115583 137.16614008043384842 0.159620985197506115583 106.51348055175736818
0.200950914520774404082 163.30958993728796713 0.200950914520774404082 121.06863781493534304
0.252982212813464002465 192.80594865934523341 0.252982212813464002465 135.47887714223242028
0.318485736442809752589 225.53919652838507659 0.318485736442809752589 149.04588505939941001
0.400949786901833249431 261.22211029614061317 0.400949786901833249431 161.04182055228386616
0.504765875584169521062 299.40060009504827576 0.504765875584169521062 170.81312955243657825
0.635462587779443310865 339.48368487470395394 0.635462587779443310865 177.90833849061115757
0.800000000000011368684 380.80667827201710907 0.800000000000011368684 182.18306971359456270
1.007140329435344483500 422.70926642482032776 1.007140329435344483500 183.83145307066453711
1.267914553968907398485 464.61259367184368330 1.267914553968907398485 183.35878370829621531
1.596209851975117999245 506.08377368549707853 1.596209851975117999245 181.46493451311192757
2.009509145207687197399 546.85822973764754806 2.009509145207687197399 178.89630394860091656
2.529822128134725289783 586.83491283244723036 2.529822128134725289783 176.34661889245401767
3.184857364427983839050 626.05165518372496081 3.184857364427983839050 174.32530480823751873
4.009497869018204596614 664.61950929518684461 4.009497869018204596614 173.13064532193035916
5.009497869018190385759 701.43922889825591938 5.009497869018190385759 172.86628418854473921
6.009497869018190385759 731.27541539522587755 6.009497869018190385759 173.30099374351976849
7.009497869018204596614 756.36787320085272768 7.009497869018204596614 174.09472578720209412
8.009497869018190385759 778.01807456053177248 8.009497869018190385759 175.04631790408035386
9.009497869018204596614 797.04980964064623095 9.009497869018204596614 176.06820283977580743
10.009497869018190385759 814.01848636407555659 10.009497869018190385759 177.09830838454402624
11.009497869018190385759 829.31714763045204108 11.009497869018190385759 178.05817046763982603
12.009497869018204596614 843.23445811446640619 12.009497869018204596614 178.98081728339451502
13.009497869018190385759 855.98804863753684913 13.009497869018190385759 179.85989533717889799
14.009497869018204596614 867.74914694709934793 14.009497869018204596614 180.69316233859797194
15.009497869018190385759 878.65253106818749984 15.009497869018190385759 181.48701894933330436
16.009497869018190385759 888.80736963630590708 16.009497869018190385759 182.23634608707669713
17.009497869018204596614 898.30318402660759602 17.009497869018204596614 182.93090531818555178
18.009497869018190385759 907.21348645276430034 18.009497869018190385759 183.57857305514292534
19.009497869018204596614 915.59927362699329478 19.009497869018204596614 184.16005303725626163
20.009497869018190385759 923.51286050773535408 20.009497869018190385759 184.70924546396685173
21.009497869018190385759 930.99880164042326669 21.009497869018190385759 185.22940145760799169
22.009497869018204596614 938.09523452740461380 22.009497869018204596614 185.73078824971082668
23.009497869018190385759 944.83884180322866086 23.009497869018190385759 186.22403105945210200
24.009497869018204596614 951.26042136335070154 24.009497869018204596614 186.69207325800732633
25.009497869018204596614 957.38635231761884370 25.009497869018204596614 187.14368990283711014
26.009497869018190385759 963.23976292710028702 26.009497869018190385759 187.56280388651640578
27.009497869018204596614 968.84174764866043006 27.009497869018204596614 187.94808001993845892
28.009497869018190385759 974.20911650368623214 28.009497869018190385759 188.30580977686597066
29.009497869018190385759 979.35567328072568216 29.009497869018190385759 188.64550290804092469
30.009497869018190385759 984.29618897466400540 30.009497869018190385759 188.96573895340091553
31.009497869018218807469 989.04521155351585548 31.009497869018218807469 189.26008667776969219
32.009497869018190385759 993.61533502663564832 32.009497869018190385759 189.53638108075350033
33.009497869018190385759 998.01794575073336091 33.009497869018190385759 189.81870654450719371
34.009497869018218807469 1002.26376855254829934 34.009497869018218807469 190.08382915150400549
35.009497869018190385759 1006.36189240458986660 35.009497869018190385759 190.34028725244789371
36.009497869018190385759 1010.32075728404151960 36.009497869018190385759 190.59090931716880846
37.009497869018190385759 1014.14820019576177401 37.009497869018190385759 190.83259451536116558
38.009497869018218807469 1017.85114704954855824 38.009497869018218807469 191.06535434209442315
39.009497869018190385759 1021.43609358789660746 39.009497869018190385759 191.28526857432973429
40.009497869018190385759 1024.90906975467214579 40.009497869018190385759 191.49116459758008091
41.009497869018218807469 1028.27574298469630776 41.009497869018218807469 191.69592472121237847
42.009497869018190385759 1031.54131031737392732 42.009497869018190385759 191.88968530686722147
43.009497869018190385759 1034.71059509946644539 43.009497869018190385759 192.07576719558844047
44.009497869018218807469 1037.78831546398964747 44.009497869018218807469 192.25258162946349216
46.009497869018190385759 1043.68609557756280992 46.009497869018190385759 192.58764525736756923
48.009497869018218807469 1049.26566741935948812 48.009497869018218807469 192.90164030463864719
50.009497869018190385759 1054.55392413440995369 50.009497869018190385759 193.19587831828911817
52.009497869018190385759 1059.57482726031230413 52.009497869018190385759 193.47282851183038588
54.009497869018218807469 1064.34965826451457360 54.009497869018218807469 193.73434361428851957
56.009497869018190385759 1068.89747743680959502 56.009497869018190385759 193.97949997176533543
58.009497869018218807469 1073.23515033343755931 58.009497869018218807469 194.20600054406537538
60.009497869018190385759 1077.37787021689973699 60.009497869018190385759 194.42370711294023522
62.009497869018190385759 1081.33932082588967205 62.009497869018190385759 194.62971195677744163
64.009497869018218807469 1085.13186063266380188 64.009497869018218807469 194.82417247597126675
66.009497869018190385759 1088.76665678650010705 66.009497869018190385759 195.00285657982107068
68.009497869018190385759 1092.25381511020736980 68.009497869018190385759 195.17041132901186984
70.009497869018190385759 1095.60268832460064914 70.009497869018190385759 195.33263565469920309
72.009497869018190385759 1098.82180971751768084 72.009497869018190385759 195.48576612726472490
74.009497869018218807469 1101.91898159849870353 74.009497869018218807469 195.63215984150997429
76.009497869018190385759 1104.90121477002139727 76.009497869018190385759 195.77132058332517772
78.009497869018190385759 1107.77493441886804248 78.009497869018190385759 195.90086478679748438
80.009497869018218807469 1110.54618710416912108 80.009497869018218807469 196.02930872697154996
82.009497869018190385759 1113.22078665966705557 82.009497869018190385759 196.15586399370528170
84.009497869018218807469 1115.80402171562832336 84.009497869018218807469 196.27372041407144820
86.009497869018190385759 1118.30076772268421337 86.009497869018190385759 196.38743509707686030
88.009497869018190385759 1120.71540942358296888 88.009497869018190385759 196.49736403146130215
91.009497869018218807469 1124.19232423334506166 91.009497869018218807469 196.65803128867892724
94.009497869018218807469 1127.50651540622629909 94.009497869018218807469 196.81921637484447274
97.009497869018218807469 1130.66993669582689108 97.009497869018218807469 196.99408554856745468
99.504748934509137825444 1133.19432922804321606 99.504748934509137825444 197.05841978838981277
nan nan nan nan

