Time Pressure difference Time.1 Pressure.1 difference.1
(hr) (psi) (hr) (psi)
0.000200000000020850166 0.57726513689103365 0.000200000000020850166 0.46085789793596399
0.000399999999999067768 1.15290446051944317 0.000399999999999067768 1.20009088986897350
0.000600000000019917934 1.72716276765063714 0.000600000000019917934 1.75294388399794143
0.000799999999998135536 2.30016233964269912 0.000799999999998135536 2.31405743028322330
0.001007140329434719206 2.89238044805110395 0.001007140329434719206 2.90130384561013477
0.001267914553977789183 3.63624820798467940 0.001267914553977789183 3.64336065591288305
0.001596209851982166583 4.57018801598649471 0.001596209851982166583 4.57299051005482493
0.002009509145224797066 5.74215337256160829 0.002009509145224797066 5.73650503525435518
0.002529822128153114136 7.21189127248629269 0.002529822128153114136 7.19109941073197056
0.003184857364431081805 9.05369033841512127 0.003184857364431081805 9.00713468549800744
0.004009497869034817086 11.35969339266658729 0.004009497869034817086 11.27076653233354797
0.005047658755856332391 14.24385483455667156 0.005047658755856332391 14.08689414366235582
0.006354625877790454069 17.84660915742626841 0.006354625877790454069 17.58237121845204243
0.008000000000009777068 22.34030385620556203 0.008000000000009777068 21.90933674330835146
0.010071403294361402914 27.93539696117229809 0.010071403294361402914 27.24836304761468142
0.012679145539692626699 34.88733230485497216 0.012679145539692626699 33.81098288302090538
0.015962098519750611558 43.50388973777494073 0.015962098519750611558 41.84100940469297569
0.020095091452091651263 54.15265178950298264 0.020095091452091651263 51.61341962136400952
0.025298221281360611101 67.26781553383527523 0.025298221281360611101 63.42964598654295827
0.031848573644296607199 83.35545607135905755 0.031848573644296607199 77.60755820553627871
0.040094978690191851456 102.99567552050186237 0.040094978690191851456 94.46355885682427811
0.050476587558435426217 126.83955328158222642 0.050476587558435426217 114.28471345035198681
0.063546258777947173257 155.59836984438993568 0.063546258777947173257 137.28863815911464030
0.080000000000012505552 190.02196906142805233 0.080000000000012505552 163.57019834494406041
0.100714032943542974863 230.86329666370036762 0.100714032943542974863 193.03337501816409372
0.126791455396883634421 278.82523427870881960 0.126791455396883634421 225.32150974849744784
0.159620985197506115583 334.49286791544392372 0.159620985197506115583 259.74339994200477122
0.200950914520774404082 398.24619300496533469 0.200950914520774404082 295.23755537326337617
0.252982212813464002465 470.17590988857875800 0.252982212813464002465 330.37831443456678926
0.318485736442809752589 549.99909328851799728 0.318485736442809752589 363.46277233783359861
0.400949786901833249431 637.01532159936027711 0.400949786901833249431 392.71601853977995233
0.504765875584169521062 730.11725286336343288 0.504765875584169521062 416.54429838225763660
0.635462587779443310865 827.86372276462896025 0.635462587779443310865 433.84665000342016583
0.800000000000011368684 928.63382947035745474 0.800000000000011368684 444.27099456473064265
1.007140329435344483500 1030.81733391315833614 1.007140329435344483500 448.29073643548014161
1.267914553968907398485 1133.00264070853086196 1.267914553968907398485 447.13808658689777076
1.596209851975117999245 1234.13411477691397522 1.596209851975117999245 442.51975258460629448
2.009509145207687197399 1333.56656023742107209 2.009509145207687197399 436.25589910272856287
2.529822128134725289783 1431.05355936333648970 2.529822128134725289783 430.03824607107208067
3.184857364427983839050 1526.68736965855737253 3.184857364427983839050 425.10907663763180153
4.009497869018204596614 1620.73880336896422705 4.009497869018204596614 422.19578420611088632
5.009497869018190385759 1710.52724240100997122 5.009497869018190385759 421.55111407381963318
6.009497869018190385759 1783.28566210414737725 6.009497869018190385759 422.61119526928507639
7.009497869018204596614 1844.47604166523728964 7.009497869018204596614 424.54678744598408002
8.009497869018190385759 1897.27214673533194400 8.009497869018190385759 426.86733664328369287
9.009497869018204596614 1943.68286912368125741 9.009497869018204596614 429.35930166190939872
10.009497869018190385759 1985.06262464221936170 10.009497869018190385759 431.87131342897578179
11.009497869018190385759 2022.36988632689167389 11.009497869018190385759 434.21202973687604754
12.009497869018204596614 2056.30859084054054620 12.009497869018204596614 436.46199302441817736
13.009497869018190385759 2087.40945194065989199 13.009497869018190385759 438.60570968189244923
14.009497869018204596614 2116.09002501134727936 14.009497869018204596614 440.63771166780912836
15.009497869018190385759 2142.67897927154490390 15.009497869018190385759 442.57360761328646959
16.009497869018190385759 2167.44253297274599390 16.009497869018190385759 444.40091414216954036
17.009497869018204596614 2190.59899262628823635 17.009497869018204596614 446.09466384610158229
18.009497869018190385759 2212.32762485849525547 18.009497869018190385759 447.67406411692746815
19.009497869018204596614 2232.77717603775545285 19.009497869018204596614 449.09205916102843048
20.009497869018190385759 2252.07522123816170279 20.009497869018190385759 450.43131788581388264
21.009497869018190385759 2270.33041101787466687 21.009497869018190385759 451.69976846679844584
22.009497869018204596614 2287.63574735630254509 22.009497869018204596614 452.92244853876843536
23.009497869018190385759 2304.08068439734734056 23.009497869018190385759 454.12526872392703581
24.009497869018204596614 2319.74032578080277744 24.009497869018204596614 455.26663478707052946
25.009497869018204596614 2334.67899951138679171 25.009497869018204596614 456.36794555253266026
26.009497869018190385759 2348.95310608538466113 26.009497869018190385759 457.38999544255750607
27.009497869018204596614 2362.61408637129488852 27.009497869018204596614 458.32952846967447158
28.009497869018190385759 2375.70293322828729288 28.009497869018190385759 459.20188699972578661
29.009497869018190385759 2388.25330852668184889 29.009497869018190385759 460.03026147750330210
30.009497869018190385759 2400.30123276277709010 30.009497869018190385759 460.81118797408294085
31.009497869018218807469 2411.88218256032814679 31.009497869018218807469 461.52898330192954290
32.009497869018190385759 2423.02686962635698364 32.009497869018190385759 462.20275386359185177
33.009497869018190385759 2433.76306069038491842 33.009497869018190385759 462.89123174888595713
34.009497869018218807469 2444.11690927726658629 34.009497869018218807469 463.53775880805358156
35.009497869018190385759 2454.11057972347362011 35.009497869018190385759 464.16315663316242990
36.009497869018190385759 2463.76465372775055584 36.009497869018190385759 464.77432272081517795
37.009497869018190385759 2473.09824258264688979 37.009497869018190385759 465.36369539710875642
38.009497869018218807469 2482.12823578749612352 38.009497869018218807469 465.93130269387938824
39.009497869018190385759 2490.87047383715162141 39.009497869018190385759 466.46758476897957735
40.009497869018190385759 2499.33966133156900469 40.009497869018190385759 466.96968208883566831
41.009497869018218807469 2507.54961885741795413 41.009497869018218807469 467.46900940786878209
42.009497869018190385759 2515.51301989675403092 42.009497869018190385759 467.94151329218493629
43.009497869018190385759 2523.24162664606728868 43.009497869018190385759 468.39529193310164601
44.009497869018218807469 2530.74694472797455091 44.009497869018218807469 468.82647099114780076
46.009497869018190385759 2545.12925061896930856 46.009497869018190385759 469.64355597849282731
48.009497869018218807469 2558.73557493492944559 48.009497869018218807469 470.40926319903104513
50.009497869018190385759 2571.63149920496425693 50.009497869018190385759 471.12679098670503208
52.009497869018190385759 2583.87545595058600156 52.009497869018190385759 471.80216075691976130
54.009497869018218807469 2595.51934208364036749 54.009497869018218807469 472.43989056817730443
56.009497869018190385759 2606.60963795993939129 56.009497869018190385759 473.03772800132247767
58.009497869018218807469 2617.18747186575092201 58.009497869018218807469 473.59007150219451887
60.009497869018190385759 2627.28989403770219724 60.009497869018190385759 474.12096997717009117
62.009497869018190385759 2636.95027359295954739 62.009497869018190385759 474.62333266652740349
64.009497869018218807469 2646.19874785860110933 64.009497869018218807469 475.09754340631593550
66.009497869018190385759 2655.06254900567546429 66.009497869018190385759 475.53328183500229898
68.009497869018190385759 2663.56632105822473022 68.009497869018190385759 475.94188025846750634
70.009497869018190385759 2671.73287152841203351 70.009497869018190385759 476.33747992988048736
72.009497869018190385759 2679.58300966201659321 72.009497869018190385759 476.71090336297891099
74.009497869018218807469 2687.13576214370777961 74.009497869018218807469 477.06789856087516455
76.009497869018190385759 2694.40822549180620626 76.009497869018190385759 477.40725545758249382
78.009497869018190385759 2701.41606814425767880 78.009497869018190385759 477.72316149762895066
80.009497869018218807469 2708.17403521893947982 80.009497869018218807469 478.03638443945692416
82.009497869018190385759 2714.69630431041650809 82.009497869018190385759 478.34500166886016359
84.009497869018218807469 2720.99577225390066815 84.009497869018218807469 478.63240592203385404
86.009497869018190385759 2727.08432830619494780 86.009497869018190385759 478.90971014901202807
88.009497869018190385759 2732.97266508557913767 88.009497869018190385759 479.17778246268630937
91.009497869018218807469 2741.45145734096468004 91.009497869018218807469 479.56958507239244227
94.009497869018218807469 2749.53343230641121409 94.009497869018218807469 479.96265045795411197
97.009497869018218807469 2757.24774036350709139 97.009497869018218807469 480.38908581141885179
99.504748934509137825444 2763.40371513505260737 99.504748934509137825444 480.54597106291549835
nan nan nan nan

