Time Pressure difference Time.1 Pressure.1 difference.1
(hr) (psi) (hr) (psi)
0.000200000000020850166 0.29818443761709507 0.000200000000020850166 0.23805465519282168
0.000399999999999067768 0.59552906665680594 0.000399999999999067768 0.61990306397548423
0.000600000000019917934 0.89216033609579670 0.000600000000019917934 0.90547748828095098
0.000799999999998135536 1.18814140997371065 0.000799999999998135536 1.19531887405996740
0.001007140329434719206 1.49404975661920325 0.001007140329434719206 1.49865910873962371
0.001267914553977789183 1.87829223980791338 0.001267914553977789183 1.88196615175931670
0.001596209851982166583 2.36071582408510983 0.001596209851982166583 2.36216344332328365
0.002009509145224797066 2.96609073489153596 0.002009509145224797066 2.96317310454145799
0.002529822128153114136 3.72527908895335091 0.002529822128153114136 3.71453912007593878
0.003184857364431081805 4.67665443380004042 0.003184857364431081805 4.65260626200544536
0.004009497869034817086 5.86781284599612185 0.004009497869034817086 5.82187796418380366
0.005047658755856332391 7.35761710159114379 0.005047658755856332391 7.27653956485580711
0.006354625877790454069 9.21860818347630406 0.006354625877790454069 9.08211693154573041
0.008000000000009777068 11.53981163219826911 0.008000000000009777068 11.31719696524848651
0.010071403294361402914 14.42993886195806397 0.010071403294361402914 14.07505371812038852
0.012679145539692626699 18.02093855747185103 0.012679145539692626699 17.46495374820792179
0.015962098519750611558 22.47179340411683768 0.015962098519750611558 21.61283795148889197
0.020095091452091651263 27.97237696752743474 0.020095091452091651263 26.66074481161104970
0.025298221281360611101 34.74697234049908445 0.025298221281360611101 32.76437828657399365
0.031848573644296607199 43.05699097786748553 0.031848573644296607199 40.08793294357916892
0.040094978690191851456 53.20208275087793481 0.040094978690191851456 48.79484551021570837
0.050476587558435426217 65.51856061595398728 0.050476587558435426217 59.03339874629692474
0.063546258777947173257 80.37383420738990480 0.063546258777947173257 70.91600158147072364
0.080000000000012505552 98.15523293964412233 0.080000000000012505552 84.49165641127326865
0.100714032943542974863 119.25168849247256730 0.100714032943542974863 99.71076493744016034
0.126791455396883634421 144.02627209504527173 0.126791455396883634421 116.38909640246127708
0.159620985197506115583 172.78120803114299520 0.159620985197506115583 134.16961234414347359
0.200950914520774404082 205.71278171047850947 0.200950914520774404082 152.50400342302381773
0.252982212813464002465 242.86784410071908269 0.252982212813464002465 170.65584875109274776
0.318485736442809752589 284.10025106557981189 0.318485736442809752589 187.74551837306802327
0.400949786901833249431 329.04820209233145079 0.400949786901833249431 202.85618799392949541
0.504765875584169521062 377.13970327762228862 0.504765875584169521062 215.16460880464816796
0.635462587779443310865 427.63032585971478738 0.635462587779443310865 224.10208251975228677
0.800000000000011368684 479.68279824440054426 0.800000000000011368684 229.48674395501913637
1.007140329435344483500 532.46535665442274876 1.007140329435344483500 231.56312860480198879
1.267914553968907398485 585.24884606383113805 1.267914553968907398485 230.96773105711696417
1.596209851975117999245 637.48798158980162043 1.596209851975117999245 228.58214557967434644
2.009509145207687197399 688.84948938882621405 2.009509145207687197399 225.34657234227273648
2.529822128134725289783 739.20608318192478237 2.529822128134725289783 222.13486379786311886
3.184857364427983839050 788.60541828406064724 3.184857364427983839050 219.58871728476231056
4.009497869018204596614 837.18738188411248302 4.009497869018204596614 218.08386551078245930
5.009497869018190385759 883.56730938411885745 5.009497869018190385759 217.75086324100900015
6.009497869018190385759 921.15043553293367040 6.009497869018190385759 218.29844475060912146
7.009497869018204596614 952.75812799686354992 7.009497869018204596614 219.29826862317739256
8.009497869018190385759 980.02978514817857558 8.009497869018190385759 220.49694079847316175
9.009497869018204596614 1004.00309354734042699 9.009497869018204596614 221.78415726133164299
10.009497869018190385759 1025.37767229720407158 10.009497869018190385759 223.08172880719757813
11.009497869018190385759 1044.64861754151661444 11.009497869018190385759 224.29081823818489738
12.009497869018204596614 1062.17954548453826646 12.009497869018204596614 225.45302949031096773
13.009497869018190385759 1078.24459459956392493 13.009497869018190385759 226.56035938963941589
14.009497869018204596614 1093.05945176845125388 14.009497869018204596614 227.60998343704096669
15.009497869018190385759 1106.79389001220806676 15.009497869018190385759 228.60996422038829223
16.009497869018190385759 1119.58542350678544608 16.009497869018190385759 229.55385349214222401
17.009497869018204596614 1131.54681777386713293 17.009497869018204596614 230.42875441834598860
18.009497869018190385759 1142.77067240892051814 18.009497869018190385759 231.24458851507475288
19.009497869018204596614 1153.33382186698440819 19.009497869018204596614 231.97704926447366347
20.009497869018190385759 1163.30216463956844564 20.009497869018190385759 232.66883902303194986
21.009497869018190385759 1172.73182382074355701 21.009497869018190385759 233.32405306414483448
22.009497869018204596614 1181.67083928188867503 22.009497869018204596614 233.95562449700415186
23.009497869018190385759 1190.16541827143532828 23.009497869018190385759 234.57693736962562525
24.009497869018204596614 1198.25435533137851962 24.009497869018204596614 235.16650631447240016
25.009497869018204596614 1205.97087888429882696 25.009497869018204596614 235.73538482497730229
26.009497869018190385759 1213.34412242396138026 26.009497869018190385759 236.26332138687502038
27.009497869018204596614 1220.40065756445301304 27.009497869018204596614 236.74863413037863324
28.009497869018190385759 1227.16165903446790253 28.009497869018190385759 237.19924810489430911
29.009497869018190385759 1233.64451476414205899 29.009497869018190385759 237.62714225960243652
30.009497869018190385759 1239.86783102422600678 30.009497869018190385759 238.03052731323131752
31.009497869018218807469 1245.84993314986741098 31.009497869018218807469 238.40130216603270696
32.009497869018190385759 1251.60668517390263332 32.009497869018190385759 238.74933616838771400
33.009497869018190385759 1257.15242991057311883 33.009497869018190385759 239.10496719115116093
34.009497869018218807469 1262.50067687847308662 34.009497869018218807469 239.43892865049099328
35.009497869018190385759 1267.66287499385202864 35.009497869018190385759 239.76197587238172559
36.009497869018190385759 1272.64965566656474039 36.009497869018190385759 240.07767173636352709
37.009497869018190385759 1277.47089077290661407 37.009497869018190385759 240.38211028426195526
38.009497869018218807469 1282.13530452908048574 38.009497869018218807469 240.67530599583119510
39.009497869018190385759 1286.65107929142072862 39.009497869018190385759 240.95232076555922163
40.009497869018190385759 1291.02581067342930510 40.009497869018190385759 241.21167751063597962
41.009497869018218807469 1295.26663765440707721 41.009497869018218807469 241.46960342075522021
42.009497869018190385759 1299.38010668048150364 42.009497869018190385759 241.71367377250993513
43.009497869018190385759 1303.37229347617017083 43.009497869018190385759 241.94807166040791913
44.009497869018218807469 1307.24914123358689721 44.009497869018218807469 242.17079580693820162
46.009497869018190385759 1314.67827478015806264 46.009497869018190385759 242.59285841191211830
48.009497869018218807469 1321.70657755631623331 48.009497869018218807469 242.98838199777284785
50.009497869018190385759 1328.36792548860762508 50.009497869018190385759 243.35901865356416351
52.009497869018190385759 1334.69250170684949808 52.009497869018190385759 243.70787872191971246
54.009497869018218807469 1340.70711339284434871 54.009497869018218807469 244.03729599133183115
56.009497869018190385759 1346.43576982391118690 56.009497869018190385759 244.34610698197809597
58.009497869018218807469 1351.89971568317196216 58.009497869018218807469 244.63141822919112656
60.009497869018190385759 1357.11808915041046930 60.009497869018190385759 244.90565211770365295
62.009497869018190385759 1362.10812693506841242 62.009497869018190385759 245.16514593853719362
64.009497869018218807469 1366.88539637588178266 64.009497869018218807469 245.41009796096031437
66.009497869018190385759 1371.46396416264383333 66.009497869018190385759 245.63517723563430195
68.009497869018190385759 1375.85656008619093882 68.009497869018190385759 245.84623742847460903
70.009497869018190385759 1380.07496529309332800 70.009497869018190385759 246.05058315802457969
72.009497869018190385759 1384.12992873189045895 72.009497869018190385759 246.24347382346681457
74.009497869018218807469 1388.03127857495110220 74.009497869018218807469 246.42787853720025737
76.009497869018190385759 1391.78784597346543705 76.009497869018190385759 246.60317224355696908
78.009497869018190385759 1395.40772440832870416 78.009497869018190385759 246.76635248582562099
80.009497869018218807469 1398.89853042244476455 80.009497869018218807469 246.92814678239574278
82.009497869018190385759 1402.26758740638774725 82.009497869018190385759 247.08756201312348821
84.009497869018218807469 1405.52155717863342943 84.009497869018218807469 247.23601974965492900
86.009497869018190385759 1408.66658109629361206 86.009497869018190385759 247.37926035035295058
88.009497869018190385759 1411.70818239672371419 88.009497869018190385759 247.51773223612141805
91.009497869018218807469 1416.08787508691557377 91.009497869018218807469 247.72011660573937775
94.009497869018218807469 1420.26259309064971603 94.009497869018218807469 247.92315325813746085
97.009497869018218807469 1424.24739394316429753 97.009497869018218807469 248.14342705942357270
99.504748934509137825444 1427.42724278199125365 99.504748934509137825444 248.22446562818223015
nan nan nan nan

