Time Pressure difference Time.1 Pressure.1 difference.1
(hr) (psi) (hr) (psi)
0.000200000000020850166 0.20681873249765090 0.000200000000020850166 0.16511311739000725
0.000399999999999067768 0.41305497938034724 0.000399999999999067768 0.42996062097463944
0.000600000000019917934 0.61879644481296203 0.000600000000019917934 0.62803313254026960
0.000799999999998135536 0.82408693895112528 0.000799999999998135536 0.82906518005830598
0.001007140329434719206 1.03626292311471202 0.001007140329434719206 1.03945993893082544
0.001267914553977789183 1.30277094070242461 0.001267914553977789183 1.30531914147094663
0.001596209851982166583 1.63737671364120452 0.001596209851982166583 1.63838077266712467
0.002009509145224797066 2.05726070470192868 0.002009509145224797066 2.05523705579616500
0.002529822128153114136 2.58382867172530473 0.002529822128153114136 2.57637950111116654
0.003184857364431081805 3.24369625074153234 0.003184857364431081805 3.22701659955252351
0.004009497869034817086 4.06987576226472036 0.004009497869034817086 4.03801563532525698
0.005047658755856332391 5.10319403425123941 0.005047658755856332391 5.04695919679413851
0.006354625877790454069 6.39396500748077923 0.006354625877790454069 6.29929558761806874
0.008000000000009777068 8.00393620171969111 0.008000000000009777068 7.84953215695507911
0.010071403294361402914 10.00850912709626073 0.010071403294361402914 9.76236316382166258
0.012679145539692626699 12.49920250922142273 0.012679145539692626699 12.11357516240605037
0.015962098519750611558 15.58628567583591185 0.015962098519750611558 14.99051991621374214
0.020095091452091651263 19.40145366271401528 0.020095091452091651263 18.49171436794192758
0.025298221281360611101 24.10026772363307046 0.025298221281360611101 22.72515374194129123
0.031848573644296607199 29.86404109606964852 0.031848573644296607199 27.80472229234321091
0.040094978690191851456 36.90060892748915933 0.040094978690191851456 33.84377864079028342
0.050476587558435426217 45.44323563613521344 0.050476587558435426217 40.94517071818366105
0.063546258777947173257 55.74675408813394739 0.063546258777947173257 49.18686460664682869
0.080000000000012505552 68.07981337596486071 0.080000000000012505552 58.60284804013104321
0.100714032943542974863 82.71217391260631757 0.100714032943542974863 69.15871997053648101
0.126791455396883634421 99.89565947539352919 0.126791455396883634421 80.72669917608037338
0.159620985197506115583 119.83989080711589281 0.159620985197506115583 93.05914616627222813
0.200950914520774404082 142.68101015573577683 0.200950914520774404082 105.77575724883824648
0.252982212813464002465 168.45151303921741714 0.252982212813464002465 118.36575581900306986
0.318485736442809752589 197.05003486164170567 0.318485736442809752589 130.21903642031739423
0.400949786901833249431 228.22563320610177584 0.400949786901833249431 140.69969585094273157
0.504765875584169521062 261.58157692514748760 0.504765875584169521062 149.23673424054985048
0.635462587779443310865 296.60153520632030677 0.635462587779443310865 155.43570626021818271
0.800000000000011368684 332.70478206923604603 0.800000000000011368684 159.17047143398264097
1.007140329435344483500 369.31441171852725347 1.007140329435344483500 160.61063794594900855
1.267914553968907398485 405.92468710276864385 1.267914553968907398485 160.19767418724825347
1.596209851975117999245 442.15740227259220774 1.596209851975117999245 158.54304804829780551
2.009509145207687197399 477.78140071815516876 2.009509145207687197399 156.29887608140921884
2.529822128134725289783 512.70839752729602878 2.529822128134725289783 154.07125650603876466
3.184857364427983839050 546.97144610788598129 3.184857364427983839050 152.30526630614434680
4.009497869018204596614 580.66757127895266422 4.009497869018204596614 151.26151117600232965
5.009497869018190385759 612.83637893216041448 5.009497869018190385759 151.03054302788646623
6.009497869018190385759 638.90378397688152745 6.009497869018190385759 151.41034190223305700
7.009497869018204596614 660.82666816495554940 7.009497869018204596614 152.10381305618710712
8.009497869018190385759 679.74210724762258451 8.009497869018190385759 152.93520406356495300
9.009497869018204596614 696.36983368603830513 9.009497869018204596614 153.82800879685675000
10.009497869018190385759 711.19509861282392649 10.009497869018190385759 154.72799574649638998
11.009497869018190385759 724.56129740344761103 11.009497869018190385759 155.56661209278004776
12.009497869018204596614 736.72063182632314238 12.009497869018204596614 156.37271404759732718
13.009497869018190385759 747.86324249384801988 13.009497869018190385759 157.14075066300895855
14.009497869018204596614 758.13872838536042309 14.009497869018204596614 157.86876288530137913
15.009497869018190385759 767.66484293325856925 15.009497869018190385759 158.56234287152278739
16.009497869018190385759 776.53696505066716327 16.009497869018190385759 159.21701816028806320
17.009497869018204596614 784.83330814956241284 17.009497869018204596614 159.82384359378318095
18.009497869018190385759 792.61809869030980735 18.009497869018190385759 160.38970066923010904
19.009497869018204596614 799.94462853726781759 19.009497869018204596614 160.89773054833969468
20.009497869018190385759 806.85860444360037036 20.009497869018190385759 161.37755130009736604
21.009497869018190385759 813.39895301215926793 21.009497869018190385759 161.83200337875226182
22.009497869018204596614 819.59899437657463750 22.009497869018204596614 162.27005710237889957
23.009497869018190385759 825.49077757545239820 23.009497869018190385759 162.70099555720551621
24.009497869018204596614 831.10121024376962851 24.009497869018204596614 163.10991663594325018
25.009497869018204596614 836.45333939328816086 25.009497869018204596614 163.50448696774191149
26.009497869018190385759 841.56737182051915624 26.009497869018190385759 163.87066023769330059
27.009497869018204596614 846.46173741935604085 27.009497869018204596614 164.20726991215676094
28.009497869018190385759 851.15112284006261234 28.009497869018190385759 164.51981275241971048
29.009497869018190385759 855.64758823473925986 29.009497869018190385759 164.81659727755155131
30.009497869018190385759 859.96403878839066692 30.009497869018190385759 165.09638245402393864
31.009497869018218807469 864.11318483096647469 31.009497869018218807469 165.35354941320929356
32.009497869018190385759 868.10602954958699229 32.009497869018190385759 165.59494347055306207
33.009497869018190385759 871.95252102432493757 33.009497869018190385759 165.84160677046418186
34.009497869018218807469 875.66202936696322467 34.009497869018218807469 166.07324020605085479
35.009497869018190385759 879.24249546927330812 35.009497869018190385759 166.29730359950710294
36.009497869018190385759 882.70129320605747125 36.009497869018190385759 166.51626814026329271
37.009497869018190385759 886.04526964471813244 37.009497869018190385759 166.72742468184185327
38.009497869018218807469 889.28047584328987796 38.009497869018218807469 166.93078326730355343
39.009497869018190385759 892.41258702942548098 39.009497869018190385759 167.12291885967758276
40.009497869018190385759 895.44687146987155302 40.009497869018190385759 167.30280696420155095
41.009497869018218807469 898.38828071294528854 41.009497869018218807469 167.48170265116451105
42.009497869018190385759 901.24135532991624586 42.009497869018190385759 167.65098821547346120
43.009497869018190385759 904.01030940269174607 43.009497869018190385759 167.81356502351411564
44.009497869018218807469 906.69926508959099465 44.009497869018218807469 167.96804500258389226
46.009497869018190385759 911.85206245197605313 46.009497869018190385759 168.26078480380533620
48.009497869018218807469 916.72684627165097027 48.009497869018218807469 168.53511731878955970
50.009497869018190385759 921.34711266480007907 50.009497869018190385759 168.79218842545259349
52.009497869018190385759 925.73379644848330372 52.009497869018190385759 169.03415543665181531
54.009497869018218807469 929.90549090478623384 54.009497869018218807469 169.26263705248362612
56.009497869018190385759 933.87884870794948711 56.009497869018190385759 169.47682629112128438
58.009497869018218807469 937.66860502816109602 58.009497869018218807469 169.67471626481500380
60.009497869018190385759 941.28803397897536342 60.009497869018190385759 169.86492305656881285
62.009497869018190385759 944.74909082683007000 62.009497869018190385759 170.04490623592133147
64.009497869018218807469 948.06257297380102500 64.009497869018218807469 170.21480332111173084
66.009497869018190385759 951.23823698188948583 66.009497869018190385759 170.37091680131737803
68.009497869018190385759 954.28491214891789696 68.009497869018190385759 170.51730674008405231
70.009497869018190385759 957.21076979938789009 70.009497869018190385759 170.65903957200035279
72.009497869018190385759 960.02326533214693427 72.009497869018190385759 170.79282724803130122
74.009497869018218807469 962.72921550184628359 74.009497869018218807469 170.92072912468765367
76.009497869018190385759 965.33474553591338463 76.009497869018190385759 171.04231166753675097
78.009497869018190385759 967.84546901859016543 78.009497869018190385759 171.15549239267571124
80.009497869018218807469 970.26666873311626205 80.009497869018218807469 171.26771183514355812
82.009497869018190385759 972.60342413423541075 82.009497869018190385759 171.37828117344776047
84.009497869018218807469 974.86035581470673606 84.009497869018218807469 171.48125046703083285
86.009497869018190385759 977.04172337876627807 86.009497869018190385759 171.58060119007768662
88.009497869018190385759 979.15135770691995276 88.009497869018190385759 171.67664436432934849
91.009497869018218807469 982.18908327755423215 91.009497869018218807469 171.81701681010895300
94.009497869018218807469 985.08463977596602490 94.009497869018218807469 171.95784167486414162
97.009497869018218807469 987.84847100793285790 97.009497869018218807469 172.11062211085368290
99.504748934509137825444 990.05399290450088756 99.504748934509137825444 172.16682992038266775
nan nan nan nan

