Time Pressure difference Time.1 Pressure.1 difference.1
(hr) (psi) (hr) (psi)
0.000200000000020850166 0.89040032625494692 0.000200000000020850166 0.71084844113288270
0.000399999999999067768 1.77829292327603317 0.000399999999999067768 1.85107544451732320
0.000600000000019917934 2.66405537686544314 0.000600000000019917934 2.70382135776373111
0.000799999999998135536 3.54787629942010563 0.000799999999998135536 3.56930872699800839
0.001007140329434719206 4.46134077742558777 0.001007140329434719206 4.47510463668210789
0.001267914553977789183 5.60871666037349126 0.001267914553977789183 5.61968722753757000
0.001596209851982166583 7.04926842178060742 0.001596209851982166583 7.05359111766729896
0.002009509145224797066 8.85696174875689834 0.002009509145224797066 8.84824949322686116
0.002529822128153114136 11.12395315698605103 0.002529822128153114136 11.09188283209305403
0.003184857364431081805 13.96482883853382617 0.003184857364431081805 13.89301925590483933
0.004009497869034817086 17.52171412509148496 0.004009497869034817086 17.38454924123966094
0.005047658755856332391 21.97037752898525298 0.005047658755856332391 21.72827413238279703
0.006354625877790454069 27.52743167879275177 0.006354625877790454069 27.11985891536775028
0.008000000000009777068 34.45871328611850970 0.008000000000009777068 33.79396976809576358
0.010071403294361402914 43.08884250701684238 0.010071403294361402914 42.02912976552940449
0.012679145539692626699 53.81182767022234970 0.012679145539692626699 52.15161676345094577
0.015962098519750611558 67.10240258833775329 0.015962098519750611558 64.53749939831779159
0.020095091452091651263 83.52754347963625037 0.020095091452091651263 79.61091486921182536
0.025298221281360611101 103.75697590254880254 0.025298221281360611101 97.83680647132956665
0.031848573644296607199 128.57129339352076158 0.031848573644296607199 119.70547107386313712
0.040094978690191851456 158.86527216975250099 0.040094978690191851456 145.70494258203689242
0.050476587558435426217 195.64316707605203760 0.050476587558435426217 176.27800405579469611
0.063546258777947173257 240.00208988947628086 0.063546258777947173257 211.76031670010200969
0.080000000000012505552 293.09863429331062434 0.080000000000012505552 252.29820521694972513
0.100714032943542974863 356.09417845106014511 0.100714032943542974863 297.74356549564305396
0.126791455396883634421 430.07287934787893846 0.126791455396883634421 347.54627115163924600
0.159620985197506115583 515.93720058324595357 0.159620985197506115583 400.64017947889084326
0.200950914520774404082 614.27326460621998194 0.200950914520774404082 455.38799907933577060
0.252982212813464002465 725.22097179936167777 0.252982212813464002465 509.59072384727426197
0.318485736442809752589 848.34392518746949463 0.318485736442809752589 560.62171503044271503
0.400949786901833249431 982.56176223671127445 0.400949786901833249431 605.74326888437997241
0.504765875584169521062 1126.16646772593617243 0.504765875584169521062 642.49710484284912582
0.635462587779443310865 1276.93512345853559964 0.635462587779443310865 669.18504863836892582
0.800000000000011368684 1432.36757581614847368 0.800000000000011368684 685.26403765955569725
1.007140329435344483500 1589.98011792072770731 1.007140329435344483500 691.46427260263988046
1.267914553968907398485 1747.59544005689963342 1.267914553968907398485 689.68637240453870163
1.596209851975117999245 1903.58528207316794578 1.596209851975117999245 682.56284139668775879
2.009509145207687197399 2056.95446413599347579 2.009509145207687197399 672.90118537859711978
2.529822128134725289783 2207.32290019783704338 2.529822128134725289783 663.31079106214281182
3.184857364427983839050 2354.83289248053733900 3.184857364427983839050 655.70781317344074068
4.009497869018204596614 2499.90215426119357289 4.009497869018204596614 651.21421678985745984
5.009497869018190385759 2638.39597676817675165 5.009497869018190385759 650.21984789515772718
6.009497869018190385759 2750.62191334625322270 6.009497869018190385759 651.85496594053756780
7.009497869018204596614 2845.00477218004925817 7.009497869018204596614 654.84051243466888081
8.009497869018190385759 2926.43991553996511357 8.009497869018190385759 658.41983436201451241
9.009497869018204596614 2998.02595064832530625 9.009497869018204596614 662.26355594470055621
10.009497869018190385759 3061.85199081504879359 10.009497869018190385759 666.13819855519716384
11.009497869018190385759 3119.39642898191050335 11.009497869018190385759 669.74862716249083405
12.009497869018204596614 3171.74504946915067194 12.009497869018204596614 673.21907413262772479
13.009497869018190385759 3219.71644961206857261 13.009497869018190385759 676.52564140861682063
14.009497869018204596614 3263.95468606066833672 14.009497869018204596614 679.65989483149837724
15.009497869018190385759 3304.96671335121754964 15.009497869018190385759 682.64590987257997767
16.009497869018190385759 3343.16315877235092557 16.009497869018190385759 685.46443159770603870
17.009497869018204596614 3378.88074833867813140 17.009497869018204596614 688.07694912664874209
18.009497869018190385759 3412.39599114864313378 18.009497869018190385759 690.51308882495857233
19.009497869018204596614 3443.93832044960299754 19.009497869018204596614 692.70026966996044848
20.009497869018190385759 3473.70451390979769712 20.009497869018190385759 694.76600399078051851
21.009497869018190385759 3501.86215915275033694 21.009497869018190385759 696.72252057037121631
22.009497869018204596614 3528.55470671360626511 22.009497869018204596614 698.60843860943850814
23.009497869018190385759 3553.92013478267062965 23.009497869018190385759 700.46372384467588290
24.009497869018204596614 3578.07428667197200411 24.009497869018204596614 702.22421941257493927
25.009497869018204596614 3601.11638485785078956 25.009497869018204596614 703.92293184505763293
26.009497869018190385759 3623.13342406263700468 26.009497869018190385759 705.49938865384422115
27.009497869018204596614 3644.20474905040009617 27.009497869018204596614 706.94856765394399645
28.009497869018190385759 3664.39358909456723268 28.009497869018190385759 708.29413361684316897
29.009497869018190385759 3683.75186581381740325 29.009497869018190385759 709.57185655235048216
30.009497869018190385759 3702.33513888013976612 30.009497869018190385759 710.77639353700283209
31.009497869018218807469 3720.19812907146979342 31.009497869018218807469 711.88355410024246339
32.009497869018190385759 3737.38820753878371761 32.009497869018190385759 712.92280883707985595
33.009497869018190385759 3753.94820296416219207 33.009497869018190385759 713.98474882705863820
34.009497869018218807469 3769.91845574853232392 34.009497869018218807469 714.98198193127120703
35.009497869018190385759 3785.33315318498398483 35.009497869018190385759 715.94662433201460772
36.009497869018190385759 3800.22404143330732040 36.009497869018190385759 716.88931504563140606
37.009497869018190385759 3814.62059863107515412 37.009497869018190385759 717.79839059813048152
38.009497869018218807469 3828.54887591970555150 38.009497869018218807469 718.67389422710596136
39.009497869018190385759 3842.03330640780768590 39.009497869018190385759 719.50108039186500264
40.009497869018190385759 3855.09657114739866302 40.009497869018190385759 720.27553841616088448
41.009497869018218807469 3867.75998764770019989 41.009497869018218807469 721.04572386364793601
42.009497869018190385759 3880.04310407096454583 42.009497869018190385759 721.77453561039169472
43.009497869018190385759 3891.96406297062503654 43.009497869018190385759 722.47446467954671334
44.009497869018218807469 3903.54061114876094507 44.009497869018218807469 723.13953511152590181
46.009497869018190385759 3925.72454196192074960 46.009497869018190385759 724.39984461718609055
48.009497869018218807469 3946.71156306510056311 48.009497869018218807469 725.58090668972852200
50.009497869018190385759 3966.60283042837636458 50.009497869018190385759 726.68765458668747215
52.009497869018190385759 3985.48847306335028406 52.009497869018190385759 727.72937601642877326
54.009497869018218807469 4003.44853915634848818 54.009497869018218807469 728.71303984041151125
56.009497869018190385759 4020.55472214828068900 56.009497869018190385759 729.63517182362249969
58.009497869018218807469 4036.87046020156094528 58.009497869018218807469 730.48713187101088806
60.009497869018190385759 4052.45290130707508069 60.009497869018190385759 731.30601412305941267
62.009497869018190385759 4067.35351552755764715 62.009497869018190385759 732.08088146549266639
64.009497869018218807469 4081.61878806391496255 64.009497869018218807469 732.81232594470600361
66.009497869018190385759 4095.29072307062460823 66.009497869018190385759 733.48442895988841883
68.009497869018190385759 4108.40733262506091705 68.009497869018190385759 734.11466998140599571
70.009497869018190385759 4121.00379608411185473 70.009497869018190385759 734.72486112925457746
72.009497869018190385759 4133.11221058659248229 72.009497869018190385759 735.30084662606236634
74.009497869018218807469 4144.76192376698509179 74.009497869018218807469 735.85149245648653960
76.009497869018190385759 4155.97930608232582017 76.009497869018190385759 736.37493215903373311
78.009497869018190385759 4166.78852525272577623 78.009497869018190385759 736.86220018051551506
80.009497869018218807469 4177.21232482690993493 80.009497869018218807469 737.34532966776669127
82.009497869018190385759 4187.27257297952019144 82.009497869018190385759 737.82135509211241242
84.009497869018218807469 4196.98916238299443648 84.009497869018218807469 738.26466064520900545
86.009497869018190385759 4206.38043157444735698 86.009497869018190385759 738.69238745286452286
88.009497869018190385759 4215.46287334063435992 88.009497869018190385759 739.10587453237360478
91.009497869018218807469 4228.54095290577515698 91.009497869018218807469 739.71020891741682135
94.009497869018218807469 4241.00696321219129459 94.009497869018218807469 740.31649106608176680
97.009497869018218807469 4252.90586715061908762 97.009497869018218807469 740.97424458969931038
99.504748934509137825444 4262.40112607881565054 99.504748934509137825444 741.21623162510138627
nan nan nan nan

