Time Pressure difference Time.1 Pressure.1 difference.1
(hr) (psi) (hr) (psi)
0.000200000000020850166 0.43855538457333204 0.000200000000020850166 0.35011938145350940
0.000399999999999067768 0.87587561892700139 0.000399999999999067768 0.91172372640405475
0.000600000000019917934 1.31214667815760633 0.000600000000019917934 1.33173290755527063
0.000799999999998135536 1.74746146090841026 0.000799999999998135536 1.75801773120797411
0.001007140329434719206 2.19737680082155817 0.001007140329434719206 2.20415601508223169
0.001267914553977789183 2.76250223570634645 0.001267914553977789183 2.76790564938417605
0.001596209851982166583 3.47202773013074717 0.001596209851982166583 3.47415681914956531
0.002009509145224797066 4.36238414491011373 0.002009509145224797066 4.35809303397740955
0.002529822128153114136 5.47896200269462152 0.002529822128153114136 5.46316617103090785
0.003184857364431081805 6.87819927868084058 0.003184857364431081805 6.84283037977402486
0.004009497869034817086 8.63009800191073140 0.004009497869034817086 8.56253917852102653
0.005047658755856332391 10.82123072323154389 0.005047658755856332391 10.70198576669600499
0.006354625877790454069 13.55828724477851921 0.006354625877790454069 13.35754245085277248
0.008000000000009777068 16.97220206629717509 0.008000000000009777068 16.64479107980836048
0.010071403294361402914 21.22286272733665413 0.010071403294361402914 20.70091466063388452
0.012679145539692626699 26.50433303160205156 0.012679145539692626699 25.68661721184897573
0.015962098519750611558 33.05043709574844257 0.015962098519750611558 31.78712656932070502
0.020095091452091651263 41.14043186310441769 0.020095091452091651263 39.21134612961179755
0.025298221281360611101 51.10418216095687427 0.025298221281360611101 48.18827781423696166
0.031848573644296607199 63.32615943262960911 0.031848573644296607199 58.95941112593258993
0.040094978690191851456 78.24707435226615360 0.040094978690191851456 71.76512097324204831
0.050476587558435426217 96.36155990313010022 0.050476587558435426217 86.82349453494366287
0.063546258777947173257 118.20998457242860979 0.063546258777947173257 104.29985747915470995
0.080000000000012505552 144.36201390566043301 0.080000000000012505552 124.26628018148268495
0.100714032943542974863 175.38966998335797598 0.100714032943542974863 146.64981584113758117
0.126791455396883634421 211.82694057432843238 0.126791455396883634421 171.17950668662828662
0.159620985197506115583 254.11832267533006302 0.159620985197506115583 197.33023765378206349
0.200950914520774404082 302.55250346276500295 0.200950914520774404082 224.29558163609075905
0.252982212813464002465 357.19838909520797188 0.252982212813464002465 250.99244607403062446
0.318485736442809752589 417.84103777890288711 0.318485736442809752589 276.12711337320314442
0.400949786901833249431 483.94833065390253068 0.400949786901833249431 298.35116228633643232
0.504765875584169521062 554.67900649187902218 0.504765875584169521062 316.45379790767196937
0.635462587779443310865 628.93819513629364337 0.635462587779443310865 329.59860604576380183
0.800000000000011368684 705.49447764078956880 0.800000000000011368684 337.51810810097521198
1.007140329435344483500 783.12453569229865025 1.007140329435344483500 340.57195516249424827
1.267914553968907398485 860.75596301309974478 1.267914553968907398485 339.69627297536976585
1.596209851975117999245 937.58678072260522640 1.596209851975117999245 336.18766815060735098
2.009509145207687197399 1013.12682561922076729 2.009509145207687197399 331.42894205214486192
2.529822128134725289783 1087.18889114221815362 2.529822128134725289783 326.70531500075691156
3.184857364427983839050 1159.84306644563775990 3.184857364427983839050 322.96056469736635108
4.009497869018204596614 1231.29509090476699384 4.009497869018204596614 320.74730080694467915
5.009497869018190385759 1299.50846616940043532 5.009497869018190385759 320.25753702298817416
6.009497869018190385759 1354.78392746905001331 6.009497869018190385759 321.06289367220506392
7.009497869018204596614 1401.27100719315876631 7.009497869018204596614 322.53338672155337008
8.009497869018190385759 1441.38085392266953022 8.009497869018190385759 324.29633632755940198
9.009497869018204596614 1476.63964733424995757 9.009497869018204596614 326.18951262947933856
10.009497869018190385759 1508.07635368502405981 10.009497869018190385759 328.09791869136580544
11.009497869018190385759 1536.41913666273217132 11.009497869018190385759 329.87618949794324408
12.009497869018204596614 1562.20278555943241372 12.009497869018204596614 331.58551412502561107
13.009497869018190385759 1585.83049010743684448 13.009497869018190385759 333.21412188782619523
14.009497869018204596614 1607.61947223883657898 14.009497869018204596614 334.75785864834995209
15.009497869018190385759 1627.81942597895772451 15.009497869018190385759 336.22858247455434366
16.009497869018190385759 1646.63260058936657515 16.009497869018190385759 337.61680959289998327
17.009497869018204596614 1664.22484619666238359 17.009497869018204596614 338.90357195790159039
18.009497869018190385759 1680.73235384933173009 18.009497869018190385759 340.10346166005427904
19.009497869018204596614 1696.26812798264018056 19.009497869018204596614 341.18072983744320936
20.009497869018190385759 1710.92908894064635206 20.009497869018190385759 342.19818107008597963
21.009497869018190385759 1724.79777988120531518 21.009497869018190385759 343.16183848988430327
22.009497869018204596614 1737.94485554550760753 22.009497869018204596614 344.09072349420108594
23.009497869018190385759 1750.43827534071829177 23.009497869018190385759 345.00452069961647794
24.009497869018204596614 1762.33509642052331401 24.009497869018204596614 345.87163045693989716
25.009497869018204596614 1773.68418955685183391 25.009497869018204596614 346.70830971472980764
26.009497869018190385759 1784.52840289652272077 26.009497869018190385759 347.48477351607243691
27.009497869018204596614 1794.90681669646573937 27.009497869018204596614 348.19854824746494160
28.009497869018190385759 1804.85057373314475626 28.009497869018190385759 348.86128969187797111
29.009497869018190385759 1814.38524734113389059 29.009497869018190385759 349.49061591384429448
30.009497869018190385759 1823.53820273200926749 30.009497869018190385759 350.08389532419539592
31.009497869018218807469 1832.33639193072417584 31.009497869018218807469 350.62921321355224791
32.009497869018190385759 1840.80314699671453127 32.009497869018190385759 351.14108494960646567
33.009497869018190385759 1848.95956265399036056 33.009497869018190385759 351.66413001929754500
34.009497869018218807469 1856.82550805524738280 34.009497869018218807469 352.15530453331263061
35.009497869018190385759 1864.41782171797717638 35.009497869018190385759 352.63042690979818872
36.009497869018190385759 1871.75213981043498279 36.009497869018190385759 353.09473726128118187
37.009497869018190385759 1878.84298141530575776 37.009497869018190385759 353.54249089161646680
38.009497869018218807469 1885.70317769179541756 38.009497869018218807469 353.97370909693285057
39.009497869018190385759 1892.34476285757705227 39.009497869018190385759 354.38112914823193478
40.009497869018190385759 1898.77890817707702809 40.009497869018190385759 354.76257862288525757
41.009497869018218807469 1905.01611331901631274 41.009497869018218807469 355.14192369403554039
42.009497869018190385759 1911.06600648271387399 42.009497869018190385759 355.50089067377501806
43.009497869018190385759 1916.93752355269589316 43.009497869018190385759 355.84563185709021127
44.009497869018218807469 1922.63940549118092349 44.009497869018218807469 356.17320386090074180
46.009497869018190385759 1933.56581917527455516 46.009497869018190385759 356.79395331891248588
48.009497869018218807469 1943.90271016639235313 48.009497869018218807469 357.37567045911998775
50.009497869018190385759 1953.69990155427512946 50.009497869018190385759 357.92078509493558158
52.009497869018190385759 1963.00178524015768744 52.009497869018190385759 358.43387176928575855
54.009497869018218807469 1971.84778794267913327 54.009497869018218807469 358.91836290647137275
56.009497869018190385759 1980.27322135661574976 56.009497869018190385759 359.37254731611261604
58.009497869018218807469 1988.30933114405229389 58.009497869018218807469 359.79216942900535514
60.009497869018190385759 1995.98426482288755324 60.009497869018190385759 360.19549949344713013
62.009497869018190385759 2003.32337331954317960 62.009497869018190385759 360.57715057255609281
64.009497869018218807469 2010.34955232998800057 64.009497869018218807469 360.93741427127315546
66.009497869018190385759 2017.08349046762123180 66.009497869018190385759 361.26845008472116660
68.009497869018190385759 2023.54391009891014619 68.009497869018190385759 361.57886730427458133
70.009497869018190385759 2029.74813836978637482 70.009497869018190385759 361.87940921291641416
72.009497869018190385759 2035.71198431876950963 72.009497869018190385759 362.16310356209044130
74.009497869018218807469 2041.44990275090299292 74.009497869018218807469 362.43431718006058873
76.009497869018190385759 2046.97488210024994260 76.009497869018190385759 362.69213076489717196
78.009497869018190385759 2052.29882587074553157 78.009497869018190385759 362.93212844711956677
80.009497869018218807469 2057.43293610877663014 80.009497869018218807469 363.17008774681045224
82.009497869018190385759 2062.38798370633048762 82.009497869018190385759 363.40454803044343635
84.009497869018218807469 2067.17376654684812820 84.009497869018218807469 363.62289255659550236
86.009497869018190385759 2071.79931704413093030 86.009497869018190385759 363.83356396932140342
88.009497869018190385759 2076.27275851105878246 88.009497869018190385759 364.03722178460196801
91.009497869018218807469 2082.71420068493398503 91.009497869018218807469 364.33487901902617523
94.009497869018218807469 2088.85417591048235408 94.009497869018218807469 364.63349559971192093
97.009497869018218807469 2094.71483008911081924 97.009497869018218807469 364.95746375313547105
99.504748934509137825444 2099.39159941195384818 99.504748934509137825444 365.07665139743795635
nan nan nan nan

