Time Pressure difference Time.1 Pressure.1 difference.1
(hr) (psi) (hr) (psi)
0.000200000000020850166 0.44353896848893809 0.000200000000020850166 0.35409801078820835
0.000399999999999067768 0.88582875096026270 0.000399999999999067768 0.92208422329500983
0.000600000000019917934 1.32705743586394265 0.000600000000019917934 1.34686623605021683
0.000799999999998135536 1.76731897750964206 0.000799999999998135536 1.77799520542624667
0.001007140329434719206 2.22234699173998518 0.001007140329434719206 2.22920324252634838
0.001267914553977789183 2.79389430656664572 0.001267914553977789183 2.79935912267263243
0.001596209851982166583 3.51148259070041435 0.001596209851982166583 3.51363587391262877
0.002009509145224797066 4.41195669201136553 0.002009509145224797066 4.40761681845442599
0.002529822128153114136 5.54122293454342518 0.002529822128153114136 5.52524760479262245
0.003184857364431081805 6.95636063412039540 0.003184857364431081805 6.92058981590782096
0.004009497869034817086 8.72816729738699060 0.004009497869034817086 8.65984076009512904
0.005047658755856332391 10.94419925417735584 0.005047658755856332391 10.82359924131755058
0.006354625877790454069 13.71235869074191172 0.006354625877790454069 13.50933270597609948
0.008000000000009777068 17.16506799886873580 0.008000000000009777068 16.83393643298800058
0.010071403294361402914 21.46403162196547854 0.010071403294361402914 20.93615232723199782
0.012679145539692626699 26.80551863423389136 0.012679145539692626699 25.97851058925635215
0.015962098519750611558 33.42601024456376280 0.015962098519750611558 32.14834391669935343
0.020095091452091651263 41.60793677063969653 0.020095091452091651263 39.65692960835738035
0.025298221281360611101 51.68491150369501241 0.025298221281360611101 48.73587188030783324
0.031848573644296607199 64.04577488072767721 0.031848573644296607199 59.62940443418182923
0.040094978690191851456 79.13624565172372627 0.040094978690191851456 72.58063371157433608
0.050476587558435426217 97.45657762930203205 0.050476587558435426217 87.81012515465893387
0.063546258777947173257 119.55327985166076132 0.063546258777947173257 105.48508313232693467
0.080000000000012505552 146.00249133640656396 0.080000000000012505552 125.67839700172680750
0.100714032943542974863 177.38273441498702709 0.100714032943542974863 148.31629102115053342
0.126791455396883634421 214.23406489903669581 0.126791455396883634421 173.12472835352178890
0.159620985197506115583 257.00603088754974124 0.159620985197506115583 199.57262671802959630
0.200950914520774404082 305.99060009302371554 0.200950914520774404082 226.84439506377358953
0.252982212813464002465 361.25746169856262213 0.252982212813464002465 253.84463296123550435
0.318485736442809752589 422.58923139002678226 0.318485736442809752589 279.26492147971674740
0.400949786901833249431 489.44774350224230375 0.400949786901833249431 301.74151640322662615
0.504765875584169521062 560.98217702019576336 0.504765875584169521062 320.04986379298645716
0.635462587779443310865 636.08522008102420386 0.635462587779443310865 333.34404475082931185
0.800000000000011368684 713.51146034125315509 0.800000000000011368684 341.35354114757723210
1.007140329435344483500 792.02367814334763807 1.007140329435344483500 344.44209101661351724
1.267914553968907398485 870.53728077461221346 1.267914553968907398485 343.55645789554444036
1.596209851975117999245 948.24117595808934311 1.596209851975117999245 340.00798256140978992
2.009509145207687197399 1024.63963045580271682 2.009509145207687197399 335.19518003001007855
2.529822128134725289783 1099.54331035974337283 2.529822128134725289783 330.41787539849275390
3.184857364427983839050 1173.02310129161105579 3.184857364427983839050 326.63057111438183711
4.009497869018204596614 1245.28708057413928145 4.009497869018204596614 324.39215649793266039
5.009497869018190385759 1314.27560783041622017 5.009497869018190385759 323.89682721643117702
6.009497869018190385759 1370.17919937210740500 6.009497869018190385759 324.71133564575285391
7.009497869018204596614 1417.19454136580839076 7.009497869018204596614 326.19853884338920125
8.009497869018190385759 1457.76018180815435699 8.009497869018190385759 327.98152196764527844
9.009497869018204596614 1493.41964332668453608 9.009497869018204596614 329.89621163663258585
10.009497869018190385759 1525.21358497689948308 10.009497869018190385759 331.82630413104044464
11.009497869018190385759 1553.87844503389942474 11.009497869018190385759 333.62478256041987379
12.009497869018204596614 1579.95508994078954856 12.009497869018204596614 335.35353133099181377
13.009497869018190385759 1603.85129113138486900 13.009497869018190385759 337.00064600018788497
14.009497869018204596614 1625.88787533245977102 14.009497869018204596614 338.56192522389937949
15.009497869018190385759 1646.31737400144606909 15.009497869018190385759 340.04936182085606333
16.009497869018190385759 1665.34433468697307035 16.009497869018190385759 341.45336424736478875
17.009497869018204596614 1683.13649217616989517 17.009497869018204596614 342.75474891196870431
18.009497869018190385759 1699.83158514307410769 18.009497869018190385759 343.96827372437303438
19.009497869018204596614 1715.54390216426099869 19.009497869018204596614 345.05778358559592789
20.009497869018190385759 1730.37146495133583812 20.009497869018190385759 346.08679676406421777
21.009497869018190385759 1744.39775465258253462 21.009497869018190385759 347.06140483636028193
22.009497869018204596614 1757.69422890397913761 22.009497869018204596614 348.00084535208969783
23.009497869018190385759 1770.32961937868094537 23.009497869018190385759 348.92502661665758978
24.009497869018204596614 1782.36163160712021636 24.009497869018204596614 349.80198989395057652
25.009497869018204596614 1793.83969171090689088 25.009497869018204596614 350.64817687057905005
26.009497869018190385759 1804.80713474761955695 26.009497869018190385759 351.43346412420970637
27.009497869018204596614 1815.30348506801647090 27.009497869018204596614 352.15534993209519143
28.009497869018190385759 1825.36023934374884448 28.009497869018190385759 352.82562252928568114
29.009497869018190385759 1835.00326151546505571 29.009497869018190385759 353.46210018559247601
30.009497869018190385759 1844.26022776305467232 30.009497869018190385759 354.06212140742485417
31.009497869018218807469 1853.15839638448210280 31.009497869018218807469 354.61363609097895733
32.009497869018190385759 1861.72136457622264061 32.009497869018190385759 355.13132455130653398
33.009497869018190385759 1869.97046677505841217 33.009497869018190385759 355.66031331497134715
34.009497869018218807469 1877.92579791951152401 34.009497869018218807469 356.15706935755486029
35.009497869018190385759 1885.60438787386328841 35.009497869018190385759 356.63759085195499665
36.009497869018190385759 1893.02205049009899085 36.009497869018190385759 357.10717745743210116
37.009497869018190385759 1900.19346984047956539 37.009497869018190385759 357.56001919720301885
38.009497869018218807469 1907.13162289283854989 38.009497869018218807469 357.99613760939797658
39.009497869018190385759 1913.84868061732231581 39.009497869018190385759 358.40818743400734547
40.009497869018190385759 1920.35594122454381250 40.009497869018190385759 358.79397156178163186
41.009497869018218807469 1926.66402369764159630 41.009497869018218807469 359.17762737237688953
42.009497869018190385759 1932.78266564729005950 42.009497869018190385759 359.54067352234062582
43.009497869018190385759 1938.72090450215841884 43.009497869018190385759 359.88933221910252769
44.009497869018218807469 1944.48758055358075580 44.009497869018218807469 360.22062663204735600
46.009497869018190385759 1955.53815802953909042 46.009497869018190385759 360.84843006117290543
48.009497869018218807469 1965.99251369101079945 48.009497869018218807469 361.43675762342820690
50.009497869018190385759 1975.90103679921003277 50.009497869018190385759 361.98806674374174008
52.009497869018190385759 1985.30862370879572154 52.009497869018190385759 362.50698394848222961
54.009497869018218807469 1994.25514916930069376 54.009497869018218807469 362.99698066677217412
56.009497869018190385759 2002.77632614475919581 56.009497869018190385759 363.45632626288664824
58.009497869018218807469 2010.90375536159854164 58.009497869018218807469 363.88071680888037918
60.009497869018190385759 2018.66590419587487304 60.009497869018190385759 364.28863016950907650
62.009497869018190385759 2026.08841165271974205 62.009497869018190385759 364.67461819269874468
64.009497869018218807469 2033.19443360646505425 64.009497869018218807469 365.03897579708302601
66.009497869018190385759 2040.00489376838959288 66.009497869018190385759 365.37377338113844871
68.009497869018190385759 2046.53872725912538044 68.009497869018190385759 365.68771806909592215
70.009497869018190385759 2052.81345812398876660 70.009497869018190385759 365.99167522669955588
72.009497869018190385759 2058.84507504966495617 72.009497869018190385759 366.27859337529605455
74.009497869018218807469 2064.64819710034498712 74.009497869018218807469 366.55288896619759953
76.009497869018190385759 2070.23596030593489559 76.009497869018190385759 366.81363225086192870
78.009497869018190385759 2075.62040343745820792 78.009497869018190385759 367.05635717947319563
80.009497869018218807469 2080.81285583728549682 80.009497869018218807469 367.29702056211510808
82.009497869018190385759 2085.82421079390269369 82.009497869018190385759 367.53414516715304217
84.009497869018218807469 2090.66437753033505942 84.009497869018218807469 367.75497088110228106
86.009497869018190385759 2095.34249110145083250 86.009497869018190385759 367.96803628715457535
88.009497869018190385759 2099.86676713050292165 88.009497869018190385759 368.17400839579062222
91.009497869018218807469 2106.38140751089940750 91.009497869018218807469 368.47504809878785181
94.009497869018218807469 2112.59115518219186924 94.009497869018218807469 368.77705804970861436
97.009497869018218807469 2118.51840770375974898 97.009497869018218807469 369.10470765942113758
99.504748934509137825444 2123.24832213254421731 99.504748934509137825444 369.22524970877248052
nan nan nan nan

