Time Pressure difference Time.1 Pressure.1 difference.1
(hr) (psi) (hr) (psi)
0.000200000000020850166 0.33223892770706970 0.000200000000020850166 0.26524195564659797
0.000399999999999067768 0.66354213555075869 0.000399999999999067768 0.69069979273034443
0.000600000000019917934 0.99405051375576237 0.000600000000019917934 1.00888856632975044
0.000799999999998135536 1.32383444008212914 0.000799999999998135536 1.33183161455149546
0.001007140329434719206 1.66467939456178660 0.001007140329434719206 1.66981516294108490
0.001267914553977789183 2.09280472401995921 0.001267914553977789183 2.09689821923043640
0.001596209851982166583 2.63032403797783854 0.001596209851982166583 2.63193698420421640
0.002009509145224797066 3.30483647341675324 0.002009509145224797066 3.30158563180106768
0.002529822128153114136 4.15072878992016747 0.002529822128153114136 4.13876225078099047
0.003184857364431081805 5.21075702930366713 0.003184857364431081805 5.18396240891971605
0.004009497869034817086 6.53795303175055409 0.004009497869034817086 6.48677210494017142
0.005047658755856332391 8.19790206305419922 0.005047658755856332391 8.10756497476970139
0.006354625877790454069 10.27142973089281774 0.006354625877790454069 10.11935034155513158
0.008000000000009777068 12.85772883810392031 0.008000000000009777068 12.60969021197603013
0.010071403294361402914 16.07792630858837413 0.010071403294361402914 15.68251110654082403
0.012679145539692626699 20.07904017545610031 0.012679145539692626699 19.45955849382498215
0.015962098519750611558 25.03820992102155074 0.015962098519750611558 24.08115649190962415
0.020095091452091651263 31.16699383568516524 0.020095091452091651263 29.70556524970590573
0.025298221281360611101 38.71528951587641387 0.025298221281360611101 36.50627107139163030
0.031848573644296607199 47.97436320653758912 0.031848573644296607199 44.66622054994893887
0.040094978690191851456 59.27808663050466720 0.040094978690191851456 54.36751588881973163
0.050476587558435426217 73.00118174479553090 0.050476587558435426217 65.77537464768458619
0.063546258777947173257 89.55301861547623332 0.063546258777947173257 79.01504354481417636
0.080000000000012505552 109.36516204974276434 0.080000000000012505552 94.14112134960809897
0.100714032943542974863 132.87096210860451606 0.100714032943542974863 111.09834533419514457
0.126791455396883634421 160.47495498055184271 0.126791455396883634421 129.68144445956690447
0.159620985197506115583 192.51388081464398283 0.159620985197506115583 149.49260428316821958
0.200950914520774404082 229.20644201724621780 0.200950914520774404082 169.92089517885662531
0.252982212813464002465 270.60484022364244083 0.252982212813464002465 190.14579248032620740
0.318485736442809752589 316.54624074159312386 0.318485736442809752589 209.18720710091145065
0.400949786901833249431 366.62752322265345128 0.400949786901833249431 226.02360779267908697
0.504765875584169521062 420.21136855445382707 0.504765875584169521062 239.73772568763030222
0.635462587779443310865 476.46832964870731075 0.635462587779443310865 249.69591367103319612
0.800000000000011368684 534.46551336423453904 0.800000000000011368684 255.69553644013271310
1.007140329435344483500 593.27616340325653255 1.007140329435344483500 258.00905694128351797
1.267914553968907398485 652.08785076749984455 1.267914553968907398485 257.34566134497708845
1.596209851975117999245 710.29301569894323620 1.596209851975117999245 254.68762738682380586
2.009509145207687197399 767.52032243880353235 2.009509145207687197399 251.08253185768549542
2.529822128134725289783 823.62794783501374241 2.529822128134725289783 247.50402651572491664
3.184857364427983839050 878.66898973154377472 3.184857364427983839050 244.66709446770175873
4.009497869018204596614 932.79931129149019853 4.009497869018204596614 242.99037939920052054
5.009497869018190385759 984.47611073439429674 5.009497869018190385759 242.61934622953646112
6.009497869018190385759 1026.35146020382558163 6.009497869018190385759 243.22946490318568635
7.009497869018204596614 1061.56894484330200612 7.009497869018204596614 244.34347478905559115
8.009497869018190385759 1091.95519236565860410 8.009497869018190385759 245.67904267239350702
9.009497869018204596614 1118.66639949564387280 9.009497869018204596614 247.11326714354498790
10.009497869018190385759 1142.48208612501844073 10.009497869018190385759 248.55902931164078495
11.009497869018190385759 1163.95389141116061182 11.009497869018190385759 249.90620416510850532
12.009497869018204596614 1183.48695875714565773 12.009497869018204596614 251.20114706441333396
13.009497869018190385759 1201.38673492987641112 13.009497869018190385759 252.43494082411075397
14.009497869018204596614 1217.89353957487628577 14.009497869018204596614 253.60443836996208233
15.009497869018190385759 1233.19653483254387538 15.009497869018190385759 254.71862308678359454
16.009497869018190385759 1247.44893984042937518 16.009497869018190385759 255.77031029765149128
17.009497869018204596614 1260.77639863383501506 17.009497869018204596614 256.74513027113761154
18.009497869018190385759 1273.28208624949365912 18.009497869018190385759 257.65413762125319863
19.009497869018204596614 1285.05161210806090821 19.009497869018204596614 258.47024987685091446
20.009497869018190385759 1296.15840071261118283 20.009497869018190385759 259.24104626521665296
21.009497869018190385759 1306.66498475848879934 21.009497869018190385759 259.97108976506387990
22.009497869018204596614 1316.62489056477852500 22.009497869018204596614 260.67479052590988431
23.009497869018190385759 1326.08960253084728720 23.009497869018190385759 261.36706113607311863
24.009497869018204596614 1335.10234577312394322 24.009497869018204596614 262.02396246737868069
25.009497869018204596614 1343.70014360367576955 25.009497869018204596614 262.65781038994686014
26.009497869018190385759 1351.91545673978998821 26.009497869018190385759 263.24604054247913609
27.009497869018204596614 1359.77789143671634520 27.009497869018204596614 263.78677897535226293
28.009497869018190385759 1367.31104070692799723 28.009497869018190385759 264.28885582718027081
29.009497869018190385759 1374.53427828873782346 29.009497869018190385759 264.76561811654863732
30.009497869018190385759 1381.46833540303714472 30.009497869018190385759 265.21507221529952858
31.009497869018218807469 1388.13363025054854916 31.009497869018218807469 265.62819182844867782
32.009497869018190385759 1394.54783863387456222 32.009497869018190385759 266.01597344667158040
33.009497869018190385759 1400.72694140453813816 33.009497869018190385759 266.41221971158904580
34.009497869018218807469 1406.68599095094486984 34.009497869018218807469 266.78432161614597362
35.009497869018190385759 1412.43774372574011977 35.009497869018190385759 267.14426281045319911
36.009497869018190385759 1417.99404531093546211 36.009497869018190385759 267.49601307672816120
37.009497869018190385759 1423.36589501159528481 37.009497869018190385759 267.83522037243676550
38.009497869018218807469 1428.56301340287541279 38.009497869018218807469 268.16190083100968877
39.009497869018190385759 1433.59451731634635507 39.009497869018190385759 268.47055238502423435
40.009497869018190385759 1438.46886983111903646 40.009497869018190385759 268.75952925976150709
41.009497869018218807469 1443.19402524167912816 41.009497869018218807469 269.04691188942086910
42.009497869018190385759 1447.77727763841949127 42.009497869018190385759 269.31885657104169240
43.009497869018190385759 1452.22539663083034611 43.009497869018190385759 269.58002413415925957
44.009497869018218807469 1456.54500415998541030 44.009497869018218807469 269.82818474310664669
46.009497869018190385759 1464.82259028429871250 46.009497869018190385759 270.29844948402467253
48.009497869018218807469 1472.65356830787322906 48.009497869018218807469 270.73914428721212744
50.009497869018190385759 1480.07568299566287351 50.009497869018190385759 271.15210992040573501
52.009497869018190385759 1487.12256457587682235 52.009497869018190385759 271.54081194642861874
54.009497869018218807469 1493.82408177475713273 54.009497869018218807469 271.90785068672073521
56.009497869018190385759 1500.20698587622405284 56.009497869018190385759 272.25192978493379314
58.009497869018218807469 1506.29494783640348032 58.009497869018218807469 272.56982532500404659
60.009497869018190385759 1512.10929153249048795 60.009497869018190385759 272.87537840412664991
62.009497869018190385759 1517.66922221177514984 62.009497869018190385759 273.16450800951218980
64.009497869018218807469 1522.99208509847562709 64.009497869018218807469 273.43743505399476135
66.009497869018190385759 1528.09355338456134632 66.009497869018190385759 273.68821976115236794
68.009497869018190385759 1532.98781068099265212 68.009497869018190385759 273.92338432142014426
70.009497869018190385759 1537.68798361347467107 70.009497869018190385759 274.15106758554270527
72.009497869018190385759 1542.20604872634044114 72.009497869018190385759 274.36598754703823033
74.009497869018218807469 1546.55295662947196433 74.009497869018218807469 274.57145240913678208
76.009497869018190385759 1550.73854704564405438 76.009497869018190385759 274.76676573098274048
78.009497869018190385759 1554.77183778086759958 78.009497869018190385759 274.94858215690879888
80.009497869018218807469 1558.66131523392186864 80.009497869018218807469 275.12885435364427167
82.009497869018190385759 1562.41513917146266976 82.009497869018190385759 275.30647578063894798
84.009497869018218807469 1566.04073223246086854 84.009497869018218807469 275.47188830045115537
86.009497869018190385759 1569.54493715464468551 86.009497869018190385759 275.63148785554648157
88.009497869018190385759 1572.93390796292328560 88.009497869018190385759 275.78577407924387899
91.009497869018218807469 1577.81378839767717182 91.009497869018218807469 276.01127198411074914
94.009497869018218807469 1582.46528478066829848 94.009497869018218807469 276.23749666644846457
97.009497869018218807469 1586.90517430993236303 97.009497869018218807469 276.48292708570869536
99.504748934509137825444 1590.44818137269226099 99.504748934509137825444 276.57322075563484987
nan nan nan nan

