Time Pressure difference Time.1 Pressure.1 difference.1
(hr) (psi) (hr) (psi)
0.000200000000020850166 0.79155924526209365 0.000200000000020850166 0.63193895932801980
0.000399999999999067768 1.58088913794968255 0.000399999999999067768 1.64559225618004557
0.000600000000019917934 2.36832534902310377 0.000600000000019917934 2.40367700928063011
0.000799999999998135536 3.15403555349567233 0.000799999999998135536 3.17308882166893813
0.001007140329434719206 3.96609865754345625 0.001007140329434719206 3.97833462570713525
0.001267914553977789183 4.98610725497755336 0.001267914553977789183 4.99586000731651492
0.001596209851982166583 6.26674702048220045 0.001596209851982166583 6.27058986486654479
0.002009509145224797066 7.87377289791541379 0.002009509145224797066 7.86602776776604440
0.002529822128153114136 9.88911134198480113 0.002529822128153114136 9.86060106248570989
0.003184857364431081805 12.41462862231598585 0.003184857364431081805 12.35079043925122555
0.004009497869034817086 15.57667309814569556 0.004009497869034817086 15.45473454001995783
0.005047658755856332391 19.53150166522663156 0.005047658755856332391 19.31627355238881449
0.006354625877790454069 24.47168133385213906 0.006354625877790454069 24.10935218875509989
0.008000000000009777068 30.63353895678259065 0.008000000000009777068 30.04258693003289338
0.010071403294361402914 38.30565943021179720 0.010071403294361402914 37.36358271133350684
0.012679145539692626699 47.83831321802416170 0.012679145539692626699 46.36239811153802037
0.015962098519750611558 59.65353513683383824 0.015962098519750611558 57.37335534197468689
0.020095091452091651263 74.25536281351990908 0.020095091452091651263 70.77350920742431128
0.025298221281360611101 92.23917727157555646 0.025298221281360611101 86.97619082759057108
0.031848573644296607199 114.29892033957581532 0.031848573644296607199 106.41727046025333436
0.040094978690191851456 141.23004139717735939 0.040094978690191851456 129.53060660511300739
0.050476587558435426217 173.92531550697535181 0.050476587558435426217 156.70983009810854014
0.063546258777947173257 213.36006685137209615 0.063546258777947173257 188.25334124551980608
0.080000000000012505552 260.56249858351208104 0.080000000000012505552 224.29122161544131586
0.100714032943542974863 316.56506722375024765 0.100714032943542974863 264.69180775871996047
0.126791455396883634421 382.33158024116477236 0.126791455396883634421 308.96604142491810308
0.159620985197506115583 458.66432104088931965 0.159620985197506115583 356.16612970464831278
0.200950914520774404082 546.08434810608912358 0.200950914520774404082 404.83653276362593942
0.252982212813464002465 644.71603183282809368 0.252982212813464002465 453.02235058437719317
0.318485736442809752589 754.17141856684554568 0.318485736442809752589 498.38852091792148258
0.400949786901833249431 873.49007407797171254 0.400949786901833249431 538.50124556605794623
0.504765875584169521062 1001.15358558098625963 0.504765875584169521062 571.17513145077919035
0.635462587779443310865 1135.18579538804510776 0.635462587779443310865 594.90051432123652830
0.800000000000011368684 1273.36408559028882337 0.800000000000011368684 609.19461556861620011
1.007140329435344483500 1413.48045930825878713 1.007140329435344483500 614.70657816260802520
1.267914553968907398485 1553.59930445356826567 1.267914553968907398485 613.12603815440797916
1.596209851975117999245 1692.27310990273235802 1.596209851975117999245 606.79327224910764471
2.009509145207687197399 1828.61716821044933567 2.009509145207687197399 598.20413215093572035
2.529822128134725289783 1962.29358571692046098 2.529822128134725289783 589.67834317371466568
3.184857364427983839050 2093.42886803540295659 3.184857364427983839050 582.91935256929946263
4.009497869018204596614 2222.39435915197555005 4.009497869018204596614 578.92457891859521624
5.009497869018190385759 2345.51433382469440403 5.009497869018190385759 578.04059239187063213
6.009497869018190385759 2445.28235393561499222 6.009497869018190385759 579.49420013183987521
7.009497869018204596614 2529.18801108916750309 7.009497869018204596614 582.14832868492487705
8.009497869018190385759 2601.58324581118131391 8.009497869018190385759 585.33031916697746055
9.009497869018204596614 2665.22269679837154399 9.009497869018204596614 588.74735896949596281
10.009497869018190385759 2721.96357019285596834 10.009497869018190385759 592.19188733498401689
11.009497869018190385759 2773.12014628709039243 11.009497869018190385759 595.40153142337101144
12.009497869018204596614 2819.65767923889961821 12.009497869018204596614 598.48673288096472334
13.009497869018190385759 2862.30389597043040339 13.009497869018190385759 601.42624651344385711
14.009497869018204596614 2901.63135803714249050 14.009497869018204596614 604.21257441643467700
15.009497869018190385759 2938.09074423853553526 15.009497869018190385759 606.86711950426195017
16.009497869018190385759 2972.04709916982255891 16.009497869018190385759 609.37276428415475493
17.009497869018204596614 3003.79976974511237131 17.009497869018204596614 611.69527287098537727
18.009497869018190385759 3033.59457048941885660 18.009497869018190385759 613.86098288263576706
19.009497869018204596614 3061.63546584745472501 19.009497869018204596614 615.80537033159725979
20.009497869018190385759 3088.09738969779573381 20.009497869018190385759 617.64179272687863431
21.009497869018190385759 3113.12932618709965027 21.009497869018190385759 619.38112136526467566
22.009497869018204596614 3136.85880177058470508 22.009497869018204596614 621.05768842798033802
23.009497869018190385759 3159.40847802974349179 23.009497869018190385759 622.70702315669416294
24.009497869018204596614 3180.88133880446730473 24.009497869018204596614 624.27209057852974183
25.009497869018204596614 3201.36559213575719696 25.009497869018204596614 625.78223325404837851
26.009497869018190385759 3220.93857568254952639 26.009497869018190385759 627.18369159245662559
27.009497869018204596614 3239.67082634797679930 27.009497869018204596614 628.47200090877674938
28.009497869018190385759 3257.61855448425558279 28.009497869018190385759 629.66819900825703371
29.009497869018190385759 3274.82791802291740169 29.009497869018190385759 630.80408516267721097
30.009497869018190385759 3291.34830909773609164 30.009497869018190385759 631.87490955295118056
31.009497869018218807469 3307.22837407193173931 31.009497869018218807469 632.85916703127895744
32.009497869018190385759 3322.51022554520613994 32.009497869018190385759 633.78305673669501630
33.009497869018190385759 3337.23193789631204709 33.009497869018190385759 634.72711346286087064
34.009497869018218807469 3351.42937344062647753 34.009497869018218807469 635.61364625046769561
35.009497869018190385759 3365.13292442657620995 35.009497869018190385759 636.47120614590471632
36.009497869018190385759 3378.37081295330426656 36.009497869018190385759 637.30925115530487801
37.009497869018190385759 3391.16924486512607473 37.009497869018190385759 638.11741253733055146
38.009497869018218807469 3403.55137943235013154 38.009497869018218807469 638.89572872988060226
39.009497869018190385759 3415.53893750619499770 39.009497869018190385759 639.63109105732019088
40.009497869018190385759 3427.15208237264096169 40.009497869018190385759 640.31957846138186596
41.009497869018218807469 3438.40976513830082695 41.009497869018218807469 641.00426757654520316
42.009497869018190385759 3449.32936397353478242 42.009497869018190385759 641.65217578050692282
43.009497869018190385759 3459.92700747295293695 43.009497869018190385759 642.27440749963432154
44.009497869018218807469 3470.21847241116529403 44.009497869018218807469 642.86565015045164273
46.009497869018190385759 3489.93982135234182351 46.009497869018190385759 643.98605589568876439
48.009497869018218807469 3508.59712649350785796 48.009497869018218807469 645.03601126428281987
50.009497869018190385759 3526.28031473716691835 50.009497869018190385759 646.01990188536672122
52.009497869018190385759 3543.06951010202692487 52.009497869018190385759 646.94598446236625477
54.009497869018218807469 3559.03587482835882838 54.009497869018218807469 647.82045426111210418
56.009497869018190385759 3574.24314385010393380 56.009497869018190385759 648.64022271260478192
58.009497869018218807469 3588.74771322023116227 58.009497869018218807469 649.39760883682220083
60.009497869018190385759 3602.60038707615922249 60.009497869018190385759 650.12558904783179514
62.009497869018190385759 3615.84692191955446106 62.009497869018190385759 650.81444033266279803
64.009497869018218807469 3628.52864274711828330 64.009497869018218807469 651.46468901614252900
66.009497869018190385759 3640.68289093871771911 66.009497869018190385759 652.06218358094554333
68.009497869018190385759 3652.34345894746502381 68.009497869018190385759 652.62246314578351303
70.009497869018190385759 3663.54162095910305652 70.009497869018190385759 653.16491852255558115
72.009497869018190385759 3674.30591109050646992 72.009497869018190385759 653.67696533081857524
74.009497869018218807469 3684.66241916971694081 74.009497869018218807469 654.16648536476839126
76.009497869018190385759 3694.63458833624690669 76.009497869018190385759 654.63181935406635148
78.009497869018190385759 3704.24390351291731349 78.009497869018190385759 655.06499698883510518
80.009497869018218807469 3713.51058354481892820 80.009497869018218807469 655.49449549755752287
82.009497869018190385759 3722.45406907600954582 82.009497869018190385759 655.91767854737236121
84.009497869018218807469 3731.09204454383734628 84.009497869018218807469 656.31177387582488336
86.009497869018190385759 3739.44081277094073812 86.009497869018190385759 656.69201981583944416
88.009497869018190385759 3747.51503572166484446 88.009497869018190385759 657.05960674379866759
91.009497869018218807469 3759.14135085746647746 91.009497869018218807469 657.59685550214396699
94.009497869018218807469 3770.22354098994264859 94.009497869018218807469 658.13583580781335058
97.009497869018218807469 3780.80157779341379864 97.009497869018218807469 658.72057378170097763
99.504748934509137825444 3789.24279212043938969 99.504748934509137825444 658.93569845029992393
nan nan nan nan

