Time Pressure difference Time.1 Pressure.1 difference.1
(hr) (psi) (hr) (psi)
0.000200000000020850166 0.75252117125651297 0.000200000000020850166 0.60077302953954448
0.000399999999999067768 1.50292293702246837 0.000399999999999067768 1.56443503053423028
0.000600000000019917934 2.25152441365680156 0.000600000000019917934 2.28513260273688434
0.000799999999998135536 2.99848500678602203 0.000799999999998135536 3.01659860695913729
0.001007140329434719206 3.77049882868244657 0.001007140329434719206 3.78213134406155760
0.001267914553977789183 4.74020269990520760 0.001267914553977789183 4.74947446655693817
0.001596209851982166583 5.95768394601980411 0.001596209851982166583 5.96133726922254947
0.002009509145224797066 7.48545461228894560 0.002009509145224797066 7.47809145602941872
0.002529822128153114136 9.40140070916918091 0.002529822128153114136 9.37429649801894271
0.003184857364431081805 11.80236467137280520 0.003184857364431081805 11.74167485620315787
0.004009497869034817086 14.80846361691500412 0.004009497869034817086 14.69253881768948844
0.005047658755856332391 18.56824817281776419 0.005047658755856332391 18.36363466785337550
0.006354625877790454069 23.26478834047223287 0.006354625877790454069 22.92032852362236994
0.008000000000009777068 29.12275581830537874 0.008000000000009777068 28.56094833012571144
0.010071403294361402914 36.41650308895265908 0.010071403294361402914 35.52088765631496159
0.012679145539692626699 45.47902599740806551 0.012679145539692626699 44.07589998851358359
0.015962098519750611558 56.71154547111380850 0.015962098519750611558 54.54381945417529920
0.020095091452091651263 70.59324103782689974 0.020095091452091651263 67.28310529058386180
0.025298221281360611101 87.69013075346009600 0.025298221281360611101 82.68670397670204864
0.031848573644296607199 108.66193266280764362 0.031848573644296607199 101.16898954563434643
0.040094978690191851456 134.26486621809306143 0.040094978690191851456 123.14242348817670347
0.050476587558435426217 165.34767665196187636 0.050476587558435426217 148.98122357700560769
0.063546258777947173257 202.83758716405361611 0.063546258777947173257 178.96907362900412863
0.080000000000012505552 247.71209204266736492 0.080000000000012505552 213.22963985686232036
0.100714032943542974863 300.95272917598924778 0.100714032943542974863 251.63775218195200978
0.126791455396883634421 363.47577303094988110 0.126791455396883634421 293.72847170091898761
0.159620985197506115583 436.04394004516865380 0.159620985197506115583 338.60074870137606240
0.200950914520774404082 519.15259116906270265 0.200950914520774404082 384.87082758011030137
0.252982212813464002465 612.91996310655008529 0.252982212813464002465 430.68021996793885364
0.318485736442809752589 716.97723527970833857 0.318485736442809752589 473.80902408356445221
0.400949786901833249431 830.41134009930999582 0.400949786901833249431 511.94347165041813241
0.504765875584169521062 951.77874977583780947 0.504765875584169521062 543.00594868248265357
0.635462587779443310865 1079.20076665432202390 0.635462587779443310865 565.56124446489013735
0.800000000000011368684 1210.56438776999129914 0.800000000000011368684 579.15039003690060326
1.007140329435344483500 1343.77051010837612921 1.007140329435344483500 584.39051397200728388
1.267914553968907398485 1476.97898198838720418 1.267914553968907398485 582.88792294637312352
1.596209851975117999245 1608.81368055810662554 1.596209851975117999245 576.86747603115588845
2.009509145207687197399 1738.43353032388995416 2.009509145207687197399 568.70193465765760266
2.529822128134725289783 1865.51730184630605436 2.529822128134725289783 560.59662005811696872
3.184857364427983839050 1990.18526174194676059 3.184857364427983839050 554.17096896934447159
4.009497869018204596614 2112.79044007522543325 4.009497869018204596614 550.37320933918920218
5.009497869018190385759 2229.83839081340329358 5.009497869018190385759 549.53281920990002618
6.009497869018190385759 2324.68605736166546194 6.009497869018190385759 550.91473800571554875
7.009497869018204596614 2404.45366007007896769 7.009497869018204596614 553.43797039721096098
8.009497869018190385759 2473.27851070821679969 8.009497869018190385759 556.46303165297126725
9.009497869018204596614 2533.77939485763317862 9.009497869018204596614 559.71155008012931376
10.009497869018190385759 2587.72192507316640331 10.009497869018190385759 562.98620139086631298
11.009497869018190385759 2636.35556404627914162 11.009497869018190385759 566.03755243397085906
12.009497869018204596614 2680.59796158493463736 12.009497869018204596614 568.97059810089615439
13.009497869018190385759 2721.14095461616989269 13.009497869018190385759 571.76514096661094300
14.009497869018204596614 2758.52886713709494870 14.009497869018204596614 574.41405290796410554
15.009497869018190385759 2793.19015139571183681 15.009497869018190385759 576.93768129156489977
16.009497869018190385759 2825.47184873857258935 16.009497869018190385759 579.31975282418068218
17.009497869018204596614 2855.65854290563675022 17.009497869018204596614 581.52772006412669725
18.009497869018190385759 2883.98392535510356538 18.009497869018190385759 583.58662171213859438
19.009497869018204596614 2910.64190142475763423 19.009497869018204596614 585.43511597106726185
20.009497869018190385759 2935.79877761406396530 20.009497869018190385759 587.18096979071572150
21.009497869018190385759 2959.59619047797741587 21.009497869018190385759 588.83451831786965158
22.009497869018204596614 2982.15537712922287028 22.009497869018204596614 590.42840054118596527
23.009497869018190385759 3003.59294973236910664 23.009497869018190385759 591.99639347320555771
24.009497869018204596614 3024.00681317612543353 24.009497869018204596614 593.48427498861269669
25.009497869018204596614 3043.48082526232519740 25.009497869018204596614 594.91994053322969194
26.009497869018190385759 3062.08850951562408227 26.009497869018190385759 596.25228182871535410
27.009497869018204596614 3079.89692410416273560 27.009497869018204596614 597.47705437917272775
28.009497869018190385759 3096.95950720119162725 28.009497869018190385759 598.61425844856330514
29.009497869018190385759 3113.32014032399092684 29.009497869018190385759 599.69412503398268655
30.009497869018190385759 3129.02577968787909413 30.009497869018190385759 600.71213856765336914
31.009497869018218807469 3144.12267251749244679 31.009497869018218807469 601.64785449143630558
32.009497869018190385759 3158.65085450572632908 32.009497869018190385759 602.52617985671111001
33.009497869018190385759 3172.64652228127897615 33.009497869018190385759 603.42367764674918362
34.009497869018218807469 3186.14376950389032572 34.009497869018218807469 604.26648846057059927
35.009497869018190385759 3199.17148953880177942 35.009497869018190385759 605.08175526567640645
36.009497869018190385759 3211.75651262926930940 36.009497869018190385759 605.87846961878926777
37.009497869018190385759 3223.92375220126314161 37.009497869018190385759 606.64677414356913232
38.009497869018218807469 3235.69522535751275427 38.009497869018218807469 607.38670538223698259
39.009497869018190385759 3247.09158172152410771 39.009497869018190385759 608.08580115207985273
40.009497869018190385759 3258.13199016748421855 40.009497869018190385759 608.74033377335990735
41.009497869018218807469 3268.83446717240303769 41.009497869018218807469 609.39125542953831882
42.009497869018190385759 3279.21553385102015454 42.009497869018190385759 610.00721013340944410
43.009497869018190385759 3289.29052336883023600 43.009497869018190385759 610.59875466387063625
44.009497869018218807469 3299.07443442236717601 44.009497869018218807469 611.16083844313652662
46.009497869018190385759 3317.82316699393686577 46.009497869018190385759 612.22598808131579062
48.009497869018218807469 3335.56033221733287064 48.009497869018218807469 613.22416181053552009
50.009497869018190385759 3352.37142198517631186 50.009497869018190385759 614.15952896971907649
52.009497869018190385759 3368.33260876436133913 52.009497869018190385759 615.03993905866082059
54.009497869018218807469 3383.51154521982471124 54.009497869018218807469 615.87128180542242717
56.009497869018190385759 3397.96882300964807655 56.009497869018190385759 616.65062096287499571
58.009497869018218807469 3411.75805684945362373 58.009497869018218807469 617.37065436113425676
60.009497869018190385759 3424.92754532109120191 60.009497869018190385759 618.06273208534685182
62.009497869018190385759 3437.52078830967093381 62.009497869018190385759 618.71761064154509313
64.009497869018218807469 3449.57707274804715780 64.009497869018218807469 619.33579039729818305
66.009497869018190385759 3461.13189841603161767 66.009497869018190385759 619.90381775901016681
68.009497869018190385759 3472.21739119244875837 68.009497869018190385759 620.43646548801666540
70.009497869018190385759 3482.86328288451977642 70.009497869018190385759 620.95216808125428543
72.009497869018190385759 3493.09670036516126856 72.009497869018190385759 621.43896179404168834
74.009497869018218807469 3502.94244676575408448 74.009497869018218807469 621.90433970669482733
76.009497869018190385759 3512.42280905838379113 76.009497869018190385759 622.34672438067582334
78.009497869018190385759 3521.55821257366505961 78.009497869018190385759 622.75853858539835528
80.009497869018218807469 3530.36787900483295743 80.009497869018218807469 623.16685511100422445
82.009497869018190385759 3538.87029022336264461 82.009497869018190385759 623.56916764314723878
84.009497869018218807469 3547.08225850652388544 84.009497869018218807469 623.94382700052187829
86.009497869018190385759 3555.01928265527021722 86.009497869018190385759 624.30531999281276967
88.009497869018190385759 3562.69530153602136124 88.009497869018190385759 624.65477828948746719
91.009497869018218807469 3573.74823072073922958 91.009497869018218807469 625.16553104401089058
94.009497869018218807469 3584.28387002821364149 94.009497869018218807469 625.67792994950559660
97.009497869018218807469 3594.34021981199703077 97.009497869018218807469 626.23382984913030214
99.504748934509137825444 3602.36513080914801321 99.504748934509137825444 626.43834501151286531
nan nan nan nan

