Time Pressure difference Time.1 Pressure.1 difference.1
(hr) (psi) (hr) (psi)
0.000200000000020850166 0.63291515728196790 0.000200000000020850166 0.50528592550676921
0.000399999999999067768 1.26404776822419529 0.000399999999999067768 1.31578310515130625
0.000600000000019917934 1.89366622870472723 0.000600000000019917934 1.92193271885817429
0.000799999999998135536 2.52190460835645558 0.000799999999998135536 2.53713922572059936
0.001007140329434719206 3.17121424664020335 0.001007140329434719206 3.18099788540276673
0.001267914553977789183 3.98679299925802200 0.001267914553977789183 3.99459110763398195
0.001596209851982166583 5.01076729234778195 0.001596209851982166583 5.01383995490903178
0.002009509145224797066 6.29571348185891466 0.002009509145224797066 6.28952062858103478
0.002529822128153114136 7.90713834479791977 0.002529822128153114136 7.88434208773778700
0.003184857364431081805 9.92649214082348585 0.003184857364431081805 9.87544838899206034
0.004009497869034817086 12.45480052548480643 0.004009497869034817086 12.35730085991102634
0.005047658755856332391 15.61700343011825076 0.005047658755856332391 15.44491127693627952
0.006354625877790454069 19.56707363735081984 0.006354625877790454069 19.27736240066252549
0.008000000000009777068 24.49397343658796800 0.008000000000009777068 24.02145985381433846
0.010071403294361402914 30.62844961786084852 0.010071403294361402914 29.87518365796026742
0.012679145539692626699 38.25057153424386769 0.012679145539692626699 37.07045893073658505
0.015962098519750611558 47.69778989954604498 0.015962098519750611558 45.87460311708783678
0.020095091452091651263 59.37312325698024296 0.020095091452091651263 56.58910180068974682
0.025298221281360611101 73.75262652774458161 0.025298221281360611101 69.54444639100105974
0.031848573644296607199 91.39116190845410870 0.031848573644296607199 85.08915014765273099
0.040094978690191851456 112.92475503111138835 0.040094978690191851456 103.57011776820158389
0.050476587558435426217 139.06725122383548410 0.050476587558435426217 125.30208870383916064
0.063546258777947173257 170.59850046248220679 0.063546258777947173257 150.52365795287101946
0.080000000000012505552 208.34063370475996635 0.080000000000012505552 179.33883617100343599
0.100714032943542974863 253.11918281689162313 0.100714032943542974863 211.64234786164178104
0.126791455396883634421 305.70478923795127457 0.126791455396883634421 247.04315169547490427
0.159620985197506115583 366.73894295189683135 0.159620985197506115583 284.78341115943544537
0.200950914520774404082 436.63827204285411199 0.200950914520774404082 323.69930531572185828
0.252982212813464002465 515.50222062603882023 0.252982212813464002465 362.22773467502139511
0.318485736442809752589 603.02058861273485491 0.318485736442809752589 398.50162952723633225
0.400949786901833249431 698.42543173915476018 0.400949786901833249431 430.57497284505365087
0.504765875584169521062 800.50265709623442945 0.504765875584169521062 456.70036743493568565
0.635462587779443310865 907.67216798078743523 0.635462587779443310865 475.67071554331829475
0.800000000000011368684 1018.15680295886681961 0.800000000000011368684 487.09999691845291636
1.007140329435344483500 1130.19109128320383206 1.007140329435344483500 491.50725347314511282
1.267914553968907398485 1242.22735571208727379 1.267914553968907398485 490.24348486218144672
1.596209851975117999245 1353.10819490648691499 1.596209851975117999245 485.17993017189934335
2.009509145207687197399 1462.12621424592066433 2.009509145207687197399 478.31222318889086864
2.529822128134725289783 1569.01124062570124806 2.529822128134725289783 471.49517051245601351
3.184857364427983839050 1673.86442543859106991 3.184857364427983839050 466.09081496097184072
4.009497869018204596614 1776.98268801028893904 4.009497869018204596614 462.89667275547702729
5.009497869018190385759 1875.42699094902104662 5.009497869018190385759 462.18985456726699113
6.009497869018190385759 1955.19953168828806156 6.009497869018190385759 463.35213064056870280
7.009497869018204596614 2022.28883992649048196 7.009497869018204596614 465.47431947315084244
8.009497869018190385759 2080.17464145657959307 8.009497869018190385759 468.01857629090960700
9.009497869018204596614 2131.05949103920147536 9.009497869018204596614 470.75077390845319769
10.009497869018190385759 2176.42837406815942813 10.009497869018190385759 473.50495083867565427
11.009497869018190385759 2217.33216313826096666 11.009497869018190385759 476.07131893453174598
12.009497869018204596614 2254.54265643236249161 12.009497869018204596614 478.53818515770745989
13.009497869018190385759 2288.64173004141412093 13.009497869018190385759 480.88856226993101473
14.009497869018204596614 2320.08719289013924936 14.009497869018204596614 483.11645509477779115
15.009497869018190385759 2349.23939885599565969 15.009497869018190385759 485.23897698032271819
16.009497869018190385759 2376.39023039601806886 16.009497869018190385759 487.24244111702608961
17.009497869018204596614 2401.77903939745601747 17.009497869018204596614 489.09947316651715710
18.009497869018190385759 2425.60237430528559344 18.009497869018190385759 490.83113216848738602
19.009497869018204596614 2448.02332106585618021 19.009497869018204596614 492.38582601540093719
20.009497869018190385759 2469.18175335752403043 20.009497869018190385759 493.85419313523766505
21.009497869018190385759 2489.19679596492142082 21.009497869018190385759 495.24492600244661844
22.009497869018204596614 2508.17041652590296508 22.009497869018204596614 496.58547595185831369
23.009497869018190385759 2526.20069282126405597 23.009497869018190385759 497.90425146421927138
24.009497869018204596614 2543.36996869780068664 24.009497869018204596614 499.15564850035644895
25.009497869018204596614 2559.74877356500246606 25.009497869018204596614 500.36312879284872679
26.009497869018190385759 2575.39894508930001393 26.009497869018190385759 501.48370723342276278
27.009497869018204596614 2590.37688318694472400 27.009497869018204596614 502.51381394804599267
28.009497869018190385759 2604.72753254669760281 28.009497869018190385759 503.47027035077843493
29.009497869018190385759 2618.48780014004569239 29.009497869018190385759 504.37850251202524987
30.009497869018190385759 2631.69717894278619497 30.009497869018190385759 505.23471257014563207
31.009497869018218807469 2644.39456562729492362 31.009497869018218807469 506.02170543319476792
32.009497869018190385759 2656.61363259753125021 32.009497869018190385759 506.76042941590930013
33.009497869018190385759 2668.38482337564482805 33.009497869018190385759 507.51527855057719307
34.009497869018218807469 2679.73681276155002706 34.009497869018218807469 508.22413267875799647
35.009497869018190385759 2690.69390179753554548 35.009497869018190385759 508.90982065391330025
36.009497869018190385759 2701.27865631733220653 36.009497869018190385759 509.57990491116714793
37.009497869018190385759 2711.51202999708903008 37.009497869018190385759 510.22609480949199678
38.009497869018218807469 2721.41254053247757838 38.009497869018218807469 510.84842108307350372
39.009497869018190385759 2730.99755548763960178 39.009497869018190385759 511.43640229347113291
40.009497869018190385759 2740.28319702828184745 40.009497869018190385759 511.98690323984567385
41.009497869018218807469 2749.28461808539896083 41.009497869018218807469 512.53436714934673546
42.009497869018190385759 2758.01571390118897398 42.009497869018190385759 513.05242176783440300
43.009497869018190385759 2766.48938058173143872 43.009497869018190385759 513.54994597557333691
44.009497869018218807469 2774.71823292477210998 44.009497869018218807469 514.02269193561812699
46.009497869018190385759 2790.48703449158938383 46.009497869018190385759 514.91854626706685849
48.009497869018218807469 2805.40504762649834447 48.009497869018218807469 515.75806986713905644
50.009497869018190385759 2819.54417610673772288 50.009497869018190385759 516.54476939837297778
52.009497869018190385759 2832.96848551704533747 52.009497869018190385759 517.28524675794653831
54.009497869018218807469 2845.73487578091226169 54.009497869018218807469 517.98445555820296704
56.009497869018190385759 2857.89430809420673540 56.009497869018190385759 518.63992624029890521
58.009497869018218807469 2869.49187562834822529 58.009497869018218807469 519.24551724413277043
60.009497869018190385759 2880.56820036939461716 60.009497869018190385759 519.82759585986127604
62.009497869018190385759 2891.15986831343161612 62.009497869018190385759 520.37838775812065251
64.009497869018218807469 2901.29992211259605028 64.009497869018218807469 520.89831377786003941
66.009497869018190385759 2911.01821919758958757 66.009497869018190385759 521.37605864499528252
68.009497869018190385759 2920.34177934729086701 68.009497869018190385759 521.82404713230539528
70.009497869018190385759 2929.29560878366874022 70.009497869018190385759 522.25778375045888424
72.009497869018190385759 2937.90252282367873704 72.009497869018190385759 522.66720627710776625
74.009497869018218807469 2946.18338237914440469 74.009497869018218807469 523.05861683940554485
76.009497869018190385759 2954.15693212195174056 76.009497869018190385759 523.43068871752200266
78.009497869018190385759 2961.84035097255264191 78.009497869018190385759 523.77704900891126272
80.009497869018218807469 2969.24980552062106653 80.009497869018218807469 524.12046754369237078
82.009497869018190385759 2976.40084012163606531 82.009497869018190385759 524.45883636211726753
84.009497869018218807469 2983.30759490283753621 84.009497869018218807469 524.77394721235953057
86.009497869018190385759 2989.98310527959802130 86.009497869018190385759 525.07798436481607496
88.009497869018190385759 2996.43909466936929675 88.009497869018190385759 525.37189962095965257
91.009497869018218807469 3005.73526689757500208 91.009497869018218807469 525.80147312973099361
94.009497869018218807469 3014.59636750717299947 94.009497869018218807469 526.23243114958427213
97.009497869018218807469 3023.05435706042089805 97.009497869018218807469 526.69997609827510132
99.504748934509137825444 3029.80378551497915396 99.504748934509137825444 526.87198553948428525
nan nan nan nan

