Time Pressure difference Time.1 Pressure.1 difference.1
(hr) (psi) (hr) (psi)
0.000200000000020850166 0.21429410837106000 0.000200000000020850166 0.17108106139205573
0.000399999999999067768 0.42798467743023927 0.000399999999999067768 0.44550136631107218
0.000600000000019917934 0.64116258137246673 0.000600000000019917934 0.65073312528268901
0.000799999999998135536 0.85387321385297310 0.000799999999998135536 0.85903139138571460
0.001007140329434719206 1.07371820949235230 0.001007140329434719206 1.07703078009699982
0.001267914553977789183 1.34985904699287373 0.001267914553977789183 1.35249935140363164
0.001596209851982166583 1.69655900449570596 0.001596209851982166583 1.69759935481171942
0.002009509145224797066 2.13161952535380550 0.002009509145224797066 2.12952273251168878
0.002529822128153114136 2.67722006949850844 0.002529822128153114136 2.66950165175373888
0.003184857364431081805 3.36093828390086502 0.003184857364431081805 3.34365575375321722
0.004009497869034817086 4.21697970547910739 0.004009497869034817086 4.18396800768640986
0.005047658755856332391 5.28764683066995911 0.005047658755856332391 5.22937940872645690
0.006354625877790454069 6.62507217642586710 0.006354625877790454069 6.52698097030305924
0.008000000000009777068 8.29323510057702862 0.008000000000009777068 8.13325018672453837
0.010071403294361402914 10.37026246903950089 0.010071403294361402914 10.11521966371883074
0.012679145539692626699 12.95098091316918421 0.012679145539692626699 12.55141522851711322
0.015962098519750611558 16.14964539905889751 0.015962098519750611558 15.53234593728170942
0.020095091452091651263 20.10271102401693000 0.020095091452091651263 19.16008958606030887
0.025298221281360611101 24.97136173774029189 0.025298221281360611101 23.54654484104760215
0.031848573644296607199 30.94346426821674712 0.031848573644296607199 28.80971225471706276
0.040094978690191851456 38.23436587667551123 0.040094978690191851456 35.06704774828872218
0.050476587558435426217 47.08576222539311118 0.050476587558435426217 42.42511664775656755
0.063546258777947173257 57.76169700698216758 0.063546258777947173257 50.96470308640514446
0.080000000000012505552 70.54052952208407135 0.080000000000012505552 60.72102327049721993
0.100714032943542974863 85.70177056004992266 0.100714032943542974863 71.65843274055586676
0.126791455396883634421 103.50634596245593855 0.126791455396883634421 83.64453167642062681
0.159620985197506115583 124.17145312544536750 0.159620985197506115583 96.42272976264351314
0.200950914520774404082 147.83815510112384572 0.200950914520774404082 109.59897739036252062
0.252982212813464002465 174.54012194424936411 0.252982212813464002465 122.64403614981040391
0.318485736442809752589 204.17232527832751998 0.318485736442809752589 134.92574858008788397
0.400949786901833249431 236.47475247861146386 0.400949786901833249431 145.78522702627802232
0.504765875584169521062 271.03633271762271306 0.504765875584169521062 154.63083306852152532
0.635462587779443310865 307.32207262341620435 0.635462587779443310865 161.05386431781641932
0.800000000000011368684 344.73025611993131179 0.800000000000011368684 164.92362100388561430
1.007140329435344483500 382.66312539510050783 1.007140329435344483500 166.41584172712788359
1.267914553968907398485 420.59666374503740371 1.267914553968907398485 165.98795156751023683
1.596209851975117999245 458.13899512581843965 1.596209851975117999245 164.27351966450135023
2.009509145207687197399 495.05060797302826359 2.009509145207687197399 161.94823304820715748
2.529822128134725289783 531.24002635358385760 2.529822128134725289783 159.64009710264258501
3.184857364427983839050 566.74149837684569775 3.184857364427983839050 157.81027593166763268
4.009497869018204596614 601.65555578301120931 4.009497869018204596614 156.72879471248432992
5.009497869018190385759 634.98709142368431912 5.009497869018190385759 156.48947831805102737
6.009497869018190385759 661.99669183146761497 6.009497869018190385759 156.88300486255474198
7.009497869018204596614 684.71196942392987239 7.009497869018204596614 157.60154123894085387
8.009497869018190385759 704.31109907584982466 8.009497869018190385759 158.46298252369379611
9.009497869018204596614 721.53982767469028659 9.009497869018204596614 159.38805730758650725
10.009497869018190385759 736.90094555063672033 10.009497869018190385759 160.32057390600829194
11.009497869018190385759 750.75025996019860486 11.009497869018190385759 161.18950168649499233
12.009497869018204596614 763.34908839835895833 12.009497869018204596614 162.02473985654663124
13.009497869018190385759 774.89444402977028403 13.009497869018190385759 162.82053683155143631
14.009497869018204596614 785.54133302579521114 14.009497869018204596614 163.57486274862554865
15.009497869018190385759 795.41176496699074505 15.009497869018190385759 164.29351189097542374
16.009497869018190385759 804.60456619707690606 16.009497869018190385759 164.97185014198521458
17.009497869018204596614 813.20077711882368021 17.009497869018204596614 165.60060902488376655
18.009497869018190385759 821.26694563092348744 18.009497869018190385759 166.18691876570832733
19.009497869018204596614 828.85828980969915847 19.009497869018204596614 166.71331117056882931
20.009497869018190385759 836.02216845963403102 20.009497869018190385759 167.21047484106472325
21.009497869018190385759 842.79891516922532446 21.009497869018190385759 167.68135289846620140
22.009497869018204596614 849.22305441428204631 22.009497869018204596614 168.13523988921190266
23.009497869018190385759 855.32779363239649228 23.009497869018190385759 168.58175443276715555
24.009497869018204596614 861.14101302366486834 24.009497869018204596614 169.00545579145926922
25.009497869018204596614 866.68659262437085999 25.009497869018204596614 169.41428770151571825
26.009497869018190385759 871.98546959716441052 26.009497869018190385759 169.79369614989906268
27.009497869018204596614 877.05673997668213815 27.009497869018204596614 170.14247243910219254
28.009497869018190385759 881.91562125596851729 28.009497869018190385759 170.46631200853127552
29.009497869018190385759 886.57460949623589386 29.009497869018190385759 170.77382368517390887
30.009497869018190385759 891.04707633495911523 30.009497869018190385759 171.06372157886821128
31.009497869018218807469 895.34619151160381989 31.009497869018218807469 171.33018372934938611
32.009497869018190385759 899.48335591884915630 32.009497869018190385759 171.58030287310316453
33.009497869018190385759 903.46887720592712867 33.009497869018190385759 171.83588171397494193
34.009497869018218807469 907.31246416335943650 34.009497869018218807469 172.07588744241414247
35.009497869018190385759 911.02234470310247616 35.009497869018190385759 172.30804951274231485
36.009497869018190385759 914.60615922555348334 36.009497869018190385759 172.53492843448967164
37.009497869018190385759 918.07100228247895757 37.009497869018190385759 172.75371714022168135
38.009497869018218807469 921.42314364485457645 38.009497869018218807469 172.96442603600127086
39.009497869018190385759 924.66846366904326260 39.009497869018190385759 173.16350628834061354
40.009497869018190385759 927.81242104107172963 40.009497869018190385759 173.34989637254616923
41.009497869018218807469 930.86014628088310019 41.009497869018218807469 173.53525816867647791
42.009497869018190385759 933.81634407678063781 42.009497869018190385759 173.71066248832190126
43.009497869018190385759 936.68538082688542090 43.009497869018190385759 173.87911556653270395
44.009497869018218807469 939.47152768319062943 44.009497869018218807469 174.03917915930378513
46.009497869018190385759 944.81057073337274232 46.009497869018190385759 174.34249991719590867
48.009497869018218807469 949.86155155857818499 48.009497869018218807469 174.62674806525183158
50.009497869018190385759 954.64881553220254773 50.009497869018190385759 174.89311089866171756
52.009497869018190385759 959.19405415144058225 52.009497869018190385759 175.14382370544646506
54.009497869018218807469 963.51653274471834720 54.009497869018218807469 175.38056369293485659
56.009497869018190385759 967.63350589016454251 56.009497869018190385759 175.60249471128230425
58.009497869018218807469 971.56024135448024026 58.009497869018218807469 175.80753733462759669
60.009497869018190385759 975.31049303845657050 60.009497869018190385759 176.00461907066167555
62.009497869018190385759 978.89664832659502736 62.009497869018190385759 176.19110766613536612
64.009497869018218807469 982.32989488851683291 64.009497869018218807469 176.36714560982662192
66.009497869018190385759 985.62034193304225482 66.009497869018190385759 176.52890174594330119
68.009497869018190385759 988.77713788924029359 68.009497869018190385759 176.68058288731600669
70.009497869018190385759 991.80874943069113669 70.009497869018190385759 176.82743859267506537
72.009497869018190385759 994.72290142848953565 72.009497869018190385759 176.96606196783966425
74.009497869018218807469 997.52665702600950226 74.009497869018218807469 177.09858680389322672
76.009497869018190385759 1000.22636284444035937 76.009497869018190385759 177.22456389648385766
78.009497869018190385759 1002.82783536865952101 78.009497869018190385759 177.34183549120615453
80.009497869018218807469 1005.33654832587944838 80.009497869018218807469 177.45811105810054187
82.009497869018190385759 1007.75776476559326511 82.009497869018190385759 177.57267687851214077
84.009497869018218807469 1010.09627228993701920 84.009497869018218807469 177.67936795379100090
86.009497869018190385759 1012.35648446474567663 86.009497869018190385759 177.78230966682747294
88.009497869018190385759 1014.54237063608559311 88.009497869018190385759 177.88182428111232980
91.009497869018218807469 1017.68989351650191111 91.009497869018218807469 178.02727042975143945
94.009497869018218807469 1020.69010868353109345 94.009497869018218807469 178.17318534985921019
97.009497869018218807469 1023.55383742990625251 97.009497869018218807469 178.33148797028209742
99.504748934509137825444 1025.83907698538655495 99.504748934509137825444 178.38972738738445400
nan nan nan nan

