Time Pressure difference Time.1 Pressure.1 difference.1
(hr) (psi) (hr) (psi)
0.000200000000020850166 0.16944185313060556 0.000200000000020850166 0.13527339737976496
0.000399999999999067768 0.33840648913088689 0.000399999999999067768 0.35225689429247570
0.000600000000019917934 0.50696576201543886 0.000600000000019917934 0.51453316882817279
0.000799999999998135536 0.67515556444188574 0.000799999999998135536 0.67923412342126277
0.001007140329434719206 0.84898649122651104 0.001007140329434719206 0.85160573309995335
0.001267914553977789183 1.06733040925017919 0.001267914553977789183 1.06941809180752267
0.001596209851982166583 1.34146525936869776 0.001596209851982166583 1.34228786194415028
0.002009509145224797066 1.68546660144254390 0.002009509145224797066 1.68380867221854458
0.002529822128153114136 2.11687168285928573 0.002529822128153114136 2.11076874789830526
0.003184857364431081805 2.65748608494487026 0.003184857364431081805 2.64382082854905542
0.004009497869034817086 3.33435604619278259 0.004009497869034817086 3.30825377351948724
0.005047658755856332391 4.18093005215764180 0.005047658755856332391 4.13485813713254746
0.006354625877790454069 5.23842916275533721 0.006354625877790454069 5.16086867419311712
0.008000000000009777068 6.55744170743299915 0.008000000000009777068 6.43094200810777483
0.010071403294361402914 8.19974241738007059 0.010071403294361402914 7.99808066433581910
0.012679145539692626699 10.24031048948261002 0.012679145539692626699 9.92437483185074143
0.015962098519750611558 12.76948705972098885 0.015962098519750611558 12.28138981087390924
0.020095091452091651263 15.89516685619943637 0.020095091452091651263 15.14983827735001221
0.025298221281360611101 19.74479765309697044 0.025298221281360611101 18.61819824640973309
0.031848573644296607199 24.46692523533416974 0.031848573644296607199 22.77977248047395520
0.040094978690191851456 30.23182418155737849 0.040094978690191851456 27.72743310329806121
0.050476587558435426217 37.23060268984571763 0.050476587558435426217 33.54544107031914990
0.063546258777947173257 45.67203949389287487 0.063546258777947173257 40.29767220785523563
0.080000000000012505552 55.77623264536880754 0.080000000000012505552 48.01197188830013118
0.100714032943542974863 67.76419067538830632 0.100714032943542974863 56.66015612043953098
0.126791455396883634421 81.84222704008143978 0.126791455396883634421 66.13753667437910622
0.159620985197506115583 98.18207921546843409 0.159620985197506115583 76.24122818441578886
0.200950914520774404082 116.89528542879558870 0.200950914520774404082 86.65965654121687578
0.252982212813464002465 138.00846851405762550 0.252982212813464002465 96.97435416496635696
0.318485736442809752589 161.43858277821249203 0.318485736442809752589 106.68547562146484609
0.400949786901833249431 186.98003684355325049 0.400949786901833249431 115.27203997426633464
0.504765875584169521062 214.30779796277141713 0.504765875584169521062 122.26624010069143367
0.635462587779443310865 242.99884812084070518 0.635462587779443310865 127.34491597222694281
0.800000000000011368684 272.57741181575960354 0.800000000000011368684 130.40472358446771750
1.007140329435344483500 302.57084333566086798 1.007140329435344483500 131.58461904005460497
1.267914553968907398485 332.56480389142495824 1.267914553968907398485 131.24628728593830829
1.596209851975117999245 362.24943800646110503 1.596209851975117999245 129.89068996728013872
2.009509145207687197399 391.43536444378980832 2.009509145207687197399 128.05209124741958249
2.529822128134725289783 420.05025339585699840 2.529822128134725289783 126.22705352301970549
3.184857364427983839050 448.12118476308734216 3.184857364427983839050 124.78021817852788899
4.009497869018204596614 475.72764875865999556 4.009497869018204596614 123.92509349359227144
5.009497869018190385759 502.08281647454111862 5.009497869018190385759 123.73586657706360370
6.009497869018190385759 523.43924470395120352 6.009497869018190385759 124.04702710062467474
7.009497869018204596614 541.40016187008404813 7.009497869018204596614 124.61517214241833074
8.009497869018190385759 556.89714810648592902 8.009497869018190385759 125.29631176292069483
9.009497869018204596614 570.51986374277839786 9.009497869018204596614 126.02776624320793530
10.009497869018190385759 582.66586392375927517 10.009497869018190385759 126.76510494893678072
11.009497869018190385759 593.61648461969195978 11.009497869018190385759 127.45216412420535335
12.009497869018204596614 603.57834896614428999 12.009497869018204596614 128.11258500285080686
13.009497869018190385759 612.70723481423692647 13.009497869018190385759 128.74181982029648452
14.009497869018204596614 621.12570518318693757 14.009497869018204596614 129.33826356868067364
15.009497869018190385759 628.93023276459734916 15.009497869018190385759 129.90649777425963407
16.009497869018190385759 636.19895931861890404 16.009497869018190385759 130.44285825180227789
17.009497869018204596614 642.99596330325596227 17.009497869018204596614 130.94001643828016768
18.009497869018190385759 649.37386398724174796 18.009497869018190385759 131.40361018683915972
19.009497869018204596614 655.37632217511099952 19.009497869018204596614 131.81982743719396467
20.009497869018190385759 661.04078436343161229 20.009497869018190385759 132.21293359526046629
21.009497869018190385759 666.39914222682932632 21.009497869018190385759 132.58525578018256397
22.009497869018204596614 671.47869418803702501 22.009497869018204596614 132.94414316821405464
23.009497869018190385759 676.30569729073215512 23.009497869018190385759 133.29720117939729107
24.009497869018204596614 680.90219634429308826 24.009497869018204596614 133.63222085836315500
25.009497869018204596614 685.28707323787455152 25.009497869018204596614 133.95548329887287764
26.009497869018190385759 689.47688293729277120 26.009497869018190385759 134.25548067666437646
27.009497869018204596614 693.48672463272532696 27.009497869018204596614 134.53125727742963136
28.009497869018190385759 697.32863076053331497 28.009497869018190385759 134.78731647186194209
29.009497869018190385759 701.01248192725620356 29.009497869018190385759 135.03046523943984880
30.009497869018190385759 704.54885105554899383 30.009497869018190385759 135.25968682980274593
31.009497869018218807469 707.94815142777974870 31.009497869018218807469 135.47037783250883081
32.009497869018190385759 711.21939770327605856 32.009497869018190385759 135.66814645780249293
33.009497869018190385759 714.37074011631443682 33.009497869018190385759 135.87023205291040995
34.009497869018218807469 717.40985538498193819 34.009497869018218807469 136.06000402423444484
35.009497869018190385759 720.34324930012758159 35.009497869018190385759 136.24357403333112870
36.009497869018190385759 723.17696310857718345 36.009497869018190385759 136.42296666913136960
37.009497869018190385759 725.91660645591355205 37.009497869018190385759 136.59596238994271289
38.009497869018218807469 728.56713683546638549 38.009497869018218807469 136.76256942381496629
39.009497869018190385759 731.13320383133657288 39.009497869018190385759 136.91998171636234360
40.009497869018190385759 733.61912361387066994 40.009497869018190385759 137.06735992247840272
41.009497869018218807469 736.02895287325645768 41.009497869018218807469 137.21392506360461994
42.009497869018190385759 738.36641159559394509 42.009497869018190385759 137.35261685123128927
43.009497869018190385759 740.63495228172337193 43.009497869018190385759 137.48581230842120249
44.009497869018218807469 742.83795212159259336 44.009497869018218807469 137.61237421898439948
46.009497869018190385759 747.05952104499237976 46.009497869018190385759 137.85220923685255912
48.009497869018218807469 751.05331983701535137 48.009497869018218807469 138.07696358647820034
50.009497869018190385759 754.83859832778807686 50.009497869018190385759 138.28757605940694475
52.009497869018190385759 758.43250793369713847 52.009497869018190385759 138.48581409267859499
54.009497869018218807469 761.85028170512612178 54.009497869018218807469 138.67300385022755904
56.009497869018190385759 765.10556279687432379 56.009497869018190385759 138.84848419031624189
58.009497869018218807469 768.21042339656571585 58.009497869018218807469 139.01061091575206774
60.009497869018190385759 771.17573868157035122 60.009497869018190385759 139.16644298610458463
62.009497869018190385759 774.01130332800539691 62.009497869018190385759 139.31389908485121509
64.009497869018218807469 776.72596340022266759 64.009497869018218807469 139.45309187753733227
66.009497869018190385759 779.32771222612632300 66.009497869018190385759 139.58099207818773380
68.009497869018190385759 781.82378344730625486 68.009497869018190385759 139.70092600392428039
70.009497869018190385759 784.22087164287199812 70.009497869018190385759 139.81704446862678992
72.009497869018190385759 786.52508485043358633 72.009497869018190385759 139.92665364898948610
74.009497869018218807469 788.74200788103075865 74.009497869018218807469 140.03144072865976000
76.009497869018190385759 790.87665899327839725 76.009497869018190385759 140.13105052280118912
78.009497869018190385759 792.93363726824247806 78.009497869018190385759 140.22377690002346640
80.009497869018218807469 794.91727076930010298 80.009497869018218807469 140.31571572035858253
82.009497869018190385759 796.83172097744591156 82.009497869018190385759 140.40630264812585892
84.009497869018218807469 798.68077343855497929 84.009497869018218807469 140.49066303323007787
86.009497869018190385759 800.46791794886871685 86.009497869018190385759 140.57205880632869821
88.009497869018190385759 802.19629306109084155 88.009497869018190385759 140.65074478041441353
91.009497869018218807469 804.68503208281549632 91.009497869018218807469 140.76574871189649230
94.009497869018218807469 807.05729523814079585 94.009497869018218807469 140.88112329988868510
97.009497869018218807469 809.32163889806554380 97.009497869018218807469 141.00629281371143975
99.504748934509137825444 811.12857250007300536 99.504748934509137825444 141.05234258537376490
nan nan nan nan

