Time Pressure difference Time.1 Pressure.1 difference.1
(hr) (psi) (hr) (psi)
0.000200000000020850166 0.48673002909085711 0.000200000000020850166 0.38857946502226609
0.000399999999999067768 0.97208922858186142 0.000399999999999067768 1.01187519634995460
0.000600000000019917934 1.45628400265219193 0.000600000000019917934 1.47802174967308431
0.000799999999998135536 1.93941745472031890 0.000799999999998135536 1.95113331531794110
0.001007140329434719206 2.43875531303301685 0.001007140329434719206 2.44627921370868906
0.001267914553977789183 3.06595892068924014 0.001267914553977789183 3.07195589117258949
0.001596209851982166583 3.85342471563753364 0.001596209851982166583 3.85578768185917697
0.002009509145224797066 4.84158543355554283 0.002009509145224797066 4.83682295058856404
0.002529822128153114136 6.08081767723304623 0.002529822128153114136 6.06328669739415105
0.003184857364431081805 7.63375904792987114 0.003184857364431081805 7.59450492906738450
0.004009497869034817086 9.57810119151456085 0.004009497869034817086 9.50312113373735023
0.005047658755856332391 12.00992652237440161 0.005047658755856332391 11.87758268803761119
0.006354625877790454069 15.04764455575797832 0.006354625877790454069 14.82484825037826504
0.008000000000009777068 18.83657274782224533 0.008000000000009777068 18.47319616054488378
0.010071403294361402914 23.55416204208196618 0.010071403294361402914 22.97487877108230592
0.012679145539692626699 29.41579385704318739 0.012679145539692626699 28.50825319345359787
0.015962098519750611558 36.68097753429656649 0.015962098519750611558 35.27889426064760414
0.020095091452091651263 45.65964596927877039 0.020095091452091651263 43.51865309081915001
0.025298221281360611101 56.71789914075895211 0.025298221281360611101 53.48168711958874155
0.031848573644296607199 70.28244209757757233 0.031848573644296607199 65.43601310567518681
0.040094978690191851456 86.84239691368934189 0.040094978690191851456 79.64841077712090112
0.050476587558435426217 106.94673125612544595 0.050476587558435426217 96.36092385885794442
0.063546258777947173257 131.19517227167267492 0.063546258777947173257 115.75703879315278755
0.080000000000012505552 160.21996240287313640 0.080000000000012505552 137.91674277717586961
0.100714032943542974863 194.65595948910561219 0.100714032943542974863 162.75907591459591117
0.126791455396883634421 235.09580904650843536 0.126791455396883634421 189.98331613326547540
0.159620985197506115583 282.03283539345341069 0.159620985197506115583 219.00666527484145263
0.200950914520774404082 335.78743755526573977 0.200950914520774404082 248.93411143702493860
0.252982212813464002465 396.43609092763614399 0.252982212813464002465 278.56358598367791046
0.318485736442809752589 463.74024268643393043 0.318485736442809752589 306.45925840283530306
0.400949786901833249431 537.10932152118721206 0.400949786901833249431 331.12458541627484010
0.504765875584169521062 615.60965493227479328 0.504765875584169521062 351.21576813237834358
0.635462587779443310865 698.02610293535622077 0.635462587779443310865 365.80451352806363730
0.800000000000011368684 782.99197707860366791 0.800000000000011368684 374.59396088479445552
1.007140329435344483500 869.14957938577083496 1.007140329435344483500 377.98326841898040129
1.267914553968907398485 955.30870137438728307 1.267914553968907398485 377.01139387039148687
1.596209851975117999245 1040.57926799895176373 1.596209851975117999245 373.11737412169685513
2.009509145207687197399 1124.41727237284703733 2.009509145207687197399 367.83590917150922905
2.529822128134725289783 1206.61494357829519686 2.529822128134725289783 362.59339884553702404
3.184857364427983839050 1287.25006995671174082 3.184857364427983839050 358.43729339518307597
4.009497869018204596614 1366.55099104203304705 4.009497869018204596614 355.98090581982876301
5.009497869018190385759 1442.25750222588749239 5.009497869018190385759 355.43734222627091413
6.009497869018190385759 1503.60488919860472379 6.009497869018190385759 356.33116608316703378
7.009497869018204596614 1555.19850419543763564 7.009497869018204596614 357.96319056596638575
8.009497869018190385759 1599.71435681568982545 8.009497869018190385759 359.91979751505641616
9.009497869018204596614 1638.84627526111830775 9.009497869018204596614 362.02093636529338028
10.009497869018190385759 1673.73625617315178715 10.009497869018190385759 364.13897794155371912
11.009497869018190385759 1705.19245091735047026 11.009497869018190385759 366.11258910188399796
12.009497869018204596614 1733.80839457921842950 12.009497869018204596614 368.00968044936553270
13.009497869018190385759 1760.03156667226903664 13.009497869018190385759 369.81718830732228298
14.009497869018204596614 1784.21403547719364724 14.009497869018204596614 371.53050221199441694
15.009497869018190385759 1806.63292352967664556 15.009497869018190385759 373.16278282213795592
16.009497869018190385759 1827.51269686622890731 16.009497869018190385759 374.70350458605946642
17.009497869018204596614 1847.03742399856855627 17.009497869018204596614 376.13161584721660802
18.009497869018190385759 1865.35825635550804691 18.009497869018190385759 377.46331161513597863
19.009497869018204596614 1882.60061173830899861 19.009497869018204596614 378.65891606958655302
20.009497869018190385759 1898.87205704397501904 20.009497869018190385759 379.78813277854237640
21.009497869018190385759 1914.26420267118601259 21.009497869018190385759 380.85764650581859314
22.009497869018204596614 1928.85546467740027765 22.009497869018204596614 381.88856812045804645
23.009497869018190385759 1942.72126770769114046 23.009497869018190385759 382.90274456434707417
24.009497869018204596614 1955.92493655762632443 24.009497869018204596614 383.86510501470979762
25.009497869018204596614 1968.52071037938503650 25.009497869018204596614 384.79369222127212424
26.009497869018190385759 1980.55614412379213718 26.009497869018190385759 385.65544939473193153
27.009497869018204596614 1992.07461095478947755 27.009497869018204596614 386.44763119889097425
28.009497869018190385759 2003.11067463564950231 28.009497869018190385759 387.18317378681916807
29.009497869018190385759 2013.69271769300098640 29.009497869018190385759 387.88163054074385627
30.009497869018190385759 2023.85111136544946930 30.009497869018190385759 388.54008079541381449
31.009497869018218807469 2033.61576831705338009 31.009497869018218807469 389.14530102867729511
32.009497869018190385759 2043.01258359862640646 32.009497869018190385759 389.71340109937381158
33.009497869018190385759 2052.06496915764819278 33.009497869018190385759 390.29390187747793561
34.009497869018218807469 2060.79497674313415700 34.009497869018218807469 390.83903116765384311
35.009497869018190385759 2069.22129455820959265 35.009497869018190385759 391.36634501731390401
36.009497869018190385759 2077.36127638052084876 36.009497869018190385759 391.88165915740677292
37.009497869018190385759 2085.23103619198673186 37.009497869018190385759 392.37859784561982224
38.009497869018218807469 2092.84481463521206024 38.009497869018218807469 392.85718471742922020
39.009497869018190385759 2100.21596786844702365 39.009497869018190385759 393.30935924406048798
40.009497869018190385759 2107.35689430258935317 40.009497869018190385759 393.73271036555058799
41.009497869018218807469 2114.27924697905973517 41.009497869018218807469 394.15372591800155533
42.009497869018190385759 2120.99371174028465248 42.009497869018190385759 394.55212487657610154
43.009497869018190385759 2127.51020606416614100 43.009497869018190385759 394.93473535654328543
44.009497869018218807469 2133.83843109437839303 44.009497869018218807469 395.29829064865123200
46.009497869018190385759 2145.96509476649771386 46.009497869018190385759 395.98722849409608671
48.009497869018218807469 2157.43747757103437834 48.009497869018218807469 396.63284638076578403
50.009497869018190385759 2168.31087558864601306 50.009497869018190385759 397.23784103339443163
52.009497869018190385759 2178.63455710365951745 52.009497869018190385759 397.80728950151791423
54.009497869018218807469 2188.45227980001936885 54.009497869018218807469 398.34500125604586174
56.009497869018190385759 2197.80323430866837953 56.009497869018190385759 398.84907713492799530
58.009497869018218807469 2206.72209858033102137 58.009497869018218807469 399.31479410113092854
60.009497869018190385759 2215.24011209509899345 60.009497869018190385759 399.76242936204550915
62.009497869018190385759 2223.38541054025063204 62.009497869018190385759 400.18600423393536403
64.009497869018218807469 2231.18340466926701993 64.009497869018218807469 400.58584235410233987
66.009497869018190385759 2238.65705570838281346 66.009497869018190385759 400.95324195008828383
68.009497869018190385759 2245.82714264765445478 68.009497869018190385759 401.29775803088051589
70.009497869018190385759 2252.71289599374040336 70.009497869018190385759 401.63131401282015531
72.009497869018190385759 2259.33186138408882471 72.009497869018190385759 401.94617175641104723
74.009497869018218807469 2265.70008146217651301 74.009497869018218807469 402.24717777938536756
76.009497869018190385759 2271.83197142186827477 76.009497869018190385759 402.53331179588974464
78.009497869018190385759 2277.74074234897079805 78.009497869018190385759 402.79967285987129344
80.009497869018218807469 2283.43882681769537157 80.009497869018218807469 403.06377162808888670
82.009497869018190385759 2288.93817888619241785 82.009497869018190385759 403.32398701863604629
84.009497869018218807469 2294.24967272055482681 84.009497869018218807469 403.56631636016095399
86.009497869018190385759 2299.38333293155437786 86.009497869018190385759 403.80012970837560715
88.009497869018190385759 2304.34817516568273277 88.009497869018190385759 404.02615902609232990
91.009497869018218807469 2311.49720000259731023 91.009497869018218807469 404.35651345672226853
94.009497869018218807469 2318.31164220367918460 94.009497869018218807469 404.68793261634692726
97.009497869018218807469 2324.81608036405077655 97.009497869018218807469 405.04748818056327764
99.504748934509137825444 2330.00658571099393157 99.504748934509137825444 405.17976840700498542
nan nan nan nan

