Time Pressure difference Time.1 Pressure.1 difference.1
(hr) (psi) (hr) (psi)
0.000200000000020850166 0.79737342649696741 0.000200000000020850166 0.63658069355183522
0.000399999999999067768 1.59250112532182064 0.000399999999999067768 1.65767950255282681
0.000600000000019917934 2.38572123301382977 0.000600000000019917934 2.42133255919140122
0.000799999999998135536 3.17720265619710940 0.000799999999998135536 3.19639587492358945
0.001007140329434719206 3.99523054694828739 0.001007140329434719206 4.00755639105860340
0.001267914553977789183 5.02273133764790192 0.001267914553977789183 5.03255572615304736
0.001596209851982166583 6.31277769114681231 0.001596209851982166583 6.31664876209011883
0.002009509145224797066 7.93160753620020653 0.002009509145224797066 7.92380551632256225
0.002529822128153114136 9.96174909580840406 0.002529822128153114136 9.93302940187437677
0.003184857364431081805 12.50581687032880041 0.003184857364431081805 12.44150978140731922
0.004009497869034817086 15.69108727620133159 0.004009497869034817086 15.56825305185641106
0.005047658755856332391 19.67496495133007883 0.005047658755856332391 19.45815593944728050
0.006354625877790454069 24.65143135414276188 0.006354625877790454069 24.28644081973231295
0.008000000000009777068 30.85854921144940732 0.008000000000009777068 30.26325650874247231
0.010071403294361402914 38.58702314061209648 0.010071403294361402914 37.63802665569797057
0.012679145539692626699 48.18969642109464502 0.012679145539692626699 46.70294038517995716
0.015962098519750611558 60.09170381045171894 0.015962098519750611558 57.79477558058309938
0.020095091452091651263 74.80078520564438804 0.020095091452091651263 71.29335659929417091
0.025298221281360611101 92.91669483810341035 0.025298221281360611101 87.61505057133992125
0.031848573644296607199 115.13847169569021389 0.031848573644296607199 107.19892931987743623
0.040094978690191851456 142.26740791321120128 0.040094978690191851456 130.48203813316735022
0.050476587558435426217 175.20283618750929122 0.050476587558435426217 157.86089915444304665
0.063546258777947173257 214.92724467714293723 0.063546258777947173257 189.63610450755402326
0.080000000000012505552 262.47638891938265715 0.080000000000012505552 225.93869123905943752
0.100714032943542974863 318.89030906065090676 0.100714032943542974863 266.63602880206838108
0.126791455396883634421 385.13989195332442250 0.126791455396883634421 311.23546670296047978
0.159620985197506115583 462.03331395514555879 0.159620985197506115583 358.78225027960377247
0.200950914520774404082 550.09546084139105915 0.200950914520774404082 407.81014842925594621
0.252982212813464002465 649.45161653674176705 0.252982212813464002465 456.34990195278288638
0.318485736442809752589 759.71097777982333810 0.318485736442809752589 502.04929704218744746
0.400949786901833249431 879.90605573436823761 0.400949786901833249431 542.45665870242987694
0.504765875584169521062 1008.50728453068893486 0.504765875584169521062 575.37054165031270259
0.635462587779443310865 1143.52399115689763676 0.635462587779443310865 599.27019281047967070
0.800000000000011368684 1282.71723207416289370 0.800000000000011368684 613.66928745631855691
1.007140329435344483500 1423.86279216781576906 1.007140329435344483500 619.22173665908053408
1.267914553968907398485 1565.01084184199953597 1.267914553968907398485 617.62958722794519417
1.596209851975117999245 1704.70323767746390331 1.596209851975117999245 611.25030572837704312
2.009509145207687197399 1842.04877385312852311 2.009509145207687197399 602.59807645844523449
2.529822128134725289783 1976.70707480403325462 2.529822128134725289783 594.00966363773977719
3.184857364427983839050 2108.80557535570505934 3.184857364427983839050 587.20102672248424369
4.009497869018204596614 2238.71834709957647647 4.009497869018204596614 583.17691055808120382
5.009497869018190385759 2362.74266576254603933 5.009497869018190385759 582.28643095088750670
6.009497869018190385759 2463.24350448918175971 6.009497869018190385759 583.75071576764560177
7.009497869018204596614 2547.76546762392490564 7.009497869018204596614 586.42433949373344149
8.009497869018190385759 2620.69246167758092270 8.009497869018190385759 589.62970241374443958
9.009497869018204596614 2684.79935878954529471 9.009497869018204596614 593.07184114450797097
10.009497869018190385759 2741.95700670004362109 10.009497869018190385759 596.54167034793783841
11.009497869018190385759 2793.48933938678555933 11.009497869018190385759 599.77488999626041277
12.009497869018204596614 2840.36870101714976045 12.009497869018204596614 602.88275295459209246
13.009497869018190385759 2883.32816383170347763 13.009497869018190385759 605.84385797786580952
14.009497869018204596614 2922.94449497970299490 14.009497869018204596614 608.65065208790895213
15.009497869018190385759 2959.67168359810557376 15.009497869018190385759 611.32469540828060417
16.009497869018190385759 2993.87745561703059138 16.009497869018190385759 613.84874471436353360
17.009497869018204596614 3025.86335672120412710 17.009497869018204596614 616.18831265073015402
18.009497869018190385759 3055.87700699878496380 18.009497869018190385759 618.36993029100767671
19.009497869018204596614 3084.12386905934545211 19.009497869018204596614 620.32859970444212649
20.009497869018190385759 3110.78016171026638403 20.009497869018190385759 622.17851103651992162
21.009497869018190385759 3135.99596342037330032 21.009497869018190385759 623.93061543615328901
22.009497869018204596614 3159.89973735546846001 22.009497869018204596614 625.61949726218369960
23.009497869018190385759 3182.61504607403367118 23.009497869018190385759 627.28094672657539377
24.009497869018204596614 3204.24562985549709992 24.009497869018204596614 628.85750992170892459
25.009497869018204596614 3224.88034464882184693 25.009497869018204596614 630.37874493587241886
26.009497869018190385759 3244.59709617549560789 26.009497869018190385759 631.79049730194992662
27.009497869018204596614 3263.46693944811931942 27.009497869018204596614 633.08826954084531735
28.009497869018190385759 3281.54649769662682957 28.009497869018190385759 634.29325398523269541
29.009497869018190385759 3298.88226789297095820 29.009497869018190385759 635.43748347971688872
30.009497869018190385759 3315.52400496728932922 30.009497869018190385759 636.51617331671889133
31.009497869018218807469 3331.52071260131606323 31.009497869018218807469 637.50766038827680404
32.009497869018190385759 3346.91481272129931313 32.009497869018190385759 638.43833627201172476
33.009497869018190385759 3361.74465937089144063 33.009497869018190385759 639.38932730781368718
34.009497869018218807469 3376.04637828226805141 34.009497869018218807469 640.28237187875026848
35.009497869018190385759 3389.85058494177701505 35.009497869018190385759 641.14623074508767786
36.009497869018190385759 3403.18570874624538192 36.009497869018190385759 641.99043138414754139
37.009497869018190385759 3416.07814802782831975 37.009497869018190385759 642.80452889384810078
38.009497869018218807469 3428.55123216690071786 38.009497869018218807469 643.58856199442334400
39.009497869018190385759 3440.62684155923079743 39.009497869018190385759 644.32932572405809424
40.009497869018190385759 3452.32528759468550561 40.009497869018190385759 645.02287022342773071
41.009497869018218807469 3463.66566058002990758 41.009497869018218807469 645.71258853461017679
42.009497869018190385759 3474.66546633220696094 42.009497869018190385759 646.36525577050008451
43.009497869018190385759 3485.34095191399228497 43.009497869018190385759 646.99205792198210929
44.009497869018218807469 3495.70800998396543946 44.009497869018218807469 647.58764338345599754
46.009497869018190385759 3515.57421668231745571 46.009497869018190385759 648.71627876165916859
48.009497869018218807469 3534.36856393889547689 48.009497869018218807469 649.77394628930903764
50.009497869018190385759 3552.18163918959089642 50.009497869018190385759 650.76506380897387771
52.009497869018190385759 3569.09415498210455553 52.009497869018190385759 651.69794867142877592
54.009497869018218807469 3585.17779625941693666 54.009497869018218807469 652.57884164812980998
56.009497869018190385759 3600.49676610293772683 56.009497869018190385759 653.40463148384117176
58.009497869018218807469 3615.10787480736780708 58.009497869018218807469 654.16758078000964360
60.009497869018190385759 3629.06229967797753488 60.009497869018190385759 654.90090816990391431
62.009497869018190385759 3642.40613330826045058 62.009497869018190385759 655.59481922282930100
64.009497869018218807469 3655.18100423634132312 64.009497869018218807469 656.24984412958747271
66.009497869018190385759 3667.42452812294777686 66.009497869018190385759 656.85172742676581947
68.009497869018190385759 3679.17074563438245605 68.009497869018190385759 657.41612237140839170
70.009497869018190385759 3690.45116067233902868 70.009497869018190385759 657.96256220530256087
72.009497869018190385759 3701.29451694321733157 72.009497869018190385759 658.47837011289175280
74.009497869018218807469 3711.72709591073271440 74.009497869018218807469 658.97148578192832247
76.009497869018190385759 3721.77251290954563956 76.009497869018190385759 659.44023775435846346
78.009497869018190385759 3731.45241067408232993 78.009497869018190385759 659.87659717658107184
80.009497869018218807469 3740.78715656141184809 80.009497869018218807469 660.30925044874618379
82.009497869018190385759 3749.79633401150977079 82.009497869018190385759 660.73554187353352063
84.009497869018218807469 3758.49775735790581166 84.009497869018218807469 661.13253192108277290
86.009497869018190385759 3766.90784917114706332 86.009497869018190385759 661.51557085331160124
88.009497869018190385759 3775.04137911101634018 88.009497869018190385759 661.88585779018546873
91.009497869018218807469 3786.75309215442530331 91.009497869018218807469 662.42705276186575247
94.009497869018218807469 3797.91668347360382541 94.009497869018218807469 662.96999199947617853
97.009497869018218807469 3808.57241834383739842 97.009497869018218807469 663.55902500570084612
99.504748934509137825444 3817.07563529446133543 99.504748934509137825444 663.77572981352352599
nan nan nan nan

