Time Pressure difference Time.1 Pressure.1 difference.1
(hr) (psi) (hr) (psi)
0.000200000000020850166 0.20017395394350951 0.000200000000020850166 0.15980827827707528
0.000399999999999067768 0.39978413666933205 0.000399999999999067768 0.41614662512003259
0.000600000000019917934 0.59891543453784679 0.000600000000019917934 0.60785536121367467
0.000799999999998135536 0.79761025014948272 0.000799999999998135536 0.80242854776727612
0.001007140329434719206 1.00296933522347631 0.001007140329434719206 1.00606363567200363
0.001267914553977789183 1.26091484622202543 0.001267914553977789183 1.26338117708633790
0.001596209851982166583 1.58477023288164776 0.001596209851982166583 1.58574203298304028
0.002009509145224797066 1.99116397523359367 0.002009509145224797066 1.98920534316014330
0.002529822128153114136 2.50081409592690163 0.002529822128153114136 2.49360425609554648
0.003184857364431081805 3.13948111015545894 0.003184857364431081805 3.12333735137412916
0.004009497869034817086 3.93911670162970884 0.004009497869034817086 3.90828019322645348
0.005047658755856332391 4.93923599299015503 0.005047658755856332391 4.88480789729874498
0.006354625877790454069 6.18853641286292255 0.006354625877790454069 6.09690858078696607
0.008000000000009777068 7.74678162495761136 0.008000000000009777068 7.59733835271555868
0.010071403294361402914 9.68695060092449545 0.010071403294361402914 9.44871294169084663
0.012679145539692626699 12.09762170571229944 0.012679145539692626699 11.72438399252955143
0.015962098519750611558 15.08552147741548310 0.015962098519750611558 14.50889678637554958
0.020095091452091651263 18.77811378600031489 0.020095091452091651263 17.89760306294780534
0.025298221281360611101 23.32596193331554346 0.025298221281360611101 21.99502832051345891
0.031848573644296607199 28.90455383193889816 0.031848573644296607199 26.91139788134423227
0.040094978690191851456 35.71504719487906243 0.040094978690191851456 32.75642832301389262
0.050476587558435426217 43.98321200123930197 0.050476587558435426217 39.62966322522996876
0.063546258777947173257 53.95569371582442386 0.063546258777947173257 47.60656373575054090
0.080000000000012505552 65.89251013497000997 0.080000000000012505552 56.72002561313887981
0.100714032943542974863 80.05475467043422100 0.100714032943542974863 66.93675306385259205
0.126791455396883634421 96.68616037578247813 0.126791455396883634421 78.13307028688905120
0.159620985197506115583 115.98961319082300747 0.159620985197506115583 90.06929408060885578
0.200950914520774404082 138.09688131539087408 0.200950914520774404082 102.37733934526112023
0.252982212813464002465 163.03941623474457856 0.252982212813464002465 114.56283996939654912
0.318485736442809752589 190.71911004680984547 0.318485736442809752589 126.03529227829915271
0.400949786901833249431 220.89308274164869772 0.400949786901833249431 136.17922369508914926
0.504765875584169521062 253.17734955405839514 0.504765875584169521062 144.44197972679725694
0.635462587779443310865 287.07216861334615032 0.635462587779443310865 150.44178798679752163
0.800000000000011368684 322.01547180195126430 0.800000000000011368684 154.05656070517997591
1.007140329435344483500 357.44888845046210690 1.007140329435344483500 155.45045680712334502
1.267914553968907398485 392.88293008741868562 1.267914553968907398485 155.05076096034872535
1.596209851975117999245 427.95154195861329072 1.596209851975117999245 153.44929550056133394
2.009509145207687197399 462.43099426937914131 2.009509145207687197399 151.27722544425552087
2.529822128134725289783 496.23583857059583124 2.529822128134725289783 149.12117597572427030
3.184857364427983839050 529.39806631325507169 3.184857364427983839050 147.41192441679032754
4.009497869018204596614 562.01158505312287161 4.009497869018204596614 146.40170358801830730
5.009497869018190385759 593.14685671747258766 5.009497869018190385759 146.17815610329571996
6.009497869018190385759 618.37675477280504310 6.009497869018190385759 146.54575260416936544
7.009497869018204596614 639.59528926808945926 7.009497869018204596614 147.21694356040597995
8.009497869018190385759 657.90300340030933057 8.009497869018190385759 148.02162321011707036
9.009497869018204596614 673.99650569612538220 9.009497869018204596614 148.88574345398583887
10.009497869018190385759 688.34545689032347582 10.009497869018190385759 149.75681516026355666
11.009497869018190385759 701.28221957522430330 11.009497869018190385759 150.56848800947790323
12.009497869018204596614 713.05089265118022013 12.009497869018204596614 151.34869110630901901
13.009497869018190385759 723.83550779525057806 13.009497869018190385759 152.09205184652674347
14.009497869018204596614 733.78085759386294740 14.009497869018204596614 152.79667411790214260
15.009497869018190385759 743.00091223660774631 15.009497869018190385759 153.46797040978711379
16.009497869018190385759 751.58798625385861669 16.009497869018190385759 154.10161195433502712
17.009497869018204596614 759.61778017688573073 17.009497869018204596614 154.68894098836040030
18.009497869018190385759 767.15245696531997055 18.009497869018190385759 155.23661791680504507
19.009497869018204596614 774.24359629510661307 19.009497869018204596614 155.72832555080267980
20.009497869018190385759 780.93543642934810123 20.009497869018190385759 156.19273037479302957
21.009497869018190385759 787.26565331698952832 21.009497869018190385759 156.63258158345098536
22.009497869018204596614 793.26649656527911247 22.009497869018204596614 157.05656129186070302
23.009497869018190385759 798.96898552483548883 23.009497869018190385759 157.47365433448405270
24.009497869018204596614 804.39916332830716783 24.009497869018204596614 157.86943738659567771
25.009497869018204596614 809.57933652121460000 25.009497869018204596614 158.25133075994298792
26.009497869018190385759 814.52906268572348836 26.009497869018190385759 158.60573942684368376
27.009497869018204596614 819.26617959062173213 27.009497869018204596614 158.93153433264970431
28.009497869018190385759 823.80490202592409332 28.009497869018190385759 159.23403563587612553
29.009497869018190385759 828.15690266896456251 29.009497869018190385759 159.52128491522057629
30.009497869018190385759 832.33467208032993767 30.009497869018190385759 159.79208100971794693
31.009497869018218807469 836.35051222595541276 31.009497869018218807469 160.04098557664033819
32.009497869018190385759 840.21507277690943738 32.009497869018190385759 160.27462400161962819
33.009497869018190385759 843.93798219623420209 33.009497869018190385759 160.51336237623240777
34.009497869018218807469 847.52830954794433183 34.009497869018218807469 160.73755377372793873
35.009497869018190385759 850.99374059475849208 35.009497869018190385759 160.95441834329804465
36.009497869018190385759 854.34141229983868016 36.009497869018190385759 161.16634787872871470
37.009497869018190385759 857.57795174448619946 37.009497869018190385759 161.37072027439313615
38.009497869018218807469 860.70921557523240608 38.009497869018218807469 161.56754525068333805
39.009497869018190385759 863.74069668309857661 39.009497869018190385759 161.75350781197707306
40.009497869018190385759 866.67749407324913591 40.009497869018190385759 161.92761637900630944
41.009497869018218807469 869.52440020811172872 41.009497869018218807469 162.10076441337608344
42.009497869018190385759 872.28580977714784694 42.009497869018190385759 162.26461108405263190
43.009497869018190385759 874.96580147007512096 43.009497869018190385759 162.42196454083094181
44.009497869018218807469 877.56836500639121823 44.009497869018218807469 162.57148130772176842
46.009497869018190385759 882.55561064629000612 46.009497869018190385759 162.85481581412483365
48.009497869018218807469 887.27377490549361028 48.009497869018218807469 163.12033443304531488
50.009497869018190385759 891.74559900488691255 50.009497869018190385759 163.36914622704446742
52.009497869018190385759 895.99134515696584913 52.009497869018190385759 163.60333919772324407
54.009497869018218807469 900.02900926929112302 54.009497869018218807469 163.82448003874924325
56.009497869018190385759 903.87470899042511974 56.009497869018190385759 164.03178769542262216
58.009497869018218807469 907.54270607143303096 58.009497869018218807469 164.22331975831494333
60.009497869018190385759 911.04584814832560369 60.009497869018190385759 164.40741548848629350
62.009497869018190385759 914.39570638259453972 62.009497869018190385759 164.58161607573109109
64.009497869018218807469 917.60273127183154429 64.009497869018218807469 164.74605462003185608
66.009497869018190385759 920.67636591419829983 66.009497869018190385759 164.89715240609430680
68.009497869018190385759 923.62515593529803937 68.009497869018190385759 165.03883905365563578
70.009497869018190385759 926.45701012711845124 70.009497869018190385759 165.17601822028950664
72.009497869018190385759 929.17914435762020275 72.009497869018190385759 165.30550749709053093
74.009497869018218807469 931.79815636925684430 74.009497869018218807469 165.42930007650491575
76.009497869018190385759 934.31997459500053083 76.009497869018190385759 165.54697635291708480
78.009497869018190385759 936.75003226297280889 78.009497869018190385759 165.65652074953754891
80.009497869018218807469 939.09344242843792472 80.009497869018218807469 165.76513474807066473
82.009497869018190385759 941.35512135080625740 82.009497869018190385759 165.87215165783496218
84.009497869018218807469 943.53954117005764601 84.009497869018218807469 165.97181270102183248
86.009497869018190385759 945.65082463567330251 86.009497869018190385759 166.06797143296677177
88.009497869018190385759 947.69267954766132789 88.009497869018190385759 166.16092888274445727
91.009497869018218807469 950.63280750960052501 91.009497869018218807469 166.29679137042671755
94.009497869018218807469 953.43533408035273169 94.009497869018218807469 166.43309174153517915
97.009497869018218807469 956.11036752173424702 97.009497869018218807469 166.58096356913949876
99.504748934509137825444 958.24502927704702415 99.504748934509137825444 166.63536550526998781
nan nan nan nan

