Time Pressure difference Time.1 Pressure.1 difference.1
(hr) (psi) (hr) (psi)
0.000200000000020850166 0.34718967945388790 0.000200000000020850166 0.27717784365069492
0.000399999999999067768 0.69340153165054275 0.000399999999999067768 0.72178128340321002
0.000600000000019917934 1.03878278687477166 0.000600000000019917934 1.05428855181458925
0.000799999999998135536 1.38340698988582478 0.000799999999998135536 1.39176403720631270
0.001007140329434719206 1.73958996731706694 0.001007140329434719206 1.74495684527343364
0.001267914553977789183 2.18698093660085746 0.001267914553977789183 2.19125863909580598
0.001596209851982166583 2.74868861968684142 0.001596209851982166583 2.75037414849340589
0.002009509145224797066 3.45355411472050688 0.002009509145224797066 3.45015698523211567
0.002529822128153114136 4.33751158546657578 0.002529822128153114136 4.32500655206613427
0.003184857364431081805 5.44524109562233161 0.003184857364431081805 5.41724071732110346
0.004009497869034817086 6.83216091817932902 0.004009497869034817086 6.77867684966247985
0.005047658755856332391 8.56680765589163862 0.005047658755856332391 8.47240539863433817
0.006354625877790454069 10.73364406878299526 0.006354625877790454069 10.57472110692511080
0.008000000000009777068 13.43632663581859710 0.008000000000009777068 13.17712627151495219
0.010071403294361402914 16.80143299247484734 0.010071403294361402914 16.38822410633516213
0.012679145539692626699 20.98259698335162682 0.012679145539692626699 20.33523862604710786
0.015962098519750611558 26.16492936746751852 0.015962098519750611558 25.16480853404555873
0.020095091452091651263 32.56950855829099822 0.020095091452091651263 31.04231568594266832
0.025298221281360611101 40.45747754409085672 0.025298221281360611101 38.14905326960425924
0.031848573644296607199 50.13320955083177921 0.031848573644296607199 46.67620047469663547
0.040094978690191851456 61.94560052887737100 0.040094978690191851456 56.81405410381662335
0.050476587558435426217 76.28623492331132638 0.050476587558435426217 68.73526650683039918
0.063546258777947173257 93.58290445317265949 0.063546258777947173257 82.57072050433082211
0.080000000000012505552 114.28659434198118561 0.080000000000012505552 98.37747181034046662
0.100714032943542974863 138.85015540349172625 0.100714032943542974863 116.09777087423393027
0.126791455396883634421 167.69632795467666142 0.126791455396883634421 135.51710946024741133
0.159620985197506115583 201.17700545130296064 0.159620985197506115583 156.21977147591081803
0.200950914520774404082 239.52073190802232716 0.200950914520774404082 177.56733546190517359
0.252982212813464002465 282.78205803370633475 0.252982212813464002465 198.70235314194087550
0.318485736442809752589 330.79082157496475247 0.318485736442809752589 218.60063142045248696
0.400949786901833249431 383.12576176767282732 0.400949786901833249431 236.19467014334964006
0.504765875584169521062 439.12088013940422115 0.504765875584169521062 250.52592334357365189
0.635462587779443310865 497.90940448289910591 0.635462587779443310865 260.93222978622969777
0.800000000000011368684 558.51646146562518425 0.800000000000011368684 267.20183557993874501
1.007140329435344483500 619.97359075640315496 1.007140329435344483500 269.61946450364126804
1.267914553968907398485 681.43180405203736427 1.267914553968907398485 268.92621610550111200
1.596209851975117999245 742.25620140539570002 1.596209851975117999245 266.14857061923089532
2.009509145207687197399 802.05873694854972200 2.009509145207687197399 262.38124579128134428
2.529822128134725289783 860.69120548758940004 2.529822128134725289783 258.64170770893258577
3.184857364427983839050 918.20909426946332133 3.184857364427983839050 255.67711371874833048
4.009497869018204596614 974.77528029960728873 4.009497869018204596614 253.92494647216452108
5.009497869018190385759 1028.77753571744187866 5.009497869018190385759 253.53721680986561182
6.009497869018190385759 1072.53727591299798405 6.009497869018190385759 254.17479082382902789
7.009497869018204596614 1109.33954736125065210 7.009497869018204596614 255.33893115456308465
8.009497869018190385759 1141.09317602211331177 8.009497869018190385759 256.73459959265119323
9.009497869018204596614 1169.00638747294783570 9.009497869018204596614 258.23336416500450241
10.009497869018190385759 1193.89378000064402841 10.009497869018190385759 259.74418563066461729
11.009497869018190385759 1216.33181652466305422 11.009497869018190385759 261.15198335253842288
12.009497869018204596614 1236.74387190121728963 12.009497869018204596614 262.50519868231191367
13.009497869018190385759 1255.44913800172071205 13.009497869018190385759 263.79451316119576632
14.009497869018204596614 1272.69874885574563450 14.009497869018204596614 265.01663809661039295
15.009497869018190385759 1288.69037890000822699 15.009497869018190385759 266.18096112568883882
16.009497869018190385759 1303.58414213324863340 16.009497869018190385759 267.27997426104582246
17.009497869018204596614 1317.51133657235777719 17.009497869018204596614 268.29866113333878275
18.009497869018190385759 1330.57978013072079193 18.009497869018190385759 269.24857381420957836
19.009497869018204596614 1342.87893465292358997 19.009497869018204596614 270.10141112130918373
20.009497869018190385759 1354.48552874467850415 20.009497869018190385759 270.90689334715142422
21.009497869018190385759 1365.46490907262091241 21.009497869018190385759 271.66978880449175904
22.009497869018204596614 1375.87301064019334262 22.009497869018204596614 272.40515609957583365
23.009497869018190385759 1385.76363464473547538 23.009497869018190385759 273.12857888719639732
24.009497869018204596614 1395.18195133291419552 24.009497869018204596614 273.81504077841077560
25.009497869018204596614 1404.16665006584116782 25.009497869018204596614 274.47741185749447368
26.009497869018190385759 1412.75165229308049675 26.009497869018190385759 275.09211236689071711
27.009497869018204596614 1420.96789655136876718 27.009497869018204596614 275.65718402924306929
28.009497869018190385759 1428.84003753873957976 28.009497869018190385759 276.18185433940340090
29.009497869018190385759 1436.38832081173109145 29.009497869018190385759 276.68007093179335243
30.009497869018190385759 1443.63441049617404133 30.009497869018190385759 277.14975046498801703
31.009497869018218807469 1450.59964361182323955 31.009497869018218807469 277.58146046072891977
32.009497869018190385759 1457.30249137239911761 32.009497869018190385759 277.98669225177178532
33.009497869018190385759 1463.75965376774229298 33.009497869018190385759 278.40076959861056594
34.009497869018218807469 1469.98686054373729348 34.009497869018218807469 278.78961608887254897
35.009497869018190385759 1475.99744219339845586 35.009497869018190385759 279.16575463692362291
36.009497869018190385759 1481.80377734992771366 36.009497869018190385759 279.53333366518091907
37.009497869018190385759 1487.41736028711693507 37.009497869018190385759 279.88780528919642165
38.009497869018218807469 1492.84834900600458241 38.009497869018218807469 280.22918636840512363
39.009497869018190385759 1498.10627059558169094 39.009497869018190385759 280.55172724235035275
40.009497869018190385759 1503.19996897351938969 40.009497869018190385759 280.85370807645080049
41.009497869018218807469 1508.13775637755475145 41.009497869018218807469 281.15402292444480281
42.009497869018190385759 1512.92725513214850253 42.009497869018190385759 281.43820511673857254
43.009497869018190385759 1517.57553947921746840 43.009497869018190385759 281.71112522019643620
44.009497869018218807469 1522.08952934718467986 44.009497869018218807469 281.97045305654643244
46.009497869018190385759 1530.73960684709231828 46.009497869018190385759 282.46187971080570378
48.009497869018218807469 1538.92297888172765852 48.009497869018218807469 282.92240578013667118
50.009497869018190385759 1546.67908873046758345 50.009497869018190385759 283.35395486682403998
52.009497869018190385759 1554.04307998179115202 52.009497869018190385759 283.76014848401791824
54.009497869018218807469 1561.04616545462113208 54.009497869018218807469 284.14370396762319615
56.009497869018190385759 1567.71630024065416364 56.009497869018190385759 284.50326662525583288
58.009497869018218807469 1574.07822048904154144 58.009497869018218807469 284.83546746462923238
60.009497869018190385759 1580.15420965145290211 60.009497869018190385759 285.15477043231231846
62.009497869018190385759 1585.96433721130506456 62.009497869018190385759 285.45691086994025909
64.009497869018218807469 1591.52672892790701553 64.009497869018218807469 285.74211963142454351
66.009497869018190385759 1596.85776328686665693 66.009497869018190385759 286.00418965040421426
68.009497869018190385759 1601.97226216163721801 68.009497869018190385759 286.24993661588405303
70.009497869018190385759 1606.88394287608093691 70.009497869018190385759 286.48786562689218727
72.009497869018190385759 1611.60532091902587126 72.009497869018190385759 286.71245698665495638
74.009497869018218807469 1616.14783967779817431 74.009497869018218807469 286.92716776754798502
76.009497869018190385759 1620.52178166269800386 76.009497869018190385759 287.13127018887695385
78.009497869018190385759 1624.73657048100676548 78.009497869018190385759 287.32126835396962861
80.009497869018218807469 1628.80107441944824131 80.009497869018218807469 287.50965279955823917
82.009497869018190385759 1632.72382043417837849 82.009497869018190385759 287.69526719076770860
84.009497869018218807469 1636.51256518292143483 84.009497869018218807469 287.86812327397149147
86.009497869018190385759 1640.17445932660348262 86.009497869018190385759 288.03490480904605420
88.009497869018190385759 1643.71593382125502103 88.009497869018190385759 288.19613391280984160
91.009497869018218807469 1648.81540887557298447 91.009497869018218807469 288.43177922339577890
94.009497869018218807469 1653.67622259579843558 94.009497869018218807469 288.66818401643860170
97.009497869018218807469 1658.31590715387937962 97.009497869018218807469 288.92465880456558125
99.504748934509137825444 1662.01834953446359577 99.504748934509137825444 289.01901568963836553
nan nan nan nan

