Time Pressure difference Time.1 Pressure.1 difference.1
(hr) (psi) (hr) (psi)
0.000200000000020850166 0.41197627035676648 0.000200000000020850166 0.32890002500178150
0.000399999999999067768 0.82279224808294060 0.000399999999999067768 0.85646774298562711
0.000600000000019917934 1.23262263705714536 0.000600000000019917934 1.25102182224889047
0.000799999999998135536 1.64155470570183981 0.000799999999998135536 1.65147120204385467
0.001007140329434719206 2.06420244925661533 0.001007140329434719206 2.07057080204694532
0.001267914553977789183 2.59507785778474931 0.001267914553977789183 2.60015379184574114
0.001596209851982166583 3.26160180709251968 0.001596209851982166583 3.26360186041322775
0.002009509145224797066 4.09799722703677372 0.002009509145224797066 4.09396618343332364
0.002529822128153114136 5.14690369950100823 0.002529822128153114136 5.13206519096842761
0.003184857364431081805 6.46133871633654699 0.003184857364431081805 6.42811338706044832
0.004009497869034817086 8.10706175937068707 0.004009497869034817086 8.04359741012581253
0.005047658755856332391 10.16539855818720817 0.005047658755856332391 10.05338056871442909
0.006354625877790454069 12.73657286630709429 0.006354625877790454069 12.54799442352836181
0.008000000000009777068 15.94358375924886317 0.008000000000009777068 15.63601586285027878
0.010071403294361402914 19.93662862264958235 0.010071403294361402914 19.44631377211062073
0.012679145539692626699 24.89800981756556197 0.012679145539692626699 24.12985253234297645
0.015962098519750611558 31.04738030206671695 0.015962098519750611558 29.86063404996793480
0.020095091452091651263 38.64707235624960902 0.020095091452091651263 36.83490090963531571
0.025298221281360611101 48.00695899968675917 0.025298221281360611101 45.26777612852562527
0.031848573644296607199 59.48821037610660767 0.031848573644296607199 55.38611348193668249
0.040094978690191851456 73.50482742182578022 0.040094978690191851456 67.41571970213647091
0.050476587558435426217 90.52146536354645434 0.050476587558435426217 81.56146456312890791
0.063546258777947173257 111.04574308319051568 0.063546258777947173257 97.97865399556958721
0.080000000000012505552 135.61280094168103005 0.080000000000012505552 116.73499047351404556
0.100714032943542974863 164.75999301466961811 0.100714032943542974863 137.76194821440199689
0.126791455396883634421 198.98894417588428496 0.126791455396883634421 160.80499112986294108
0.159620985197506115583 238.71721221015857850 0.159620985197506115583 185.37082931112857409
0.200950914520774404082 284.21598810138533509 0.200950914520774404082 210.70191002178219719
0.252982212813464002465 335.55000187731661754 0.252982212813464002465 235.78078267560451309
0.318485736442809752589 392.51733851957544630 0.318485736442809752589 259.39213680513017835
0.400949786901833249431 454.61812879609027505 0.400949786901833249431 280.26927366292204624
0.504765875584169521062 521.06209700752265235 0.504765875584169521062 297.27477985266153837
0.635462587779443310865 590.82072876439701758 0.635462587779443310865 309.62293295208115751
0.800000000000011368684 662.73723657165089662 0.800000000000011368684 317.06246518576460858
1.007140329435344483500 735.66244262003817767 1.007140329435344483500 319.93123060719159412
1.267914553968907398485 808.58893495169991184 1.267914553968907398485 319.10862006777165334
1.596209851975117999245 880.76333946668967201 1.596209851975117999245 315.81265795966152155
2.009509145207687197399 951.72519982411643014 2.009509145207687197399 311.34233950353001319
2.529822128134725289783 1021.29865531541702239 2.529822128134725289783 306.90499287949887730
3.184857364427983839050 1089.54954726711434887 3.184857364427983839050 303.38719713995016036
4.009497869018204596614 1156.67114600144805081 4.009497869018204596614 301.30807045500864660
5.009497869018190385759 1220.75037731064890068 5.009497869018190385759 300.84798932462524590
6.009497869018190385759 1272.67581065274407592 6.009497869018190385759 301.60453647995024085
7.009497869018204596614 1316.34549160569463311 7.009497869018204596614 302.98590873842891824
8.009497869018190385759 1354.02443853341674185 8.009497869018190385759 304.64201291376792824
9.009497869018204596614 1387.14633537459826584 9.009497869018204596614 306.42045125799580774
10.009497869018190385759 1416.67778679502271189 10.009497869018190385759 308.21319634643452900
11.009497869018190385759 1443.30282534983916776 11.009497869018190385759 309.88369316473460913
12.009497869018204596614 1467.52382885886072472 12.009497869018204596614 311.48942235987254890
13.009497869018190385759 1489.71955131304684983 13.009497869018190385759 313.01932662189733492
14.009497869018204596614 1510.18798907284667621 14.009497869018204596614 314.46950357875300597
15.009497869018190385759 1529.16370319235443276 15.009497869018190385759 315.85109262761164928
16.009497869018190385759 1546.83668540213238884 16.009497869018190385759 317.15518476908783896
17.009497869018204596614 1563.36273430595565515 17.009497869018204596614 318.36396153621063831
18.009497869018190385759 1578.86978694937215550 18.009497869018190385759 319.49113065035396630
19.009497869018204596614 1593.46399901399536247 19.009497869018204596614 320.50310984729509300
20.009497869018190385759 1607.23641688363773028 20.009497869018190385759 321.45889736886863375
21.009497869018190385759 1620.26458110052635675 21.009497869018190385759 322.36415130867919743
22.009497869018204596614 1632.61486430032528006 22.009497869018204596614 323.23674025212829974
23.009497869018190385759 1644.35110713825065432 23.009497869018190385759 324.09515580873068075
24.009497869018204596614 1655.52690875867347131 24.009497869018204596614 324.90971345954960725
25.009497869018204596614 1666.18817806855781782 25.009497869018204596614 325.69568488353405655
26.009497869018190385759 1676.37516635733936710 26.009497869018190385759 326.42509027267419697
27.009497869018204596614 1686.12458538152827714 27.009497869018204596614 327.09560592943671509
28.009497869018190385759 1695.46569047659068019 28.009497869018190385759 327.71818122570351761
29.009497869018190385759 1704.42250507803487380 29.009497869018190385759 328.30936646452033756
30.009497869018190385759 1713.02073589976612311 30.009497869018190385759 328.86668954697142908
31.009497869018218807469 1721.28570151068015548 31.009497869018218807469 329.37895786727636960
32.009497869018190385759 1729.23931990600453901 32.009497869018190385759 329.85980707387273014
33.009497869018190385759 1736.90140734162719127 33.009497869018190385759 330.35115244237039178
34.009497869018218807469 1744.29062877917158403 34.009497869018218807469 330.81255880402096636
35.009497869018190385759 1751.42280221991791223 35.009497869018190385759 331.25888588496195553
36.009497869018190385759 1758.31261618556004578 36.009497869018190385759 331.69505621514292670
37.009497869018190385759 1764.97370981437802584 37.009497869018190385759 332.11567326182154147
38.009497869018218807469 1771.41813661956553005 38.009497869018218807469 332.52075703045198907
39.009497869018190385759 1777.65720147226920744 39.009497869018190385759 332.90348495743006652
40.009497869018190385759 1783.70139859058758702 40.009497869018190385759 333.26181628210429153
41.009497869018218807469 1789.56059129968230081 41.009497869018218807469 333.61817074288188678
42.009497869018190385759 1795.24382427164027831 42.009497869018190385759 333.95538214809170086
43.009497869018190385759 1800.75949182222939271 43.009497869018190385759 334.27922992635745914
44.009497869018218807469 1806.11580515838181782 44.009497869018218807469 334.58694908145224645
46.009497869018190385759 1816.38001195253036713 46.009497869018190385759 335.17007736019058939
48.009497869018218807469 1826.09042470176268580 48.009497869018218807469 335.71653891614300846
50.009497869018190385759 1835.29384691462200863 50.009497869018190385759 336.22861630130319099
52.009497869018190385759 1844.03198007408741432 52.009497869018190385759 336.71060681357153044
54.009497869018218807469 1852.34186140069868998 54.009497869018218807469 337.16573485153372758
56.009497869018190385759 1860.25666248651805290 56.009497869018190385759 337.59239293331791032
58.009497869018218807469 1867.80573531714003366 58.009497869018218807469 337.98658340300499958
60.009497869018190385759 1875.01552150028851429 60.009497869018190385759 338.36546922111705271
62.009497869018190385759 1881.90983554260128585 62.009497869018190385759 338.72398993179513127
64.009497869018218807469 1888.51018552210985035 64.009497869018218807469 339.06241946695348588
66.009497869018190385759 1894.83600619685626043 66.009497869018190385759 339.37339250382893852
68.009497869018190385759 1900.90488524443094320 68.009497869018190385759 339.66499655856097206
70.009497869018190385759 1906.73309968070839204 70.009497869018190385759 339.94732380607302957
72.009497869018190385759 1912.33550042066235619 72.009497869018190385759 340.21382455832741698
74.009497869018218807469 1917.72566622054523577 74.009497869018218807469 340.46860098732958022
76.009497869018190385759 1922.91579833659852738 76.009497869018190385759 340.71078950641862093
78.009497869018190385759 1927.91707884827587804 78.009497869018190385759 340.93624187456686059
80.009497869018218807469 1932.74003089006282607 80.009497869018218807469 341.15977939851887868
82.009497869018190385759 1937.39477257261364684 82.009497869018190385759 341.38002996799230004
84.009497869018218807469 1941.89050796825131329 84.009497869018218807469 341.58514149255944403
86.009497869018190385759 1946.23572207175925541 86.009497869018190385759 341.78304494087763032
88.009497869018190385759 1950.43804587402496509 88.009497869018190385759 341.97435985826245997
91.009497869018218807469 1956.48909761311983857 91.009497869018218807469 342.25397726029734713
94.009497869018218807469 1962.25695312802895387 94.009497869018218807469 342.53449586639601421
97.009497869018218807469 1967.76241614431592097 97.009497869018218807469 342.83882958627879134
99.504748934509137825444 1972.15574490213862191 99.504748934509137825444 342.95079373698717973
nan nan nan nan

