Time Pressure difference Time.1 Pressure.1 difference.1
(hr) (psi) (hr) (psi)
0.000200000000020850166 0.00249179195780302 0.000200000000020850166 0.00198931466734948
0.000399999999999067768 0.00497656601663069 0.000399999999999067768 0.00518024844547758
0.000600000000019917934 0.00745537885316822 0.000600000000019917934 0.00756666424747313
0.000799999999998135536 0.00992875830061597 0.000799999999998135536 0.00998873710913622
0.001007140329434719206 0.01248509545921340 0.001007140329434719206 0.01252361372205814
0.001267914553977789183 0.01569603543014969 0.001267914553977789183 0.01572673664422828
0.001596209851982166583 0.01972743028483379 0.001596209851982166583 0.01973952738153162
0.002009509145224797066 0.02478627355062565 0.002009509145224797066 0.02476189223850801
0.002529822128153114136 0.03113046592440126 0.002529822128153114136 0.03104071688085743
0.003184857364431081805 0.03908067771977750 0.003184857364431081805 0.03887971806689787
0.004009497869034817086 0.04903464773812916 0.004009497869034817086 0.04865079078705129
0.005047658755856332391 0.06148426547290650 0.005047658755856332391 0.06080673731077276
0.006354625877790454069 0.07703572298169613 0.006354625877790454069 0.07589512756166349
0.008000000000009777068 0.09643296628577941 0.008000000000009777068 0.09457267658982023
0.010071403294361402914 0.12058444731441280 0.010071403294361402914 0.11761883329905617
0.012679145539692626699 0.15059280131592073 0.012679145539692626699 0.14594668870368738
0.015962098519750611558 0.18778657440766161 0.015962098519750611558 0.18060867368932218
0.020095091452091651263 0.23375245376763876 0.020095091452091651263 0.22279173937279426
0.025298221281360611101 0.29036467136907312 0.025298221281360611101 0.27379703303543729
0.031848573644296607199 0.35980772404903194 0.031848573644296607199 0.33499665412461699
0.040094978690191851456 0.44458564972878500 0.040094978690191851456 0.40775636916614799
0.050476587558435426217 0.54750886308596647 0.050476587558435426217 0.49331530985763444
0.063546258777947173257 0.67164763961607166 0.063546258777947173257 0.59261282658610626
0.080000000000012505552 0.82023871537307058 0.080000000000012505552 0.70605841012206072
0.100714032943542974863 0.99653221581453388 0.100714032943542974863 0.83323759000646358
0.126791455396883634421 1.20356216235413882 0.126791455396883634421 0.97261083344675170
0.159620985197506115583 1.44385410610983000 0.159620985197506115583 1.12119453212376174
0.200950914520774404082 1.71904831512934675 0.200950914520774404082 1.27440671384142479
0.252982212813464002465 2.02953630167731802 0.252982212813464002465 1.42609344360244661
0.318485736442809752589 2.37409680556194802 0.318485736442809752589 1.56890405325683591
0.400949786901833249431 2.74970642416990074 0.400949786901833249431 1.69517705844509314
0.504765875584169521062 3.15158526415840345 0.504765875584169521062 1.79803294265722702
0.635462587779443310865 3.57351247236530511 0.635462587779443310865 1.87271935253274902
0.800000000000011368684 4.00849135023175851 0.800000000000011368684 1.91771652330099585
1.007140329435344483500 4.44957122552442463 1.007140329435344483500 1.93506792705962671
1.267914553968907398485 4.89065888075624944 1.267914553968907398485 1.93009246008732838
1.596209851975117999245 5.32719761774207523 1.596209851975117999245 1.91015720540117817
2.009509145207687197399 5.75640241829102628 2.009509145207687197399 1.88311898893264118
2.529822128134725289783 6.17720960876260339 2.529822128134725289783 1.85628019886793694
3.184857364427983839050 6.59001742298657867 3.184857364427983839050 1.83500320850776322
4.009497869018204596614 6.99599483468617667 4.009497869018204596614 1.82242784549400394
5.009497869018190385759 7.38357083050795726 5.009497869018190385759 1.81964509672152364
6.009497869018190385759 7.69763595152869318 6.009497869018190385759 1.82422098677389255
7.009497869018204596614 7.96176708632476604 7.009497869018204596614 1.83257606091791692
8.009497869018190385759 8.18966394274244003 8.009497869018190385759 1.84259282004295111
9.009497869018204596614 8.38999799621732834 9.009497869018204596614 1.85334950357658745
10.009497869018190385759 8.56861564593763703 10.009497869018190385759 1.86419271983730561
11.009497869018190385759 8.72965418558370487 11.009497869018190385759 1.87429653123831397
12.009497869018204596614 8.87615219067859229 12.009497869018204596614 1.88400860298310002
13.009497869018190385759 9.01040051197407266 13.009497869018190385759 1.89326205618083065
14.009497869018204596614 9.13420154681157115 14.009497869018204596614 1.90203328777471570
15.009497869018190385759 9.24897401124407814 15.009497869018190385759 1.91038967315087715
16.009497869018190385759 9.35586704880322095 16.009497869018190385759 1.91827732723238653
17.009497869018204596614 9.45582298975376290 17.009497869018204596614 1.92558847703353209
18.009497869018190385759 9.54961564687120301 18.009497869018190385759 1.93240603215939943
19.009497869018204596614 9.63788709081045702 19.009497869018204596614 1.93852687407638169
20.009497869018190385759 9.72118800534458138 20.009497869018190385759 1.94430784698912484
21.009497869018190385759 9.79998738568866656 21.009497869018190385759 1.94978317323797912
22.009497869018204596614 9.87468667923583965 22.009497869018204596614 1.95506092894432415
23.009497869018190385759 9.94567201898135522 23.009497869018190385759 1.96025295852054859
24.009497869018204596614 10.01326759329842986 24.009497869018204596614 1.96517971850534012
25.009497869018204596614 10.07775107702756756 25.009497869018204596614 1.96993357792460144
26.009497869018190385759 10.13936592554842520 26.009497869018190385759 1.97434530406859365
27.009497869018204596614 10.19833418577537287 27.009497869018204596614 1.97840084231514179
28.009497869018190385759 10.25483280530195884 28.009497869018190385759 1.98216641870385213
29.009497869018190385759 10.30900708716553460 29.009497869018190385759 1.98574213587411519
30.009497869018190385759 10.36101251552277880 30.009497869018190385759 1.98911304161474667
31.009497869018218807469 10.41100222687911270 31.009497869018218807469 1.99221143871336515
32.009497869018190385759 10.45910878975406000 32.009497869018190385759 1.99511980085003660
33.009497869018190385759 10.50545206053403646 33.009497869018190385759 1.99809164783691773
34.009497869018218807469 10.55014493213208659 34.009497869018218807469 2.00088241212109486
35.009497869018190385759 10.59328307794305246 35.009497869018190385759 2.00358197107839908
36.009497869018190385759 10.63495533983201646 36.009497869018190385759 2.00622009807546142
37.009497869018190385759 10.67524421258696421 37.009497869018190385759 2.00876415279327558
38.009497869018218807469 10.71422260052156616 38.009497869018218807469 2.01121425623257277
39.009497869018190385759 10.75195887987259802 39.009497869018190385759 2.01352914288768181
40.009497869018190385759 10.78851652373339221 40.009497869018190385759 2.01569646944821157
41.009497869018218807469 10.82395518931259382 41.009497869018218807469 2.01785183917065680
42.009497869018190385759 10.85832958228814782 42.009497869018190385759 2.01989142428281276
43.009497869018190385759 10.89169047473122731 43.009497869018190385759 2.02185018100619418
44.009497869018218807469 10.92408753119988951 44.009497869018218807469 2.02371138557329955
46.009497869018190385759 10.98616942713224098 46.009497869018190385759 2.02723837113018490
48.009497869018218807469 11.04490176230904908 48.009497869018218807469 2.03054358215409092
50.009497869018190385759 11.10056762246747120 50.009497869018190385759 2.03364082440304328
52.009497869018190385759 11.15341923431907567 52.009497869018190385759 2.03655608959821466
54.009497869018218807469 11.20368061331067722 54.009497869018218807469 2.03930888015040557
56.009497869018190385759 11.25155239407168040 56.009497869018190385759 2.04188947338700366
58.009497869018218807469 11.29721210877302617 58.009497869018218807469 2.04427368993753023
60.009497869018190385759 11.34081968649367944 60.009497869018190385759 2.04656533803094964
62.009497869018190385759 11.38251916658831497 62.009497869018190385759 2.04873381007134148
64.009497869018218807469 11.42244063823856592 64.009497869018218807469 2.05078076290496103
66.009497869018190385759 11.46070165038421074 66.009497869018190385759 2.05266164820864283
68.009497869018190385759 11.49740858010744482 68.009497869018190385759 2.05442538241065087
70.009497869018190385759 11.53265987710105911 70.009497869018190385759 2.05613300689157041
72.009497869018190385759 11.56654536544755452 72.009497869018190385759 2.05774490660278664
74.009497869018218807469 11.59914717472103973 74.009497869018218807469 2.05928589306852583
76.009497869018190385759 11.63053910284233083 76.009497869018190385759 2.06075074298237038
78.009497869018190385759 11.66078878335650870 78.009497869018190385759 2.06211436617681576
80.009497869018218807469 11.68995986425441380 80.009497869018218807469 2.06346640765233191
82.009497869018190385759 11.71811354378596981 82.009497869018190385759 2.06479856835479225
84.009497869018218807469 11.74530549174345495 84.009497869018218807469 2.06603916225338402
86.009497869018190385759 11.77158702865983564 86.009497869018190385759 2.06723615891659884
88.009497869018190385759 11.79700430972192393 88.009497869018190385759 2.06839330559432932
91.009497869018218807469 11.83360341298257978 91.009497869018218807469 2.07008453988083074
94.009497869018218807469 11.86848963585501160 94.009497869018218807469 2.07178122499836315
97.009497869018218807469 11.90178880732449151 97.009497869018218807469 2.07362195314281506
99.504748934509137825444 11.92836136029519167 99.504748934509137825444 2.07429915566726120
nan nan nan nan

