Time Pressure difference Time.1 Pressure.1 difference.1
(hr) (psi) (hr) (psi)
0.000200000000020850166 0.78823685598502291 0.000200000000020850166 0.62928653977155369
0.000399999999999067768 1.57425371659417479 0.000399999999999067768 1.63868525825274225
0.000600000000019917934 2.35838484388554592 0.000600000000019917934 2.39358812361733264
0.000799999999998135536 3.14079720909485083 0.000799999999998135536 3.15977050552342309
0.001007140329434719206 3.94945186359783795 0.001007140329434719206 3.96163647407772368
0.001267914553977789183 4.96517920773735355 0.001267914553977789183 4.97489102512421066
0.001596209851982166583 6.24044378010242173 0.001596209851982166583 6.24427049502450338
0.002009509145224797066 7.84072453318124651 0.002009509145224797066 7.83301191144803344
0.002529822128153114136 9.84760405408560047 0.002529822128153114136 9.81921343997790075
0.003184857364431081805 12.36252105202294871 0.003184857364431081805 12.29895081516202815
0.004009497869034817086 15.51129356782818824 0.004009497869034817086 15.38986681897055497
0.005047658755856332391 19.44952264459609026 0.005047658755856332391 19.23519790264111506
0.006354625877790454069 24.36896703654321072 0.006354625877790454069 24.00815868533954855
0.008000000000009777068 30.50496166840155254 0.008000000000009777068 29.91649002791313094
0.010071403294361402914 38.14488016712591190 0.010071403294361402914 37.20675760026810508
0.012679145539692626699 47.63752281626960183 0.012679145539692626699 46.16780252659977180
0.015962098519750611558 59.40315303762362475 0.015962098519750611558 57.13254377705558795
0.020095091452091651263 73.94369287516305178 0.020095091452091651263 70.47645355492726083
0.025298221281360611101 91.85202437641680717 0.025298221281360611101 86.61112811687664248
0.031848573644296607199 113.81917670751043659 0.031848573644296607199 105.97060825475385570
0.040094978690191851456 140.63726053087233936 0.040094978690191851456 128.98693144622481555
0.050476587558435426217 173.19530368952740673 0.050476587558435426217 156.05207635163168334
0.063546258777947173257 212.46453666521733794 0.063546258777947173257 187.46319081007166574
0.080000000000012505552 259.46884696301469830 0.080000000000012505552 223.34981040194520574
0.100714032943542974863 315.23635760266427042 0.100714032943542974863 263.58082430537797336
0.126791455396883634421 380.72683069135928235 0.126791455396883634421 307.66922698032243488
0.159620985197506115583 456.73918223274284856 0.159620985197506115583 354.67120366181660529
0.200950914520774404082 543.79228368591668641 0.200950914520774404082 403.13732381183734788
0.252982212813464002465 642.00998343059166018 0.252982212813464002465 451.12089265957393991
0.318485736442809752589 751.00595615942961558 0.318485736442809752589 496.29664884691248972
0.400949786901833249431 869.82379884574527296 0.400949786901833249431 536.24100948813122614
0.504765875584169521062 996.95147189544172761 0.504765875584169521062 568.77775419390286515
0.635462587779443310865 1130.42111209155814322 0.635462587779443310865 592.40355518452633987
0.800000000000011368684 1268.01943045664643250 0.800000000000011368684 606.63766020421496705
1.007140329435344483500 1407.54769767422635596 1.007140329435344483500 612.12648759319517922
1.267914553968907398485 1547.07842594589351393 1.267914553968907398485 610.55258154095827194
1.596209851975117999245 1685.17017974574287109 1.596209851975117999245 604.24639597523946577
2.009509145207687197399 1820.94196498606152090 2.009509145207687197399 595.69330683235887136
2.529822128134725289783 1954.05730623856993589 2.529822128134725289783 587.20330290855736166
3.184857364427983839050 2084.64217813808772917 3.184857364427983839050 580.47268162462250984
4.009497869018204596614 2213.06636603906054006 4.009497869018204596614 576.49467512460330454
5.009497869018190385759 2335.66957271735009272 5.009497869018190385759 575.61439892957525899
6.009497869018190385759 2435.01883933357657952 6.009497869018190385759 577.06190548280790154
7.009497869018204596614 2518.57232164073411695 7.009497869018204596614 579.70489393703428505
8.009497869018190385759 2590.66369388752536906 8.009497869018190385759 582.87352874025350502
9.009497869018204596614 2654.03603280341485515 9.009497869018204596614 586.27622629806046461
10.009497869018190385759 2710.53874933160568617 10.009497869018190385759 589.70629704186774234
11.009497869018190385759 2761.48060737297873857 11.009497869018190385759 592.90246938172003865
12.009497869018204596614 2807.82280965132804340 12.009497869018204596614 595.97472141032073978
13.009497869018190385759 2850.29002862113156880 13.009497869018190385759 598.90189710520269273
14.009497869018204596614 2889.45242264139415056 14.009497869018204596614 601.67653003273505874
15.009497869018190385759 2925.75877889021012379 15.009497869018190385759 604.31993327339398547
16.009497869018190385759 2959.57260977141868352 16.009497869018190385759 606.81506118117818005
17.009497869018204596614 2991.19200575877403026 17.009497869018204596614 609.12782156827393010
18.009497869018190385759 3020.86174962692393819 18.009497869018190385759 611.28444150642326349
19.009497869018204596614 3048.78494972637417959 19.009497869018204596614 613.22066783282878077
20.009497869018190385759 3075.13580569066971293 20.009497869018190385759 615.04938226422643766
21.009497869018190385759 3100.06267633951483731 21.009497869018190385759 616.78141046761402322
22.009497869018204596614 3123.69255286493716994 22.009497869018204596614 618.45094052272122553
23.009497869018190385759 3146.14758200443520764 23.009497869018190385759 620.09335254533345960
24.009497869018204596614 3167.53031534673618808 24.009497869018204596614 621.65185095385595559
25.009497869018204596614 3187.92859069972064390 25.009497869018204596614 623.15565515014895936
26.009497869018190385759 3207.41942111515163560 26.009497869018190385759 624.55123118703181717
27.009497869018204596614 3226.07304743360964494 27.009497869018204596614 625.83413311902313581
28.009497869018190385759 3243.94544407718649381 28.009497869018190385759 627.02531044998522702
29.009497869018190385759 3261.08257524003010985 29.009497869018190385759 628.15642898151168083
30.009497869018190385759 3277.53362574370567017 30.009497869018190385759 629.22275883079817049
31.009497869018218807469 3293.34703776942615150 31.009497869018218807469 630.20288511299440870
32.009497869018190385759 3308.56474715886724880 32.009497869018190385759 631.12289700222822830
33.009497869018190385759 3323.22466848226667935 33.009497869018190385759 632.06299126574492675
34.009497869018218807469 3337.36251353111674689 34.009497869018218807469 632.94580303430620916
35.009497869018190385759 3351.00854698931880193 35.009497869018190385759 633.79976351780021560
36.009497869018190385759 3364.19087250019447310 36.009497869018190385759 634.63429102453756059
37.009497869018190385759 3376.93558591500959665 37.009497869018190385759 635.43906033360610763
38.009497869018218807469 3389.26574929832167982 38.009497869018218807469 636.21410972157048036
39.009497869018190385759 3401.20299233303103392 39.009497869018190385759 636.94638553346999288
40.009497869018190385759 3412.76739367432992367 40.009497869018190385759 637.63198316878424521
41.009497869018218807469 3423.97782488588381966 41.009497869018218807469 638.31379845765104619
42.009497869018190385759 3434.85159119715035558 42.009497869018190385759 638.95898721479647975
43.009497869018190385759 3445.40475350664473808 43.009497869018190385759 639.57860725829277726
44.009497869018218807469 3455.65302236956540582 44.009497869018218807469 640.16736830302056660
46.009497869018190385759 3475.29159544949925476 46.009497869018190385759 641.28307140084837101
48.009497869018218807469 3493.87059081042889375 48.009497869018218807469 642.32861982141071167
50.009497869018190385759 3511.47955790721016456 50.009497869018190385759 643.30838078616261555
52.009497869018190385759 3528.19828445626808389 52.009497869018190385759 644.23057634290194073
54.009497869018218807469 3544.09763401061127297 54.009497869018218807469 645.10137575424494116
56.009497869018190385759 3559.24107399134209118 56.009497869018190385759 645.91770341475546502
58.009497869018218807469 3573.68476374186684552 58.009497869018218807469 646.67191058357207112
60.009497869018190385759 3587.47929416083434262 60.009497869018190385759 647.39683526379042178
62.009497869018190385759 3600.67022969743675276 62.009497869018190385759 648.08279525256762099
64.009497869018218807469 3613.29872189613342925 64.009497869018218807469 648.73031466560257741
66.009497869018190385759 3625.40195540487184189 66.009497869018190385759 649.32530138333402192
68.009497869018190385759 3637.01358084065532239 68.009497869018190385759 649.88322930256936161
70.009497869018190385759 3648.16474112296828025 70.009497869018190385759 650.42340784670011544
72.009497869018190385759 3658.88385060324299047 72.009497869018190385759 650.93330545534820430
74.009497869018218807469 3669.19688960342273276 74.009497869018218807469 651.42077084067705073
76.009497869018190385759 3679.12720286579042295 76.009497869018190385759 651.88415169675658944
78.009497869018190385759 3688.69618513510840785 78.009497869018190385759 652.31551116726609507
80.009497869018218807469 3697.92397039247907742 80.009497869018218807469 652.74320695402104775
82.009497869018190385759 3706.82991768429474178 82.009497869018190385759 653.16461378956591943
84.009497869018218807469 3715.43163722151302863 84.009497869018218807469 653.55705499282032633
86.009497869018190385759 3723.74536339939459140 86.009497869018190385759 653.93570493728407200
88.009497869018190385759 3731.78569664203587308 88.009497869018190385759 654.30174900300619356
91.009497869018218807469 3743.36321297348968073 91.009497869018218807469 654.83674278230284926
94.009497869018218807469 3754.39888814213554724 94.009497869018218807469 655.37346084114881251
97.009497869018218807469 3764.93252605031420899 97.009497869018218807469 655.95574451084394241
99.504748934509137825444 3773.33831030671262852 99.504748934509137825444 656.16996624274361238
nan nan nan nan

