Time Pressure difference Time.1 Pressure.1 difference.1
(hr) (psi) (hr) (psi)
0.000200000000020850166 0.80043619284777989 0.000200000000020850166 0.64454899777476282
0.000399999999999067768 1.53561166325549969 0.000399999999999067768 1.47672513391724181
0.000600000000019917934 2.23305708887663545 0.000600000000019917934 2.07465899341562521
0.000799999999998135536 2.90226063453109573 0.000799999999998135536 2.64794361864059447
0.001007140329434719206 3.57126108726128155 0.001007140329434719206 3.21851113948750367
0.001267914553977789183 4.38442439332465650 0.001267914553977789183 3.90489399663486569
0.001596209851982166583 5.36950772216696937 0.001596209851982166583 4.72126869996645304
0.002009509145224797066 6.55861321376413375 0.002009509145224797066 5.68741142477965766
0.002529822128153114136 7.98860325825876849 0.002529822128153114136 6.82486828949629309
0.003184857364431081805 9.70149934156034277 0.003184857364431081805 8.15686991110207593
0.004009497869034817086 11.74485754536506121 0.004009497869034817086 9.70822650485846594
0.005047658755856332391 14.17211846993201441 0.005047658755856332391 11.50522882601525509
0.006354625877790454069 17.04293624597214674 0.006354625877790454069 13.57558925094985192
0.008000000000009777068 20.42350009407364908 0.008000000000009777068 15.94846399024426198
0.010071403294361402914 24.38687183016485349 0.010071403294361402914 18.65459956507883632
0.012679145539692626699 29.01337243635521546 0.012679145539692626699 21.72663980976421527
0.015962098519750611558 34.39105750673576978 0.015962098519750611558 25.19960572258503717
0.020095091452091651263 40.61631995802272854 0.020095091452091651263 29.11151955980173867
0.025298221281360611101 47.79464607521188668 0.025298221281360611101 33.50413067993048344
0.031848573644296607199 56.04154291848448821 0.031848573644296607199 38.42380727248779237
0.040094978690191851456 65.48369156429120608 0.040094978690191851456 43.92287403263321011
0.050476587558435426217 76.26047152598478363 0.050476587558435426217 50.06162754289437089
0.063546258777947173257 88.52601514716003805 0.063546258777947173257 56.91034986328947554
0.080000000000012505552 102.45162114776886142 0.080000000000012505552 64.54893340280382574
0.100714032943542974863 118.22758321164533868 0.100714032943542974863 73.06076788055801785
0.126791455396883634421 136.06271720221309351 0.126791455396883634421 82.51908561155030952
0.159620985197506115583 156.17981027916735570 0.159620985197506115583 92.96858059044618017
0.200950914520774404082 178.80657066698617541 0.200950914520774404082 104.40962224067776276
0.252982212813464002465 204.16366929090392546 0.252982212813464002465 116.79427879087936049
0.318485736442809752589 232.45368461116322578 0.318485736442809752589 130.03129623507166457
0.400949786901833249431 263.85121936536825160 0.400949786901833249431 144.01763542285195285
0.504765875584169521062 298.50604373848420892 0.504765875584169521062 158.65694795943326767
0.635462587779443310865 336.54131592294731945 0.635462587779443310865 173.88277094308304527
0.800000000000011368684 378.06680335508644930 0.800000000000011368684 189.68955414547141913
1.007140329435344483500 423.19054276736596876 1.007140329435344483500 206.17124904232966287
1.267914553968907398485 472.04847826019778267 1.267914553968907398485 223.37095962269597749
1.596209851975117999245 524.74622268166729100 1.596209851975117999245 241.58388254689245400
2.009509145207687197399 581.52372932382309045 2.009509145207687197399 260.97028239699159258
2.529822128134725289783 642.51982541668030535 2.529822128134725289783 281.86822999489220365
3.184857364427983839050 708.07169708013486797 3.184857364427983839050 304.73758429226990074
4.009497869018204596614 778.45231990194508853 4.009497869018204596614 329.74958731389773448
5.009497869018190385759 851.40769798534404345 5.009497869018190385759 356.15318739367802436
6.009497869018190385759 914.78183326682062670 6.009497869018190385759 379.35080721037553531
7.009497869018204596614 971.06752469178695719 7.009497869018204596614 400.04002222747737960
8.009497869018190385759 1021.82717743273997257 8.009497869018190385759 418.60851823097044644
9.009497869018204596614 1068.11538088202860308 9.009497869018204596614 435.39834394499530390
10.009497869018190385759 1110.68568697440855431 10.009497869018190385759 450.62986338619094795
11.009497869018190385759 1150.10039411723982994 11.009497869018190385759 464.38140921993601751
12.009497869018204596614 1186.79392010811102409 12.009497869018204596614 476.95596671675042444
13.009497869018190385759 1221.10938147376191409 13.009497869018190385759 488.48349902548028467
14.009497869018204596614 1253.32751931886082275 14.009497869018204596614 499.05944948079832102
15.009497869018190385759 1283.67481716159136340 15.009497869018190385759 508.79709819416746086
16.009497869018190385759 1312.33919343365278110 16.009497869018190385759 517.79497326214016084
17.009497869018204596614 1339.48512709154010736 17.009497869018204596614 526.14486086955412247
18.009497869018190385759 1365.25499557594071121 18.009497869018190385759 533.94153689088489045
19.009497869018204596614 1389.76981934848186029 19.009497869018204596614 541.20933677409345819
20.009497869018190385759 1413.13880605893382381 20.009497869018190385759 547.98438750519733276
21.009497869018190385759 1435.45142851133368822 21.009497869018190385759 554.30020328642422101
22.009497869018204596614 1456.78424963113388912 22.009497869018204596614 560.21180163373821870
23.009497869018190385759 1477.20726570379792975 23.009497869018190385759 565.73946262911726990
24.009497869018204596614 1496.78518014932183178 24.009497869018204596614 570.94190257366778951
25.009497869018204596614 1515.57865852678628471 25.009497869018204596614 575.84647408537364299
26.009497869018190385759 1533.64109991929035459 26.009497869018190385759 580.48193290164340397
27.009497869018204596614 1551.02121372173269265 27.009497869018204596614 584.87967474819072322
28.009497869018190385759 1567.76130447412970170 28.009497869018190385759 589.05009992802979468
29.009497869018190385759 1583.89931757103249765 29.009497869018190385759 592.97573254694782463
30.009497869018190385759 1599.47046600034968833 30.009497869018190385759 596.73566146047562597
31.009497869018218807469 1614.50700624542355399 31.009497869018218807469 600.30293426850937522
32.009497869018190385759 1629.03864958147164543 32.009497869018190385759 603.69201436293485585
33.009497869018190385759 1643.09289340287045889 33.009497869018190385759 606.89789175064811388
34.009497869018218807469 1656.69617664827228509 34.009497869018218807469 609.98719459017900135
35.009497869018190385759 1669.87205397619482028 35.009497869018190385759 612.93163966096665263
36.009497869018190385759 1682.64229962512581551 36.009497869018190385759 615.76959212353176554
37.009497869018190385759 1695.02708399006110085 37.009497869018190385759 618.49849540591003461
38.009497869018218807469 1707.04561683859083132 38.009497869018218807469 621.13043748176949066
39.009497869018190385759 1718.71547325297069619 39.009497869018190385759 623.68378948893894176
40.009497869018190385759 1730.05311126481433348 40.009497869018190385759 626.15056552331645889
41.009497869018218807469 1741.07433590899631781 41.009497869018218807469 628.52868039833799685
42.009497869018190385759 1751.79361768960393420 42.009497869018190385759 630.80953382054701706
43.009497869018190385759 1762.22455681411133810 43.009497869018190385759 633.04062223180119418
44.009497869018218807469 1772.38030666755184939 44.009497869018218807469 635.14583027312528429
46.009497869018190385759 1791.91528576703240105 46.009497869018190385759 639.18871794698509348
48.009497869018218807469 1810.48277836952502184 48.009497869018218807469 642.93851576854001451
50.009497869018190385759 1828.14999880664777265 50.009497869018190385759 646.27825065588774578
52.009497869018190385759 1844.98375330829026097 52.009497869018190385759 649.30829222716965887
54.009497869018218807469 1861.04747147761668202 54.009497869018218807469 652.07164911407642194
56.009497869018190385759 1876.39139755046608116 56.009497869018190385759 654.59739580409689097
58.009497869018218807469 1891.05932378699185392 58.009497869018218807469 656.98562324288764103
60.009497869018190385759 1905.09445810345869177 60.009497869018190385759 659.39848918066934402
62.009497869018190385759 1918.53319456210124372 62.009497869018190385759 661.75514301244027138
64.009497869018218807469 1931.41350696650533791 64.009497869018218807469 664.05516300668602980
66.009497869018190385759 1943.78612074715533709 66.009497869018190385759 666.52953336081179714
68.009497869018190385759 1955.69486159792177205 68.009497869018190385759 669.05480562918592113
70.009497869018190385759 1967.16619921101664659 70.009497869018190385759 671.22751802584230063
72.009497869018190385759 1978.22763443671487948 72.009497869018190385759 673.01102036902193504
74.009497869018218807469 1988.90463769269013028 74.009497869018218807469 674.69695339762358799
76.009497869018190385759 1999.21768488891075322 76.009497869018190385759 676.29010594389194466
78.009497869018190385759 2009.19300152631740275 78.009497869018190385759 678.08811055295257120
80.009497869018218807469 2018.84685846203637993 80.009497869018218807469 679.42182699093461906
82.009497869018190385759 2028.17915387590096543 82.009497869018190385759 680.93829966323312419
84.009497869018218807469 2037.19442822195173903 84.009497869018218807469 682.26000542915130609
86.009497869018190385759 2045.90012682301835412 86.009497869018190385759 683.00673825760804903
88.009497869018190385759 2054.31722283854742273 88.009497869018190385759 683.90963355567089366
91.009497869018218807469 2066.42119325754720194 91.009497869018218807469 684.97258797593246982
94.009497869018218807469 2077.94043693008234186 94.009497869018218807469 686.50883460492889299
97.009497869018218807469 2088.95383132759434375 97.009497869018218807469 688.90015927512251892
99.504748934509137825444 2097.78596050870191903 99.504748934509137825444 689.39400482294161066
nan nan nan nan

