Time Pressure difference Time.1 Pressure.1 difference.1
(hr) (psi) (hr) (psi)
0.000200000000020850166 0.25434421081144409 0.000200000000020850166 0.20480996190973771
0.000399999999999067768 0.48795136963258867 0.000399999999999067768 0.46923976217931052
0.000600000000019917934 0.70956954225986557 0.000600000000019917934 0.65923743716010530
0.000799999999998135536 0.92221365957062862 0.000799999999998135536 0.84140264517551588
0.001007140329434719206 1.13479324268115489 0.001007140329434719206 1.02270447422967403
0.001267914553977789183 1.39318158292559180 0.001267914553977789183 1.24080743818304140
0.001596209851982166583 1.70619871545492474 0.001596209851982166583 1.50021622241924701
0.002009509145224797066 2.08404532026150013 0.002009509145224797066 1.80721484525708753
0.002529822128153114136 2.53843468019437468 0.002529822128153114136 2.16864973684928941
0.003184857364431081805 3.08271941694440788 0.003184857364431081805 2.59190258857449152
0.004009497869034817086 3.73201080880758962 0.004009497869034817086 3.08485702023539998
0.005047658755856332391 4.50328998109989165 0.005047658755856332391 3.65586710359363298
0.006354625877790454069 5.41551245199114906 0.006354625877790454069 4.31373864048873834
0.008000000000009777068 6.48971031026639267 0.008000000000009777068 5.06773622119911149
0.010071403294361402914 7.74909946005238304 0.010071403294361402914 5.92762976834280764
0.012679145539692626699 9.21920245641193681 0.012679145539692626699 6.90379208908395636
0.015962098519750611558 10.92799958157958962 0.015962098519750611558 8.00735135110178753
0.020095091452091651263 12.90612036049320466 0.020095091452091651263 9.25038939283419914
0.025298221281360611101 15.18708379960003718 0.025298221281360611101 10.64617236558538771
0.031848573644296607199 17.80759307690161464 0.031848573644296607199 12.20943408658490448
0.040094978690191851456 20.80790199239159932 0.040094978690191851456 13.95680109448158035
0.050476587558435426217 24.23229936339703272 0.050476587558435426217 15.90743305101316452
0.063546258777947173257 28.12976182246206847 0.063546258777947173257 18.08366257338170158
0.080000000000012505552 32.55472073854337367 0.080000000000012505552 20.51087603453579433
0.100714032943542974863 37.56764326351347449 0.100714032943542974863 23.21557110223338682
0.126791455396883634421 43.23488210163780110 0.126791455396883634421 26.22101785787580042
0.159620985197506115583 49.62722943450177837 0.159620985197506115583 29.54141813154364371
0.200950914520774404082 56.81704114651897441 0.200950914520774404082 33.17688931012190778
0.252982212813464002465 64.87443697094143147 0.252982212813464002465 37.11220073728877367
0.318485736442809752589 73.86378763345373955 0.318485736442809752589 41.31835581301343296
0.400949786901833249431 83.84057437778055544 0.400949786901833249431 45.76261312501837608
0.504765875584169521062 94.85238772998562240 0.504765875584169521062 50.41435729552085121
0.635462587779443310865 106.93836206897390184 0.635462587779443310865 55.25246927163387056
0.800000000000011368684 120.13337676703680756 0.800000000000011368684 60.27518542940212853
1.007140329435344483500 134.47176125318171103 1.007140329435344483500 65.51235950877764935
1.267914553968907398485 149.99671271819366325 1.267914553968907398485 70.97768810440807385
1.596209851975117999245 166.74179038482887449 1.596209851975117999245 76.76497202424620525
2.009509145207687197399 184.78324109355128257 2.009509145207687197399 82.92513646259546078
2.529822128134725289783 204.16517816978623046 2.529822128134725289783 89.56560579276948886
3.184857364427983839050 224.99474486658493788 3.184857364427983839050 96.83250341997361943
4.009497869018204596614 247.35868109033768292 4.009497869018204596614 104.78024269787405842
5.009497869018190385759 270.54076384581026105 5.009497869018190385759 113.17017169518742037
6.009497869018190385759 290.67833954272805386 6.009497869018190385759 120.54137799208196213
7.009497869018204596614 308.56351251888554543 7.009497869018204596614 127.11552108162833008
8.009497869018190385759 324.69274796928186788 8.009497869018190385759 133.01579083974763762
9.009497869018204596614 339.40114906531744055 9.009497869018204596614 138.35087564607326271
10.009497869018190385759 352.92816221616720895 10.009497869018190385759 143.19079771149992553
11.009497869018190385759 365.45246168211355098 11.009497869018190385759 147.56044778951235230
12.009497869018204596614 377.11208676332506684 12.009497869018204596614 151.55610157354686862
13.009497869018190385759 388.01606514119532676 13.009497869018190385759 155.21905576510587821
14.009497869018204596614 398.25360426954460991 14.009497869018204596614 158.57963815277705066
15.009497869018190385759 407.89667087377671351 15.009497869018190385759 161.67384428599714852
16.009497869018190385759 417.00497735274944944 16.009497869018190385759 164.53298215806324833
17.009497869018204596614 425.63078804777910591 17.009497869018204596614 167.18621747256861454
18.009497869018190385759 433.81934438861668468 18.009497869018190385759 169.66366592794474855
19.009497869018204596614 441.60910147521855151 19.009497869018204596614 171.97306028335680139
20.009497869018190385759 449.03476080377333801 20.009497869018190385759 174.12588014183839391
21.009497869018190385759 456.12475298490971909 21.009497869018190385759 176.13277487605998317
22.009497869018204596614 462.90340642484630962 22.009497869018204596614 178.01122668735609977
23.009497869018190385759 469.39296293391714698 23.009497869018190385759 179.76767971392507661
24.009497869018204596614 475.61398247735456835 24.009497869018204596614 181.42079147200661282
25.009497869018204596614 481.58574196178261673 25.009497869018204596614 182.97925344768881928
26.009497869018190385759 487.32520932014824666 26.009497869018190385759 184.45220297809231624
27.009497869018204596614 492.84786230410196595 27.009497869018204596614 185.84961627512603854
28.009497869018190385759 498.16714347776076011 28.009497869018190385759 187.17479810797209439
29.009497869018190385759 503.29511025621593490 29.009497869018190385759 188.42219538874979889
30.009497869018190385759 508.24295181319519088 30.009497869018190385759 189.61693915566516466
31.009497869018218807469 513.02091787237759490 31.009497869018218807469 190.75046509466656630
32.009497869018190385759 517.63844939972000248 32.009497869018190385759 191.82736904990451876
33.009497869018190385759 522.10428388502430153 33.009497869018190385759 192.84605906095359273
34.009497869018218807469 526.42682248636697295 34.009497869018218807469 193.82770669220639093
35.009497869018190385759 530.61354986159460623 35.009497869018190385759 194.76332475208283768
36.009497869018190385759 534.67138492761000634 36.009497869018190385759 195.66510403925309447
37.009497869018190385759 538.60673696880451189 37.009497869018190385759 196.53223218505553405
38.009497869018218807469 542.42571002347744979 38.009497869018218807469 197.36855022785198344
39.009497869018190385759 546.13388869720563434 39.009497869018190385759 198.17989572545724286
40.009497869018190385759 549.73650264489424444 40.009497869018190385759 198.96373110086688030
41.009497869018218807469 553.23857402715759690 41.009497869018218807469 199.71939377143453953
42.009497869018190385759 556.64470094809837519 42.009497869018190385759 200.44415093363178926
43.009497869018190385759 559.95920496896997065 43.009497869018190385759 201.15309491477796655
44.009497869018218807469 563.18626567006322148 44.009497869018218807469 201.82203952603981634
46.009497869018190385759 569.39364220634672620 46.009497869018190385759 203.10669542240648866
48.009497869018218807469 575.29359312676490390 48.009497869018218807469 204.29821996383515170
50.009497869018190385759 580.90747625631797746 50.009497869018190385759 205.35944413364657635
52.009497869018190385759 586.25651974282118317 52.009497869018190385759 206.32226108153054156
54.009497869018218807469 591.36087878728005762 54.009497869018218807469 207.20033710166913465
56.009497869018190385759 596.23651884781168064 56.009497869018190385759 208.00291081625510969
58.009497869018218807469 600.89735522203477558 58.009497869018218807469 208.76178682484282945
60.009497869018190385759 605.35711752820179754 60.009497869018190385759 209.52849188918463597
62.009497869018190385759 609.62737023468639563 62.009497869018190385759 210.27733516283146287
64.009497869018218807469 613.72017978374935865 64.009497869018218807469 211.00818263763858340
66.009497869018190385759 617.65166453647918843 66.009497869018190385759 211.79443116137943548
68.009497869018190385759 621.43575041429289740 68.009497869018190385759 212.59685412516185465
70.009497869018190385759 625.08084834742578551 70.009497869018190385759 213.28724871849192368
72.009497869018190385759 628.59569692381592176 72.009497869018190385759 213.85396908922189141
74.009497869018218807469 631.98838954721009031 74.009497869018218807469 214.38968612634769784
76.009497869018190385759 635.26543258152310045 76.009497869018190385759 214.89592151488156446
78.009497869018190385759 638.43515936350263473 78.009497869018190385759 215.46725008224663611
80.009497869018218807469 641.50274007204893678 80.009497869018218807469 215.89104782889509693
82.009497869018190385759 644.46814235309011565 82.009497869018190385759 216.37291764999932298
84.009497869018218807469 647.33280896772294000 84.009497869018218807469 216.79289892141261475
86.009497869018190385759 650.09910571946375057 86.009497869018190385759 217.03017851176332442
88.009497869018190385759 652.77369697673475457 88.009497869018190385759 217.31707982142810920
91.009497869018218807469 656.61981841828605866 91.009497869018218807469 217.65484103908133307
94.009497869018218807469 660.28013883759626879 94.009497869018218807469 218.14299417352881960
97.009497869018218807469 663.77972210409541276 97.009497869018218807469 218.90285434910433082
99.504748934509137825444 666.58619305883996731 99.504748934509137825444 219.05977723345807817
nan nan nan nan

