Time Pressure difference Time.1 Pressure.1 difference.1
(hr) (psi) (hr) (psi)
0.000200000000020850166 0.28426705914220218 0.000200000000020850166 0.22890525154617744
0.000399999999999067768 0.54535741311877561 0.000399999999999067768 0.52444444008275881
0.000600000000019917934 0.79304831193749670 0.000600000000019917934 0.73679478270835297
0.000799999999998135536 1.03070938422599645 0.000799999999998135536 0.94039119166675311
0.001007140329434719206 1.26829833005540848 0.001007140329434719206 1.14302264766845907
0.001267914553977789183 1.55708529856389677 0.001267914553977789183 1.38678478385163451
0.001596209851982166583 1.90692797609668063 0.001596209851982166583 1.67671224858621715
0.002009509145224797066 2.32922712264520593 0.002009509145224797066 2.01982835646380332
0.002529822128153114136 2.83707405433488935 0.002529822128153114136 2.42378500000802921
0.003184857364431081805 3.44539228952610355 0.003184857364431081805 2.89683230487737253
0.004009497869034817086 4.17107090396142421 0.004009497869034817086 3.44778137555721198
0.005047658755856332391 5.03308880240576162 0.005047658755856332391 4.08596911578111843
0.006354625877790454069 6.05263156399010782 0.006354625877790454069 4.82123730407564910
0.008000000000009777068 7.25320564088596953 0.008000000000009777068 5.66394048251665438
0.010071403294361402914 8.66075822005854690 0.010071403294361402914 6.62499797638313837
0.012679145539692626699 10.30381451010745941 0.012679145539692626699 7.71600292309383295
0.015962098519750611558 12.21364659117718787 0.015962098519750611558 8.94939268652552578
0.020095091452091651263 14.42448746172769880 0.020095091452091651263 10.33867049787351533
0.025298221281360611101 16.97379954072945552 0.025298221281360611101 11.89866323212484467
0.031848573644296607199 19.90260402712533505 0.031848573644296607199 13.64583809677136372
0.040094978690191851456 23.25589046208472865 0.040094978690191851456 15.59877769383235346
0.050476587558435426217 27.08315811203197754 0.050476587558435426217 17.77889576289706497
0.063546258777947173257 31.43914556628113743 0.063546258777947173257 20.21115228789719609
0.080000000000012505552 36.38468788425436173 0.080000000000012505552 22.92392027389294640
0.100714032943542974863 41.98736600039740807 0.100714032943542974863 25.94681476131966846
0.126791455396883634421 48.32133881947754617 0.126791455396883634421 29.30584348821412988
0.159620985197506115583 55.46572701503139768 0.159620985197506115583 33.01687908819583583
0.200950914520774404082 63.50139892846237899 0.200950914520774404082 37.08005275837154358
0.252982212813464002465 72.50672367340513347 0.252982212813464002465 41.47834200049921094
0.318485736442809752589 82.55364500209535095 0.318485736442809752589 46.17933884983853687
0.400949786901833249431 93.70417136340179809 0.400949786901833249431 51.14644996325583293
0.504765875584169521062 106.01149216880746451 0.504765875584169521062 56.34545815381741818
0.635462587779443310865 119.51934584179437593 0.635462587779443310865 61.75275977417903306
0.800000000000011368684 134.26671521021762601 0.800000000000011368684 67.36638371521414115
1.007140329435344483500 150.29196845943835115 1.007140329435344483500 73.21969592157502404
1.267914553968907398485 167.64338480268705212 1.267914553968907398485 79.32800435198548428
1.596209851975117999245 186.35847160657345967 1.596209851975117999245 85.79614520356928153
2.009509145207687197399 206.52244592808671086 2.009509145207687197399 92.68103486995963181
2.529822128134725289783 228.18461089564343069 2.529822128134725289783 100.10273588603649841
3.184857364427983839050 251.46471485088906661 3.184857364427983839050 108.22456264585287045
4.009497869018204596614 276.45970239508329769 4.009497869018204596614 117.10733007409453421
5.009497869018190385759 302.36908900414090340 5.009497869018190385759 126.48430954168006224
6.009497869018190385759 324.87579125363720323 6.009497869018190385759 134.72271657938571821
7.009497869018204596614 344.86510222698973394 7.009497869018204596614 142.07028826770223873
8.009497869018190385759 362.89189478919740850 8.009497869018190385759 148.66470740912970427
9.009497869018204596614 379.33069601417838612 9.009497869018204596614 154.62744925149365827
10.009497869018190385759 394.44912247689279639 10.009497869018190385759 160.03677391285285125
11.009497869018190385759 408.44686893883277889 11.009497869018190385759 164.92050047063148099
12.009497869018204596614 421.47821461783388486 12.009497869018204596614 169.38623117043474053
13.009497869018190385759 433.66501398133601697 13.009497869018190385759 173.48012114923596982
14.009497869018204596614 445.10696947772635212 14.009497869018204596614 177.23606617075080294
15.009497869018190385759 455.88451450598580550 15.009497869018190385759 180.69429655493800624
16.009497869018190385759 466.06438645307292745 16.009497869018190385759 183.88980358842360374
17.009497869018204596614 475.70499840634136035 17.009497869018204596614 186.85518423404727173
18.009497869018190385759 484.85691431668914220 18.009497869018190385759 189.62409721358531556
19.009497869018204596614 493.56311341347947064 19.009497869018204596614 192.20518502257525029
20.009497869018190385759 501.86237972186427214 20.009497869018190385759 194.61127780558408062
21.009497869018190385759 509.78648863019327564 21.009497869018190385759 196.85427780265530373
22.009497869018204596614 517.36263071012228920 22.009497869018204596614 198.95372394469208643
23.009497869018190385759 524.61566445555433802 23.009497869018190385759 200.91681850379862340
24.009497869018204596614 531.56856865116094468 24.009497869018204596614 202.76441399812500777
25.009497869018204596614 538.24288807493348941 25.009497869018204596614 204.50622444153458446
26.009497869018190385759 544.65758688722451097 26.009497869018190385759 206.15246215198550317
27.009497869018204596614 550.82996375164350411 27.009497869018204596614 207.71427701337617577
28.009497869018190385759 556.77504271043858353 28.009497869018190385759 209.19536259126292066
29.009497869018190385759 562.50629969812359832 29.009497869018190385759 210.58951249330860378
30.009497869018190385759 568.03624026180636974 30.009497869018190385759 211.92481435044928162
31.009497869018218807469 573.37631997501023307 31.009497869018218807469 213.19169628227436419
32.009497869018190385759 578.53709050556938109 32.009497869018190385759 214.39529482048155273
33.009497869018190385759 583.52831728326236771 33.009497869018190385759 215.53383071518345560
34.009497869018218807469 588.35938983770415689 34.009497869018218807469 216.63096630305423673
35.009497869018190385759 593.03867337472343024 35.009497869018190385759 217.67665707585729251
36.009497869018190385759 597.57390080144659805 36.009497869018190385759 218.68452804387109722
37.009497869018190385759 601.97223543572272320 37.009497869018190385759 219.65367126565030276
38.009497869018218807469 606.24049943800423534 38.009497869018218807469 220.58837966642281003
39.009497869018190385759 610.38493442628862340 39.009497869018190385759 221.49517757551103614
40.009497869018190385759 614.41138530899945636 40.009497869018190385759 222.37122887743944943
41.009497869018218807469 618.32546508917630490 41.009497869018218807469 223.21579303866209898
42.009497869018190385759 622.13231282434537661 42.009497869018190385759 224.02581574935314279
43.009497869018190385759 625.83675849473115704 43.009497869018190385759 224.81816490475185333
44.009497869018218807469 629.44347339595299218 44.009497869018218807469 225.56580888204447888
46.009497869018190385759 636.38112952474045869 46.009497869018190385759 227.00160076621901339
48.009497869018218807469 642.97519231814908380 48.009497869018218807469 228.33330466546277648
50.009497869018190385759 649.24953228647314063 50.009497869018190385759 229.51937873760496700
52.009497869018190385759 655.22787500668255234 52.009497869018190385759 230.59546826759293481
54.009497869018218807469 660.93274687990117400 54.009497869018218807469 231.57684734892430356
56.009497869018190385759 666.38199165343655750 56.009497869018190385759 232.47384150052042173
58.009497869018218807469 671.59116171874484280 58.009497869018218807469 233.32199703953020276
60.009497869018190385759 676.57560194328436864 60.009497869018190385759 234.17890269967696781
62.009497869018190385759 681.34823732112010930 62.009497869018190385759 235.01584518198811224
64.009497869018218807469 685.92255387595514549 64.009497869018218807469 235.83267471265489235
66.009497869018190385759 690.31656624665322397 66.009497869018190385759 236.71142306271821099
68.009497869018190385759 694.54583869832742948 68.009497869018190385759 237.60824872812207786
70.009497869018190385759 698.61977168241708114 70.009497869018190385759 238.37986621478509619
72.009497869018190385759 702.54813185602949943 72.009497869018190385759 239.01325957030684322
74.009497869018218807469 706.33996478805829611 74.009497869018218807469 239.61200214121214458
76.009497869018190385759 710.00254229699646658 76.009497869018190385759 240.17779463427939390
78.009497869018190385759 713.54517811214998346 78.009497869018190385759 240.81633832721681188
80.009497869018218807469 716.97365066876068340 80.009497869018218807469 241.28999463229450839
82.009497869018190385759 720.28792380639481507 82.009497869018190385759 241.82855502058748698
84.009497869018218807469 723.48961002274927523 84.009497869018218807469 242.29794585334349222
86.009497869018190385759 726.58135345116545523 86.009497869018190385759 242.56314068961782482
88.009497869018190385759 729.57060250340941820 88.009497869018190385759 242.88379509453730520
91.009497869018218807469 733.86920882043739311 91.009497869018218807469 243.26129292603209819
94.009497869018218807469 737.96015517143098350 94.009497869018218807469 243.80687584100280674
97.009497869018218807469 741.87145411634185166 97.009497869018218807469 244.65613133135187240
99.504748934509137825444 745.00809812458578563 99.504748934509137825444 244.83151573151198477
nan nan nan nan

