Time Pressure difference Time.1 Pressure.1 difference.1
(hr) (psi) (hr) (psi)
0.000200000000020850166 0.31418990747296033 0.000200000000020850166 0.25300054118261717
0.000399999999999067768 0.60276345660496244 0.000399999999999067768 0.57964911798620711
0.000600000000019917934 0.87652708161512805 0.000600000000019917934 0.81435212825660053
0.000799999999998135536 1.13920510888136461 0.000799999999998135536 1.03937973815799012
0.001007140329434719206 1.40180341742966186 0.001007140329434719206 1.26334082110724433
0.001267914553977789183 1.72098901420220174 0.001267914553977789183 1.53276212952022783
0.001596209851982166583 2.10765723673843652 0.001596209851982166583 1.85320827475318750
0.002009509145224797066 2.57440892502891217 0.002009509145224797066 2.23244186767052000
0.002529822128153114136 3.13571342847540446 0.002529822128153114136 2.67892026316676901
0.003184857364431081805 3.80806516210779789 0.003184857364431081805 3.20176202118025399
0.004009497869034817086 4.61013099911525703 0.004009497869034817086 3.81070573087902353
0.005047658755856332391 5.56288762371163159 0.005047658755856332391 4.51607112796860477
0.006354625877790454069 6.68975067598906659 0.006354625877790454069 5.32873596766255897
0.008000000000009777068 8.01670097150554462 0.008000000000009777068 6.26014474383419728
0.010071403294361402914 9.57241698006470898 0.010071403294361402914 7.32236618442346821
0.012679145539692626699 11.38842656380298202 0.012679145539692626699 8.52821375710371044
0.015962098519750611558 13.49929360077478790 0.015962098519750611558 9.89143402194926580
0.020095091452091651263 15.94285456296219294 0.020095091452091651263 11.42695160291283329
0.025298221281360611101 18.76051528185887207 0.025298221281360611101 13.15115409866430340
0.031848573644296607199 21.99761497734905191 0.031848573644296607199 15.08224210695782297
0.040094978690191851456 25.70387893177785799 0.040094978690191851456 17.24075429318312658
0.050476587558435426217 29.93401686066692235 0.050476587558435426217 19.65035847478096542
0.063546258777947173257 34.74852931010020285 0.063546258777947173257 22.33864200241269415
0.080000000000012505552 40.21465502996534980 0.080000000000012505552 25.33696451325009846
0.100714032943542974863 46.40708873728134876 0.100714032943542974863 28.67805842040594655
0.126791455396883634421 53.40779553731728413 0.126791455396883634421 32.39066911855245934
0.159620985197506115583 61.30422459556101700 0.159620985197506115583 36.49234004484803506
0.200950914520774404082 70.18575671040578356 0.200950914520774404082 40.98321620662117226
0.252982212813464002465 80.13901037586882126 0.252982212813464002465 45.84448326370965532
0.318485736442809752589 91.24350237073697656 0.318485736442809752589 51.04032188666364789
0.400949786901833249431 103.56776834902304074 0.400949786901833249431 56.53028680149328977
0.504765875584169521062 117.17059660762930662 0.504765875584169521062 62.27655901211398515
0.635462587779443310865 132.10032961461482159 0.635462587779443310865 68.25305027672418134
0.800000000000011368684 148.40005365339843024 0.800000000000011368684 74.45758200102616797
1.007140329435344483500 166.11217566569504811 1.007140329435344483500 80.92703233437238453
1.267914553968907398485 185.29005688718041256 1.267914553968907398485 87.67832059956290891
1.596209851975117999245 205.97515282831801642 1.596209851975117999245 94.82731838289237203
2.009509145207687197399 228.26165076262216758 2.009509145207687197399 102.43693327732380283
2.529822128134725289783 252.20404362150065936 2.529822128134725289783 110.63986597930347955
3.184857364427983839050 277.93468483519313850 3.184857364427983839050 119.61662187173212146
4.009497869018204596614 305.56072369982894088 4.009497869018204596614 129.43441745031501000
5.009497869018190385759 334.19741416247154575 5.009497869018190385759 139.79844738817268990
6.009497869018190385759 359.07324296454640944 6.009497869018190385759 148.90405516668946007
7.009497869018204596614 381.16669193509386560 7.009497869018204596614 157.02505545377616158
8.009497869018190385759 401.09104160911294912 8.009497869018190385759 164.31362397851179935
9.009497869018204596614 419.26024296303921801 9.009497869018204596614 170.90402285691405382
10.009497869018190385759 435.97008273761827013 10.009497869018190385759 176.88275011420580540
11.009497869018190385759 451.44127619555206365 11.009497869018190385759 182.28055315175058126
12.009497869018204596614 465.84434247234275972 12.009497869018204596614 187.21636076732261245
13.009497869018190385759 479.31396282147659349 13.009497869018190385759 191.74118653336608986
14.009497869018204596614 491.96033468590803750 14.009497869018204596614 195.89249418872458364
15.009497869018190385759 503.87235813819484065 15.009497869018190385759 199.71474882387883554
16.009497869018190385759 515.12379555339634862 16.009497869018190385759 203.24662501878398757
17.009497869018204596614 525.77920876490361479 17.009497869018204596614 206.52415099552592892
18.009497869018190385759 535.89448424476177024 18.009497869018190385759 209.58452849922588257
19.009497869018204596614 545.51712535174044660 19.009497869018204596614 212.43730976179369918
20.009497869018190385759 554.68999863995531996 20.009497869018190385759 215.09667546932979576
21.009497869018190385759 563.44822427547671850 21.009497869018190385759 217.57578072925056745
22.009497869018204596614 571.82185499539832563 22.009497869018204596614 219.89622120202810152
23.009497869018190385759 579.83836597719175643 23.009497869018190385759 222.06595729367217018
24.009497869018204596614 587.52315482496737786 24.009497869018204596614 224.10803652424343113
25.009497869018204596614 594.90003418808441893 25.009497869018204596614 226.03319543538029279
26.009497869018190385759 601.98996445430077529 26.009497869018190385759 227.85272132587874694
27.009497869018204596614 608.81206519918487174 27.009497869018204596614 229.57893775162628458
28.009497869018190385759 615.38294194311629326 28.009497869018190385759 231.21592707455374693
29.009497869018190385759 621.71748914003148911 29.009497869018190385759 232.75682959786740867
30.009497869018190385759 627.82952871041754861 30.009497869018190385759 234.23268954523342700
31.009497869018218807469 633.73172207764287123 31.009497869018218807469 235.63292746988221893
32.009497869018190385759 639.43573161141875971 32.009497869018190385759 236.96322059105852986
33.009497869018190385759 644.95235068150054758 33.009497869018190385759 238.22160236941329003
34.009497869018218807469 650.29195718904145451 34.009497869018218807469 239.43422591390202570
35.009497869018190385759 655.46379688785214057 35.009497869018190385759 240.58998939963177577
36.009497869018190385759 660.47641667528296239 36.009497869018190385759 241.70395204848912840
37.009497869018190385759 665.33773390264082082 37.009497869018190385759 242.77511034624509989
38.009497869018218807469 670.05528885253102089 38.009497869018218807469 243.80820910499363663
39.009497869018190385759 674.63598015537172614 39.009497869018190385759 244.81045942556482942
40.009497869018190385759 679.08626797310466827 40.009497869018190385759 245.77872665401201857
41.009497869018218807469 683.41235615119478553 41.009497869018218807469 246.71219230588968685
42.009497869018190385759 687.61992470059215066 42.009497869018190385759 247.60748056507452475
43.009497869018190385759 691.71431202049234344 43.009497869018190385759 248.48323489472574011
44.009497869018218807469 695.70068112184276288 44.009497869018218807469 249.30957823804916984
46.009497869018190385759 703.36861684313419119 46.009497869018190385759 250.89650611003156655
48.009497869018218807469 710.65679150953315002 48.009497869018218807469 252.36838936709045811
50.009497869018190385759 717.59158831662807643 50.009497869018190385759 253.67931334156341450
52.009497869018190385759 724.19923027054392151 52.009497869018190385759 254.86867545365535648
54.009497869018218807469 730.50461497252240406 54.009497869018218807469 255.95335759617947247
56.009497869018190385759 736.52746445906143435 56.009497869018190385759 256.94477218478573377
58.009497869018218807469 742.28496821545479634 58.009497869018218807469 257.88220725421757606
60.009497869018190385759 747.79408635836693975 60.009497869018190385759 258.82931351016929966
62.009497869018190385759 753.06910440755370928 62.009497869018190385759 259.75435520114479004
64.009497869018218807469 758.12492796816093232 64.009497869018218807469 260.65716678767114445
66.009497869018190385759 762.98146795682725951 66.009497869018190385759 261.62841496405695807
68.009497869018190385759 767.65592698236184788 68.009497869018190385759 262.61964333108232950
70.009497869018190385759 772.15869501740837677 70.009497869018190385759 263.47248371107826870
72.009497869018190385759 776.50056678824319079 72.009497869018190385759 264.17255005139173818
74.009497869018218807469 780.69154002890650190 74.009497869018218807469 264.83431815607656290
76.009497869018190385759 784.73965201246971901 76.009497869018190385759 265.45966775367719492
78.009497869018190385759 788.65519686079744588 78.009497869018190385759 266.16542657218701606
80.009497869018218807469 792.44456126547231634 80.009497869018218807469 266.68894143569394828
82.009497869018190385759 796.10770525969951450 82.009497869018190385759 267.28419239117562256
84.009497869018218807469 799.64641107777538309 84.009497869018218807469 267.80299278527434126
86.009497869018190385759 803.06360118286704619 86.009497869018190385759 268.09610286747232522
88.009497869018190385759 806.36750803008396815 88.009497869018190385759 268.45051036764652963
91.009497869018218807469 811.11859922258872757 91.009497869018218807469 268.86774481298283490
94.009497869018218807469 815.64017150526592559 94.009497869018218807469 269.47075750847676545
97.009497869018218807469 819.96318612858840424 97.009497869018218807469 270.40940831359944241
99.504748934509137825444 823.43000319033160395 99.504748934509137825444 270.60325422956583452
nan nan nan nan

