Time Pressure difference Time.1 Pressure.1 difference.1
(hr) (psi) (hr) (psi)
0.000200000000020850166 0.46380414912675100 0.000200000000020850166 0.37347698936481583
0.000399999999999067768 0.88979367403589704 0.000399999999999067768 0.85567250750344859
0.000600000000019917934 1.29392093000328412 0.000600000000019917934 1.20213885599783898
0.000799999999998135536 1.68168373215820499 0.000799999999998135536 1.53432247061417626
0.001007140329434719206 2.06932885430092961 0.001007140329434719206 1.86493168830117018
0.001267914553977789183 2.54050759239372592 0.001267914553977789183 2.26264885786319336
0.001596209851982166583 3.11130353994721531 0.001596209851982166583 2.73568840558803839
0.002009509145224797066 3.80031793694744202 0.002009509145224797066 3.29550942370410072
0.002529822128153114136 4.62891029917797781 0.002529822128153114136 3.95459657896046890
0.003184857364431081805 5.62142952501627313 0.003184857364431081805 4.72641060269466085
0.004009497869034817086 6.80543147488442823 0.004009497869034817086 5.62532750748808219
0.005047658755856332391 8.21188173024098056 0.005047658755856332391 6.66658118890603646
0.006354625877790454069 9.87534623598386041 0.006354625877790454069 7.86622928559711010
0.008000000000009777068 11.83417762460342182 0.008000000000009777068 9.24116605042190820
0.010071403294361402914 14.13071078009552117 0.010071403294361402914 10.80920722462511918
0.012679145539692626699 16.81148683228058971 0.012679145539692626699 12.58926792715309695
0.015962098519750611558 19.92752864876278096 0.015962098519750611558 14.60164069906796591
0.020095091452091651263 23.53469006913466544 0.020095091452091651263 16.86835712810941956
0.025298221281360611101 27.69409398750595130 0.025298221281360611101 19.41360843136158820
0.031848573644296607199 32.47266972846765043 0.031848573644296607199 22.26426215789011920
0.040094978690191851456 37.94382128024350465 0.040094978690191851456 25.45063728993699570
0.050476587558435426217 44.18831060384164999 0.050476587558435426217 29.00767203420047124
0.063546258777947173257 51.29544802919553348 0.063546258777947173257 32.97609057499015961
0.080000000000012505552 59.36449075852027590 0.080000000000012505552 37.40218571003585879
0.100714032943542974863 68.50570242170103086 0.100714032943542974863 42.33427671583734764
0.126791455396883634421 78.84007912651598815 0.126791455396883634421 47.81479727024410664
0.159620985197506115583 90.49671249820912067 0.159620985197506115583 53.86964482810899568
0.200950914520774404082 103.60754562012283486 0.200950914520774404082 60.49903344786935833
0.252982212813464002465 118.30044388818731704 0.252982212813464002465 67.67518957976187721
0.318485736442809752589 134.69278921394507620 0.318485736442809752589 75.34523707078919585
0.400949786901833249431 152.88575327712925400 0.400949786901833249431 83.44947099268057400
0.504765875584169521062 172.96611880173850295 0.504765875584169521062 91.93206330359684841
0.635462587779443310865 195.00524847871713519 0.635462587779443310865 100.75450278945000093
0.800000000000011368684 219.06674586930242299 0.800000000000011368684 109.91357343008623104
1.007140329435344483500 245.21321169697836240 1.007140329435344483500 119.46371439835922956
1.267914553968907398485 273.52341730964730004 1.267914553968907398485 129.42990183745001787
1.596209851975117999245 304.05855893704091386 1.596209851975117999245 139.98318427950778187
2.009509145207687197399 336.95767493529939429 2.009509145207687197399 151.21642531414468635
2.529822128134725289783 372.30120725078666055 2.529822128134725289783 163.32551644563847049
3.184857364427983839050 410.28453475671369688 3.184857364427983839050 176.57691800112837655
4.009497869018204596614 451.06583022355698631 4.009497869018204596614 191.06985433141738895
5.009497869018190385759 493.33903995412453014 5.009497869018190385759 206.36913662063588504
6.009497869018190385759 530.06050151909232682 6.009497869018190385759 219.81074810320825463
7.009497869018204596614 562.67464047561486495 7.009497869018204596614 231.79889138414577587
8.009497869018190385759 592.08677570869053852 8.009497869018190385759 242.55820682542216105
9.009497869018204596614 618.90797770734366168 9.009497869018204596614 252.28689088401594631
10.009497869018190385759 643.57488404124615045 10.009497869018190385759 261.11263112097043404
11.009497869018190385759 666.41331247914820324 11.009497869018190385759 269.08081655734611104
12.009497869018204596614 687.67498174488684981 12.009497869018204596614 276.36700875176188674
13.009497869018190385759 707.55870702217976032 13.009497869018190385759 283.04651345401657636
14.009497869018204596614 726.22716072681657806 14.009497869018204596614 289.17463427859343028
15.009497869018190385759 743.81157629923995955 15.009497869018190385759 294.81701016858306730
16.009497869018190385759 760.42084105501373870 16.009497869018190385759 300.03073217058590672
17.009497869018204596614 776.15026055771488700 17.009497869018204596614 304.86898480291921487
18.009497869018190385759 791.08233388512439888 18.009497869018190385759 309.38668492742868921
19.009497869018204596614 805.28718504304561066 19.009497869018204596614 313.59793345788591523
20.009497869018190385759 818.82809323041021798 20.009497869018190385759 317.52366378805828617
21.009497869018190385759 831.75690250189427388 21.009497869018190385759 321.18329536222705656
22.009497869018204596614 844.11797642177850776 22.009497869018204596614 324.60870748870814850
23.009497869018190385759 855.95187358537828004 23.009497869018190385759 327.81165124303981884
24.009497869018204596614 867.29608569399943008 24.009497869018204596614 330.82614915483554796
25.009497869018204596614 878.18576475383883917 25.009497869018204596614 333.66805040460900500
26.009497869018190385759 888.65185228968221054 26.009497869018190385759 336.35401719534479525
27.009497869018204596614 898.72257243689193729 27.009497869018204596614 338.90224144287691388
28.009497869018190385759 908.42243810650495561 28.009497869018190385759 341.31874949100790673
29.009497869018190385759 917.77343634957026097 29.009497869018190385759 343.59341512066140467
30.009497869018190385759 926.79597095347367031 30.009497869018190385759 345.77206551915412547
31.009497869018218807469 935.50873259080628941 31.009497869018218807469 347.83908340792135050
32.009497869018190385759 943.92893714066588018 32.009497869018190385759 349.80284944394355762
33.009497869018190385759 952.07251767269133325 33.009497869018190385759 351.66046064056251907
34.009497869018218807469 959.95479394572794263 34.009497869018218807469 353.45052396814105578
35.009497869018190385759 967.58941445349603327 35.009497869018190385759 355.15665101850402152
36.009497869018190385759 974.98899604446535250 36.009497869018190385759 356.80107207157919902
37.009497869018190385759 982.16522623723164998 37.009497869018190385759 358.38230574921891503
38.009497869018218807469 989.12923592516472127 38.009497869018218807469 359.90735629784774119
39.009497869018190385759 995.89120880078689879 39.009497869018190385759 361.38686867583379581
40.009497869018190385759 1002.46068129363072785 40.009497869018190385759 362.81621553687489268
41.009497869018218807469 1008.84681146128764340 41.009497869018218807469 364.19418864202765462
42.009497869018190385759 1015.05798408182647563 42.009497869018190385759 365.51580464368146295
43.009497869018190385759 1021.10207964929804803 43.009497869018190385759 366.80858484459514557
44.009497869018218807469 1026.98671975129195744 44.009497869018218807469 368.02842501807259623
46.009497869018190385759 1038.30605343510296734 46.009497869018190385759 370.37103282909419022
48.009497869018218807469 1049.06478746645370848 48.009497869018218807469 372.54381287522880939
50.009497869018190385759 1059.30186846740343753 50.009497869018190385759 374.47898636135550987
52.009497869018190385759 1069.05600658985053997 52.009497869018190385759 376.23471138396746483
54.009497869018218807469 1078.36395543562821331 54.009497869018218807469 377.83590883245540226
56.009497869018190385759 1087.25482848718593232 56.009497869018190385759 379.29942560611226554
58.009497869018218807469 1095.75400069900456401 58.009497869018218807469 380.68325832765458472
60.009497869018190385759 1103.88650843377968158 60.009497869018190385759 382.08136756263081679
62.009497869018190385759 1111.67343983972227761 62.009497869018190385759 383.44690529692798009
64.009497869018218807469 1119.13679842919009388 64.009497869018218807469 384.77962716275266075
66.009497869018190385759 1126.30597650769732354 66.009497869018190385759 386.21337447075080718
68.009497869018190385759 1133.20636840253428090 68.009497869018190385759 387.67661634588341713
70.009497869018190385759 1139.85331169236474125 70.009497869018190385759 388.93557119254404597
72.009497869018190385759 1146.26274144931130650 72.009497869018190385759 389.96900245681638353
74.009497869018218807469 1152.44941623314775825 74.009497869018218807469 390.94589823039876819
76.009497869018190385759 1158.42520058983632225 76.009497869018190385759 391.86903335066637055
78.009497869018190385759 1164.20529060403418953 78.009497869018190385759 392.91086779703795173
80.009497869018218807469 1169.79911424903048101 80.009497869018218807469 393.68367545269109087
82.009497869018190385759 1175.20661252622312531 82.009497869018190385759 394.56237924411641416
84.009497869018218807469 1180.43041635290660452 84.009497869018218807469 395.32822744492881384
86.009497869018190385759 1185.47483984137534208 86.009497869018190385759 395.76091375674491246
88.009497869018190385759 1190.35203566345740001 88.009497869018190385759 396.28408673319245281
91.009497869018218807469 1197.36555123334528616 91.009497869018218807469 396.90000424773654686
94.009497869018218807469 1204.04025317444006760 94.009497869018218807469 397.79016584584667271
97.009497869018218807469 1210.42184618982105349 97.009497869018218807469 399.17579322483732085
99.504748934509137825444 1215.53952851906115029 99.504748934509137825444 399.46194671983528224
nan nan nan nan

