Time Pressure difference Time.1 Pressure.1 difference.1
(hr) (psi) (hr) (psi)
0.000200000000020850166 0.62837981494592066 0.000200000000020850166 0.50600108236523433
0.000399999999999067768 1.20552691320992489 0.000399999999999067768 1.15929823597241421
0.000600000000019917934 1.75305416323025609 0.000600000000019917934 1.62870425651320105
0.000799999999998135536 2.27841021776272923 0.000799999999998135536 2.07875947631598024
0.001007140329434719206 2.80360683485932372 0.001007140329434719206 2.52668164221448865
0.001267914553977789183 3.44197802840440348 0.001267914553977789183 3.06552425904045567
0.001596209851982166583 4.21531447347687305 0.001596209851982166583 3.70641654950637500
0.002009509145224797066 5.14881785005782433 0.002009509145224797066 4.46488373534103999
0.002529822128153114136 6.27142685695080893 0.002529822128153114136 5.35784052633353802
0.003184857364431081805 7.61613032421559577 0.003184857364431081805 6.40352404236050798
0.004009497869034817086 9.22026199823051407 0.004009497869034817086 7.62141146175804707
0.005047658755856332391 11.12577524742326318 0.005047658755856332391 9.03214225593720954
0.006354625877790454069 13.37950135197813317 0.006354625877790454069 10.65747193532511794
0.008000000000009777068 16.03340194301108923 0.008000000000009777068 12.52028948766839456
0.010071403294361402914 19.14483396012941796 0.010071403294361402914 14.64473236884693641
0.012679145539692626699 22.77685312760596403 0.012679145539692626699 17.05642751420742087
0.015962098519750611558 26.99858720154957581 0.015962098519750611558 19.78286804389853160
0.020095091452091651263 31.88570912592438589 0.020095091452091651263 22.85390320582566659
0.025298221281360611101 37.52103056371774414 0.025298221281360611101 26.30230819732860681
0.031848573644296607199 43.99522995469810382 0.031848573644296607199 30.16448421391564594
0.040094978690191851456 51.40775786355571597 0.040094978690191851456 34.48150858636625316
0.050476587558435426217 59.86803372133384471 0.050476587558435426217 39.30071694956193085
0.063546258777947173257 69.49705862020040570 0.063546258777947173257 44.67728400482538831
0.080000000000012505552 80.42931005993069959 0.080000000000012505552 50.67392902650019693
0.100714032943542974863 92.81417747456269751 0.100714032943542974863 57.35611684081189310
0.126791455396883634421 106.81559107463456826 0.126791455396883634421 64.78133823710491868
0.159620985197506115583 122.60844919112203399 0.159620985197506115583 72.98468008969607013
0.200950914520774404082 140.37151342081156713 0.200950914520774404082 81.96643241324234452
0.252982212813464002465 160.27802075173764251 0.252982212813464002465 91.68896652741931064
0.318485736442809752589 182.48700474147395312 0.318485736442809752589 102.08064377332729578
0.400949786901833249431 207.13553669804608148 0.400949786901833249431 113.06057360298657954
0.504765875584169521062 234.34119321525861324 0.504765875584169521062 124.55311802422797030
0.635462587779443310865 264.20065922922964319 0.635462587779443310865 136.50610055344836269
0.800000000000011368684 296.80010730679686048 0.800000000000011368684 148.91516400205233595
1.007140329435344483500 332.22435133139009622 1.007140329435344483500 161.85406466874476905
1.267914553968907398485 370.58011377436082512 1.267914553968907398485 175.35664119912581782
1.596209851975117999245 411.95030565663603284 1.596209851975117999245 189.65463676578474406
2.009509145207687197399 456.52330152524433515 2.009509145207687197399 204.87386655464760565
2.529822128134725289783 504.40808724300131871 2.529822128134725289783 221.27973195860695910
3.184857364427983839050 555.86936967038627699 3.184857364427983839050 239.23324374346424293
4.009497869018204596614 611.12144739965788176 4.009497869018204596614 258.86883490063002000
5.009497869018190385759 668.39482832494309150 5.009497869018190385759 279.59689477634537980
6.009497869018190385759 718.14648592909281888 6.009497869018190385759 297.80811033337892013
7.009497869018204596614 762.33338387018773119 7.009497869018204596614 314.05011090755232317
8.009497869018190385759 802.18208321822589824 8.009497869018190385759 328.62724795702359870
9.009497869018204596614 838.52048592607843602 9.009497869018204596614 341.80804571382810764
10.009497869018190385759 871.94016547523654026 10.009497869018190385759 353.76550022841161081
11.009497869018190385759 902.88255239110412731 11.009497869018190385759 364.56110630350116253
12.009497869018204596614 931.68868494468551944 12.009497869018204596614 374.43272153464522489
13.009497869018190385759 958.62792564295318698 13.009497869018190385759 383.48237306673217972
14.009497869018204596614 983.92066937181607500 14.009497869018204596614 391.78498837744916727
15.009497869018190385759 1007.74471627638968130 15.009497869018190385759 399.42949764775767107
16.009497869018190385759 1030.24759110679269725 16.009497869018190385759 406.49325003756797514
17.009497869018204596614 1051.55841752980722958 17.009497869018204596614 413.04830199105185784
18.009497869018190385759 1071.78896848952354048 18.009497869018190385759 419.16905699845176514
19.009497869018204596614 1091.03425070348089321 19.009497869018204596614 424.87461952358739836
20.009497869018190385759 1109.37999727991063992 20.009497869018190385759 430.19335093865959152
21.009497869018190385759 1126.89644855095343701 21.009497869018190385759 435.15156145850113489
22.009497869018204596614 1143.64370999079665125 22.009497869018204596614 439.79244240405620303
23.009497869018190385759 1159.67673195438351286 23.009497869018190385759 444.13191458734434036
24.009497869018204596614 1175.04630964993475573 24.009497869018204596614 448.21607304848686226
25.009497869018204596614 1189.80006837616883786 25.009497869018204596614 452.06639087076058559
26.009497869018190385759 1203.97992890860155057 26.009497869018190385759 455.70544265175749388
27.009497869018204596614 1217.62413039836974349 27.009497869018204596614 459.15787550325256916
28.009497869018190385759 1230.76588388623258652 28.009497869018190385759 462.43185414910749387
29.009497869018190385759 1243.43497828006297823 29.009497869018190385759 465.51365919573481733
30.009497869018190385759 1255.65905742083509722 30.009497869018190385759 468.46537909046685400
31.009497869018218807469 1267.46344415528574245 31.009497869018218807469 471.26585493976443786
32.009497869018190385759 1278.87146322283751942 32.009497869018190385759 473.92644118211705972
33.009497869018190385759 1289.90470136300109516 33.009497869018190385759 476.44320473882658007
34.009497869018218807469 1300.58391437808290902 34.009497869018218807469 478.86845182780405139
35.009497869018190385759 1310.92759377570428114 35.009497869018190385759 481.17997879926355154
36.009497869018190385759 1320.95283335056592477 36.009497869018190385759 483.40790409697825680
37.009497869018190385759 1330.67546780528164163 37.009497869018190385759 485.55022069249019978
38.009497869018218807469 1340.11057770506204179 38.009497869018218807469 487.61641820998727326
39.009497869018190385759 1349.27196031074345228 39.009497869018190385759 489.62091885112965883
40.009497869018190385759 1358.17253594620933654 40.009497869018190385759 491.55745330802403714
41.009497869018218807469 1366.82471230238957105 41.009497869018218807469 493.42438461177937370
42.009497869018190385759 1375.23984940118430131 42.009497869018190385759 495.21496113014904950
43.009497869018190385759 1383.42862404098468687 43.009497869018190385759 496.96646978945148021
44.009497869018218807469 1391.40136224368552575 44.009497869018218807469 498.61915647609833968
46.009497869018190385759 1406.73723368626838237 46.009497869018190385759 501.79301222006313310
48.009497869018218807469 1421.31358301906630004 48.009497869018218807469 504.73677873418091622
50.009497869018190385759 1435.18317663325615285 50.009497869018190385759 507.35862668312682899
52.009497869018190385759 1448.39846054108784301 52.009497869018190385759 509.73735090731071296
54.009497869018218807469 1461.00922994504480812 54.009497869018218807469 511.90671519235894493
56.009497869018190385759 1473.05492891812286871 56.009497869018190385759 513.88954436957146754
58.009497869018218807469 1484.56993643090959267 58.009497869018218807469 515.76441450843515213
60.009497869018190385759 1495.58817271673387950 60.009497869018190385759 517.65862702033859932
62.009497869018190385759 1506.13820881510741856 62.009497869018190385759 519.50871040228958009
64.009497869018218807469 1516.24985593632186465 64.009497869018218807469 521.31433357534228890
66.009497869018190385759 1525.96293591365451903 66.009497869018190385759 523.25682992811391614
68.009497869018190385759 1535.31185396472369575 68.009497869018190385759 525.23928666216465899
70.009497869018190385759 1544.31739003481675354 70.009497869018190385759 526.94496742215653740
72.009497869018190385759 1553.00113357648638157 72.009497869018190385759 528.34510010278347636
74.009497869018218807469 1561.38308005781300380 74.009497869018218807469 529.66863631215312580
76.009497869018190385759 1569.47930402493943802 76.009497869018190385759 530.91933550735438985
78.009497869018190385759 1577.31039372159489176 78.009497869018190385759 532.33085314437403213
80.009497869018218807469 1584.88912253094463267 80.009497869018218807469 533.37788287138789656
82.009497869018190385759 1592.21541051939902900 82.009497869018190385759 534.56838478235124512
84.009497869018218807469 1599.29282215555076618 84.009497869018218807469 535.60598557054868252
86.009497869018190385759 1606.12720236573409238 86.009497869018190385759 536.19220573494465043
88.009497869018190385759 1612.73501606016793630 88.009497869018190385759 536.90102073529305926
91.009497869018218807469 1622.23719844517745514 91.009497869018218807469 537.73548962596566980
94.009497869018218807469 1631.28034301053185118 94.009497869018218807469 538.94151501695353090
97.009497869018218807469 1639.92637225717680849 97.009497869018218807469 540.81881662719888482
99.504748934509137825444 1646.86000638066320789 99.504748934509137825444 541.20650845913166904
nan nan nan nan

