Time Pressure difference Time.1 Pressure.1 difference.1
(hr) (psi) (hr) (psi)
0.000200000000020850166 0.67326408744205790 0.000200000000020850166 0.54214401681989399
0.000399999999999067768 1.29163597843920552 0.000399999999999067768 1.24210525282758666
0.000600000000019917934 1.87827231774670267 0.000600000000019917934 1.74504027483557267
0.000799999999998135536 2.44115380474578147 0.000799999999998135536 2.22724229605283641
0.001007140329434719206 3.00386446592070433 0.001007140329434719206 2.70715890237266654
0.001267914553977789183 3.68783360186186071 0.001267914553977789183 3.28449027754334510
0.001596209851982166583 4.51640836443950722 0.001596209851982166583 3.97116058875683064
0.002009509145224797066 5.51659055363338346 0.002009509145224797066 4.78380400215111390
0.002529822128153114136 6.71938591816158137 0.002529822128153114136 5.74054342107164750
0.003184857364431081805 8.16013963308813928 0.003184857364431081805 6.86091861681483017
0.004009497869034817086 9.87885214096126596 0.004009497869034817086 8.16579799474076395
0.005047658755856332391 11.92047347938206769 0.005047658755856332391 9.67729527421844082
0.006354625877790454069 14.33518001997657088 0.006354625877790454069 11.41871993070548363
0.008000000000009777068 17.17864493894045452 0.008000000000009777068 13.41459587964470757
0.010071403294361402914 20.51232210013866109 0.010071403294361402914 15.69078468090743250
0.012679145539692626699 24.40377120814924439 0.012679145539692626699 18.27474376522223665
0.015962098519750611558 28.92705771594597408 0.015962098519750611558 21.19593004703414607
0.020095091452091651263 34.16325977777612621 0.020095091452091651263 24.48632486338464176
0.025298221281360611101 40.20110417541186365 0.025298221281360611101 28.18104449713779047
0.031848573644296607199 47.13774638003368267 0.031848573644296607199 32.31909022919533214
0.040094978690191851456 55.07974056809540997 0.040094978690191851456 36.94447348539241460
0.050476587558435426217 64.14432184428626726 0.050476587558435426217 42.10791101738778508
0.063546258777947173257 74.46113423592900915 0.063546258777947173257 47.86851857659861764
0.080000000000012505552 86.17426077849718524 0.080000000000012505552 54.29349538553592680
0.100714032943542974863 99.44376157988860143 0.100714032943542974863 61.45298232944131911
0.126791455396883634421 114.44527615139419652 0.126791455396883634421 69.40857668261240576
0.159620985197506115583 131.36619556191647007 0.159620985197506115583 78.19787152467435476
0.200950914520774404082 150.39805009372668110 0.200950914520774404082 87.82117758561682308
0.252982212813464002465 171.72645080543321683 0.252982212813464002465 98.23817842223498076
0.318485736442809752589 195.52179079443638443 0.318485736442809752589 109.37211832856495164
0.400949786901833249431 221.93093217647793836 0.400949786901833249431 121.13632886034277192
0.504765875584169521062 251.07984987349138351 0.504765875584169521062 133.44976931167283851
0.635462587779443310865 283.07213488846036853 0.635462587779443310865 146.25653630726614551
0.800000000000011368684 318.00011497156799578 0.800000000000011368684 159.55196143077034776
1.007140329435344483500 355.95466214077509903 1.007140329435344483500 173.41506928794083819
1.267914553968907398485 397.05012190110096526 1.267914553968907398485 187.88211557049194766
1.596209851975117999245 441.37532748925292481 1.596209851975117999245 203.20139653476937269
2.009509145207687197399 489.13210877704744917 2.009509145207687197399 219.50771416569386929
2.529822128134725289783 540.43723633178706223 2.529822128134725289783 237.08542709850746633
3.184857364427983839050 595.57432464684256956 3.184857364427983839050 256.32133258228310524
4.009497869018204596614 654.77297935677620444 4.009497869018204596614 277.35946596496074790
5.009497869018190385759 716.13731606243891292 5.009497869018190385759 299.56810154608433550
6.009497869018190385759 769.44266349545671346 6.009497869018190385759 319.08011821433456134
7.009497869018204596614 816.78576843234407079 7.009497869018204596614 336.48226168666326430
8.009497869018190385759 859.48080344809909548 8.009497869018190385759 352.10062281109662763
9.009497869018204596614 898.41480634936988281 9.009497869018204596614 366.22290612195865833
10.009497869018190385759 934.22160586632503509 10.009497869018190385759 379.03446453044097098
11.009497869018190385759 967.37416327618291234 11.009497869018190385759 390.60118532517981293
12.009497869018204596614 998.23787672644868962 12.009497869018204596614 401.17791592997701855
13.009497869018190385759 1027.10134890316430756 13.009497869018190385759 410.87397114292730294
14.009497869018204596614 1054.20071718408871675 14.009497869018204596614 419.76963040440983832
15.009497869018190385759 1079.72648172470303507 15.009497869018190385759 427.96017605116890081
16.009497869018190385759 1103.83670475727808480 16.009497869018190385759 435.52848218310856510
17.009497869018204596614 1126.66973306765066809 17.009497869018204596614 442.55175213326981520
18.009497869018190385759 1148.34532338163216991 18.009497869018190385759 449.10970392691262987
19.009497869018204596614 1168.96526861087249927 19.009497869018204596614 455.22280663241502907
20.009497869018190385759 1188.62142565704698427 20.009497869018190385759 460.92144743427809317
21.009497869018190385759 1207.38905201887860130 21.009497869018190385759 466.23381584839415837
22.009497869018204596614 1225.33254641871076274 22.009497869018204596614 471.20618829006019723
23.009497869018190385759 1242.51078423683952678 23.009497869018190385759 475.85562277215467475
24.009497869018204596614 1258.97818891064434865 24.009497869018204596614 480.23150683766448310
25.009497869018204596614 1274.78578754589511846 25.009497869018204596614 484.35684736152921914
26.009497869018190385759 1289.97849525921606073 26.009497869018190385759 488.25583141259733111
27.009497869018204596614 1304.59728256968196547 27.009497869018204596614 491.95486661062773237
28.009497869018190385759 1318.67773273524926481 28.009497869018190385759 495.46270087404377591
29.009497869018190385759 1332.25176244292470074 29.009497869018190385759 498.76463485257301045
30.009497869018190385759 1345.34899009375203605 30.009497869018190385759 501.92719188264305785
31.009497869018218807469 1357.99654730923475654 31.009497869018218807469 504.92770172117616312
32.009497869018190385759 1370.21942488161175788 32.009497869018190385759 507.77832983798259647
33.009497869018190385759 1382.04075146035825128 33.009497869018190385759 510.47486222017130331
34.009497869018218807469 1393.48276540508891230 34.009497869018218807469 513.07334124407589115
35.009497869018190385759 1404.56527904539757401 35.009497869018190385759 515.54997728492526221
36.009497869018190385759 1415.30660716132069865 36.009497869018190385759 517.93704010390524672
37.009497869018190385759 1425.72371550565890175 37.009497869018190385759 520.23237931338235285
38.009497869018218807469 1435.83276182685222011 38.009497869018218807469 522.44616236784349894
39.009497869018190385759 1445.64852890436804955 39.009497869018190385759 524.59384162621029191
40.009497869018190385759 1455.18485994236721126 40.009497869018190385759 526.66869997288290506
41.009497869018218807469 1464.45504889541757620 41.009497869018218807469 528.66898351262079814
42.009497869018190385759 1473.47126721555468976 42.009497869018190385759 530.58745835373122191
43.009497869018190385759 1482.24495432962635277 43.009497869018190385759 532.46407477441232459
44.009497869018218807469 1490.78717383252023865 44.009497869018218807469 534.23481051010537612
46.009497869018190385759 1507.21846466385886743 46.009497869018190385759 537.63537023578192020
48.009497869018218807469 1522.83598180614239936 48.009497869018218807469 540.78940578662241023
50.009497869018190385759 1537.69626067848889761 50.009497869018190385759 543.59852858906447182
52.009497869018190385759 1551.85549343687966939 52.009497869018190385759 546.14716168640438809
54.009497869018218807469 1565.36703208397648268 54.009497869018218807469 548.47148056324181198
56.009497869018190385759 1578.27313812656029768 56.009497869018190385759 550.59594039596936454
58.009497869018218807469 1590.61064617597457982 58.009497869018218807469 552.60472983046633999
60.009497869018190385759 1602.41589933935779300 60.009497869018190385759 554.63424323607705446
62.009497869018190385759 1613.71950944475815959 62.009497869018190385759 556.61647543102446889
64.009497869018218807469 1624.55341707463071543 64.009497869018218807469 558.55107168786673810
66.009497869018190385759 1634.96028847891579971 66.009497869018190385759 560.63231778012209361
68.009497869018190385759 1644.97698639077543703 68.009497869018190385759 562.75637856660489433
70.009497869018190385759 1654.62577503730358330 70.009497869018190385759 564.58389366659628195
72.009497869018190385759 1663.92978597480669123 72.009497869018190385759 566.08403582441087565
74.009497869018218807469 1672.91044291908542618 74.009497869018218807469 567.50211033444975328
76.009497869018190385759 1681.58496859814954405 76.009497869018190385759 568.84214518645114822
78.009497869018190385759 1689.97542184456574432 78.009497869018190385759 570.35448551182935262
80.009497869018218807469 1698.09548842601202523 80.009497869018218807469 571.47630307648694270
82.009497869018190385759 1705.94508269935590761 82.009497869018190385759 572.75184083823353376
84.009497869018218807469 1713.52802373809026903 84.009497869018218807469 573.86355596844509819
86.009497869018190385759 1720.85057396328647883 86.009497869018190385759 574.49164900172638681
88.009497869018190385759 1727.93037435018027281 88.009497869018190385759 575.25109364495676800
91.009497869018218807469 1738.11128404840428630 91.009497869018218807469 576.14516745639184592
94.009497869018218807469 1747.80036751128386641 94.009497869018218807469 577.43733751816444055
97.009497869018218807469 1757.06397027554658052 97.009497869018218807469 579.44873210057028246
99.504748934509137825444 1764.49286397928221959 99.504748934509137825444 579.86411620621254315
nan nan nan nan

