Time Pressure difference Time.1 Pressure.1 difference.1
(hr) (psi) (hr) (psi)
0.000200000000020850166 0.68074479952474731 0.000200000000020850166 0.54816783922900392
0.000399999999999067768 1.30598748931075215 0.000399999999999067768 1.25590642230344884
0.000600000000019917934 1.89914201016611051 0.000600000000019917934 1.76442961122263453
0.000799999999998135536 2.46827773590962352 0.000799999999998135536 2.25198943267564555
0.001007140329434719206 3.03724073776426762 0.001007140329434719206 2.73723844573236263
0.001267914553977789183 3.72880953077143662 0.001267914553977789183 3.32098461396049371
0.001596209851982166583 4.56659067959994580 0.001596209851982166583 4.01528459529857340
0.002009509145224797066 5.57788600422930969 0.002009509145224797066 4.83695737995279273
0.002529822128153114136 6.79404576169670893 0.002529822128153114136 5.80432723686133301
0.003184857364431081805 8.25080785123356364 0.003184857364431081805 6.93715104589055009
0.004009497869034817086 9.98861716474972638 0.004009497869034817086 8.25652908357121795
0.005047658755856332391 12.05292318470853630 0.005047658755856332391 9.78482077726531152
0.006354625877790454069 14.49445979797631168 0.006354625877790454069 11.54559459660221066
0.008000000000009777068 17.36951877159534874 0.008000000000009777068 13.56364694497409218
0.010071403294361402914 20.74023679014020516 0.010071403294361402914 15.86512673291751518
0.012679145539692626699 24.67492422157312859 0.012679145539692626699 18.47779647372470535
0.015962098519750611558 29.24846946834537320 0.015962098519750611558 21.43144038089008063
0.020095091452091651263 34.54285155308475197 0.020095091452091651263 24.75839513964447036
0.025298221281360611101 40.64778311069422045 0.025298221281360611101 28.49416721377265560
0.031848573644296607199 47.66149911758961366 0.031848573644296607199 32.67819123174194829
0.040094978690191851456 55.69173768551868875 0.040094978690191851456 37.35496763523010344
0.050476587558435426217 64.85703653144500436 0.050476587558435426217 42.57577669535875486
0.063546258777947173257 75.28848017188376218 0.063546258777947173257 48.40039100522749749
0.080000000000012505552 87.13175256492492338 0.080000000000012505552 54.89675644537521038
0.100714032943542974863 100.54869226410957594 0.100714032943542974863 62.13579324421289130
0.126791455396883634421 115.71689033085412746 0.126791455396883634421 70.17978309019699168
0.159620985197506115583 132.82581995704887845 0.159620985197506115583 79.06673676383739746
0.200950914520774404082 152.06913953921252869 0.200950914520774404082 88.79696844767921959
0.252982212813464002465 173.63452248104914588 0.252982212813464002465 99.32971373803759718
0.318485736442809752589 197.69425513659678018 0.318485736442809752589 110.58736408777123472
0.400949786901833249431 224.39683142288328099 0.400949786901833249431 122.48228806990213968
0.504765875584169521062 253.86962598319681206 0.504765875584169521062 134.93254452624697137
0.635462587779443310865 286.21738083166547995 0.635462587779443310865 147.88160893290242370
0.800000000000011368684 321.53344958236317552 0.800000000000011368684 161.32476100222336868
1.007140329435344483500 359.90971394233923775 1.007140329435344483500 175.34190339114016410
1.267914553968907398485 401.46178992222428406 1.267914553968907398485 189.96969463238630738
1.596209851975117999245 446.27949779468900715 1.596209851975117999245 205.45918982960012045
2.009509145207687197399 494.56690998568137729 2.009509145207687197399 221.94668876753490849
2.529822128134725289783 546.44209451325150440 2.529822128134725289783 239.71970962182422227
3.184857364427983839050 602.19181714291858043 3.184857364427983839050 259.16934738875295352
4.009497869018204596614 662.04823468296262945 4.009497869018204596614 280.44123780901583132
5.009497869018190385759 724.09439735202158772 5.009497869018190385759 302.89663600770751373
6.009497869018190385759 777.99202642318391554 6.009497869018190385759 322.62545286116051102
7.009497869018204596614 825.86116585937008949 7.009497869018204596614 340.22095348318174501
8.009497869018190385759 869.03059015307792379 8.009497869018190385759 356.01285195344217982
9.009497869018204596614 908.39719308658504815 9.009497869018204596614 370.29204952331372169
10.009497869018190385759 944.60184593150631827 10.009497869018190385759 383.24595858077924504
11.009497869018190385759 978.12276509036269090 11.009497869018190385759 394.94119849545955958
12.009497869018204596614 1009.32940869007597939 12.009497869018204596614 405.63544832919899363
13.009497869018190385759 1038.51358611319915326 13.009497869018190385759 415.43923748895986137
14.009497869018204596614 1065.91405848613408125 14.009497869018204596614 424.43373740890331192
15.009497869018190385759 1091.72344263275545018 15.009497869018190385759 432.71528911840408682
16.009497869018190385759 1116.10155703235886904 16.009497869018190385759 440.36768754069868237
17.009497869018204596614 1139.18828565729108959 17.009497869018204596614 447.46899382363949371
18.009497869018190385759 1161.10471586365042640 18.009497869018190385759 454.09981174832273609
19.009497869018204596614 1181.95377159543772905 19.009497869018204596614 460.28083781721966261
20.009497869018190385759 1201.82833038656963254 20.009497869018190385759 466.04279685021447222
21.009497869018190385759 1220.80448593019968939 21.009497869018190385759 471.41419158004293877
22.009497869018204596614 1238.94735249002974342 22.009497869018204596614 476.44181260439415837
23.009497869018190385759 1256.31645961724871086 23.009497869018190385759 481.14290746962302592
24.009497869018204596614 1272.96683545409587168 24.009497869018204596614 485.56741246919415289
25.009497869018204596614 1288.95007407418279399 25.009497869018204596614 489.73859010999063912
26.009497869018190385759 1304.31158965098529734 26.009497869018190385759 493.68089620607054258
27.009497869018204596614 1319.09280793156722211 27.009497869018204596614 497.42103179519028799
28.009497869018190385759 1333.32970754341863540 28.009497869018190385759 500.96784199486643274
29.009497869018190385759 1347.05455980340138922 29.009497869018190385759 504.30646412871266193
30.009497869018190385759 1360.29731220590474550 30.009497869018190385759 507.50416068133910130
31.009497869018218807469 1373.08539783489300135 31.009497869018218807469 510.53800951807818365
32.009497869018190385759 1385.44408515807390359 32.009497869018190385759 513.42031128062683365
33.009497869018190385759 1397.39675980991773940 33.009497869018190385759 516.14680513372877613
34.009497869018218807469 1408.96590724292332197 34.009497869018218807469 518.77415614678773181
35.009497869018190385759 1420.17155992367975159 35.009497869018190385759 521.27831036586883329
36.009497869018190385759 1431.03223612977967605 36.009497869018190385759 523.69189610505964083
37.009497869018190385759 1441.56509012238848300 37.009497869018190385759 526.01273908353107345
38.009497869018218807469 1451.78645918048368912 38.009497869018218807469 528.25111972748618427
39.009497869018190385759 1461.71129033663873997 39.009497869018190385759 530.42266208872376865
40.009497869018190385759 1471.35358060839348582 40.009497869018190385759 532.52057441702606866
41.009497869018218807469 1480.72677166092194057 41.009497869018218807469 534.54308332942775905
42.009497869018190385759 1489.84317018461638327 42.009497869018190385759 536.48287455766160292
43.009497869018190385759 1498.71434271106659253 43.009497869018190385759 538.38034227190576075
44.009497869018218807469 1507.35147576399276659 44.009497869018218807469 540.17075284910663413
46.009497869018190385759 1523.96533649345747108 46.009497869018190385759 543.60909657173510823
48.009497869018218807469 1539.75638160398852960 48.009497869018218807469 546.79817696202928801
50.009497869018190385759 1554.78177468602780209 50.009497869018190385759 549.63851224005406948
52.009497869018190385759 1569.09833225284501168 52.009497869018190385759 552.21546348291997219
54.009497869018218807469 1582.75999910713198915 54.009497869018218807469 554.56560812505563263
56.009497869018190385759 1595.80950632796657374 56.009497869018190385759 556.71367306703575650
58.009497869018218807469 1608.28409780015181241 58.009497869018218807469 558.74478238413814779
60.009497869018190385759 1620.22052044312840735 60.009497869018190385759 560.79684593870001663
62.009497869018190385759 1631.64972621636661643 62.009497869018190385759 562.80110293581367387
64.009497869018218807469 1642.60401059768219056 64.009497869018218807469 564.75719470662090771
66.009497869018190385759 1653.12651390645919491 66.009497869018190385759 566.86156575545669511
68.009497869018190385759 1663.25450846178409847 68.009497869018190385759 569.00922721734502829
70.009497869018190385759 1673.01050587105123668 70.009497869018190385759 570.85704804066949691
72.009497869018190385759 1682.41789470786011407 72.009497869018190385759 572.37385844468212781
74.009497869018218807469 1691.49833672929730710 74.009497869018218807469 573.80768933816591471
76.009497869018190385759 1700.26924602701774347 76.009497869018190385759 575.16261346630062690
78.009497869018190385759 1708.75292653172778046 78.009497869018190385759 576.69175757307186814
80.009497869018218807469 1716.96321607518984820 80.009497869018218807469 577.82603977733685952
82.009497869018190385759 1724.90002806268216773 82.009497869018190385759 579.11575018088058187
84.009497869018218807469 1732.56722400184662547 84.009497869018218807469 580.23981770142779624
86.009497869018190385759 1739.97113589621199026 86.009497869018190385759 580.87488954619004744
88.009497869018190385759 1747.12960073184876819 88.009497869018190385759 581.64277246323410964
91.009497869018218807469 1757.42363164894231886 91.009497869018218807469 582.54678042812940930
94.009497869018218807469 1767.22037159474257351 94.009497869018218807469 583.85330793503294444
97.009497869018218807469 1776.58690327860813341 97.009497869018218807469 585.88705134613223890
99.504748934509137825444 1784.09834024571841837 99.504748934509137825444 586.30705083072598427
nan nan nan nan

