Time Pressure difference Time.1 Pressure.1 difference.1
(hr) (psi) (hr) (psi)
0.000200000000020850166 0.32765518922180148 0.000200000000020850166 0.26384342151901508
0.000399999999999067768 0.62859617617374663 0.000399999999999067768 0.60449122304275882
0.000600000000019917934 0.91409252797006202 0.000600000000019917934 0.84925293375331212
0.000799999999998135536 1.18802818497628038 0.000799999999998135536 1.08392458407904702
0.001007140329434719206 1.46188070674807591 0.001007140329434719206 1.31748399915469760
0.001267914553977789183 1.79474568623943886 0.001267914553977789183 1.59845193507109484
0.001596209851982166583 2.19798540402722642 0.001596209851982166583 1.93263148652832428
0.002009509145224797066 2.68474073610158026 0.002009509145224797066 2.32811794771354208
0.002529822128153114136 3.27010114683863584 0.002529822128153114136 2.79373113158820230
0.003184857364431081805 3.97126795476956085 0.003184857364431081805 3.33898039351655029
0.004009497869034817086 4.80770804193448331 0.004009497869034817086 3.97402169077383949
0.005047658755856332391 5.80129709329927312 0.005047658755856332391 4.70961703345297344
0.006354625877790454069 6.97645427638859861 0.006354625877790454069 5.55711036627666832
0.008000000000009777068 8.36027387028435420 0.008000000000009777068 6.52843666142709100
0.010071403294361402914 9.98266342206748192 0.010071403294361402914 7.63618187804161774
0.012679145539692626699 11.87650198796596612 0.012679145539692626699 8.89370863240815446
0.015962098519750611558 14.07783475509370597 0.015962098519750611558 10.31535262288995014
0.020095091452091651263 16.62611975851771717 0.020095091452091651263 11.91667810018052620
0.025298221281360611101 19.56453736536710863 0.025298221281360611101 13.71477498860705779
0.031848573644296607199 22.94036990494972272 0.031848573644296607199 15.72862391154172990
0.040094978690191851456 26.80547374313976761 0.040094978690191851456 17.97964376289097643
0.050476587558435426217 31.21690329755265125 0.050476587558435426217 20.49251669512872098
0.063546258777947173257 36.23775199481878673 0.063546258777947173257 23.29601237394466295
0.080000000000012505552 41.93814024553529407 0.080000000000012505552 26.42283442096081458
0.100714032943542974863 48.39596396887911567 0.100714032943542974863 29.90711806699477648
0.126791455396883634421 55.69670106034516976 0.126791455396883634421 33.77884065220470688
0.159620985197506115583 63.93154850679935208 0.159620985197506115583 38.05629747534151619
0.200950914520774404082 73.19371771228033197 0.200950914520774404082 42.73963975833351725
0.252982212813464002465 83.57353939197749071 0.252982212813464002465 47.80924683215435778
0.318485736442809752589 95.15393818662570879 0.318485736442809752589 53.22776425323494465
0.400949786901833249431 108.00638699255260633 0.400949786901833249431 58.95301337870014891
0.504765875584169521062 122.19219360509914907 0.504765875584169521062 64.94555439834745414
0.635462587779443310865 137.76177231238403920 0.635462587779443310865 71.17818100286952188
0.800000000000011368684 154.76005595282978788 0.800000000000011368684 77.64862122964157720
1.007140329435344483500 173.23126890851054327 1.007140329435344483500 84.39533372013119106
1.267914553968907398485 193.23105932520243755 1.267914553968907398485 91.43596291097274786
1.596209851975117999245 214.80265937810307264 1.596209851975117999245 98.89134631358774641
2.009509145207687197399 238.04429293816309610 2.009509145207687197399 106.82708756063767908
2.529822128134725289783 263.01278834813638241 2.529822128134725289783 115.38157452127363456
3.184857364427983839050 289.84617132813002627 3.184857364427983839050 124.74304852337779437
4.009497869018204596614 318.65618328696444905 4.009497869018204596614 134.98160676961421700
5.009497869018190385759 348.52016048372030355 5.009497869018190385759 145.78980941909438229
6.009497869018190385759 374.46209623445560055 6.009497869018190385759 155.28565753097615243
7.009497869018204596614 397.50240730374076747 7.009497869018204596614 163.75470068750942687
8.009497869018190385759 418.28065767807493103 8.009497869018190385759 171.35563643473372508
9.009497869018204596614 437.22853909002662931 9.009497869018204596614 178.22848097935320766
10.009497869018190385759 454.65451485494486406 10.009497869018190385759 184.46343940481460777
11.009497869018190385759 470.78875946107564232 11.009497869018190385759 190.09257685825417639
12.009497869018204596614 485.80910000687174488 12.009497869018204596614 195.23991908592213917
13.009497869018190385759 499.85598979953988419 13.009497869018190385759 199.95866595622464956
14.009497869018204596614 513.04434902958985276 14.009497869018204596614 204.28788679681278495
15.009497869018190385759 525.46688777268889226 15.009497869018190385759 208.27395234490219877
16.009497869018190385759 537.20052964854198763 16.009497869018190385759 211.95719466244617024
17.009497869018204596614 548.31260342625660087 17.009497869018204596614 215.37518603819131613
18.009497869018190385759 558.86139071239438181 18.009497869018190385759 218.56672257776412494
19.009497869018204596614 568.89643072395801937 19.009497869018204596614 221.54176589444199408
20.009497869018190385759 578.46242715309620053 20.009497869018190385759 224.31510441801535194
21.009497869018190385759 587.59600531585431327 21.009497869018190385759 226.90045704621846312
22.009497869018204596614 596.32850592377258181 22.009497869018204596614 229.32034496782929978
23.009497869018190385759 604.68858166192853787 23.009497869018190385759 231.58306974911525344
24.009497869018204596614 612.70271860318030122 24.009497869018204596614 233.71266666099671738
25.009497869018204596614 620.39574993900225763 25.009497869018204596614 235.72033238261090560
26.009497869018190385759 627.78953435948528750 26.009497869018190385759 237.61783795413066400
27.009497869018204596614 634.90401085057851560 27.009497869018204596614 239.41803508383884491
28.009497869018190385759 641.75649659782129675 28.009497869018190385759 241.12518109203463723
29.009497869018190385759 648.36252438888993765 29.009497869018190385759 242.73212229491883818
30.009497869018190385759 654.73650851229263026 30.009497869018190385759 244.27123338288629384
31.009497869018218807469 660.89165302382752998 31.009497869018218807469 245.73148150430571945
32.009497869018190385759 666.84012010905098577 32.009497869018190385759 247.11878718781818520
33.009497869018190385759 672.59316571070769442 33.009497869018190385759 248.43109961381674111
34.009497869018218807469 678.16161249714321002 34.009497869018218807469 249.69569273878354920
35.009497869018190385759 683.55510246876019664 35.009497869018190385759 250.90098894533025486
36.009497869018190385759 688.78254881850944003 36.009497869018190385759 252.06269285056720264
37.009497869018190385759 693.85220821275402159 37.009497869018190385759 253.17975793251270034
38.009497869018218807469 698.77194408906802892 38.009497869018218807469 254.25713235235048160
39.009497869018190385759 703.54895073345915080 39.009497869018190385759 255.30233625808904208
40.009497869018190385759 708.18996517195205342 40.009497869018190385759 256.31210065346965621
41.009497869018218807469 712.70145712910311886 41.009497869018218807469 257.28557197614213692
42.009497869018190385759 717.08935004490319898 42.009497869018190385759 258.21922973214913100
43.009497869018190385759 721.35921110708488868 43.009497869018190385759 259.13251639021399342
44.009497869018218807469 725.51642459849324496 44.009497869018218807469 259.99427444825130351
46.009497869018190385759 733.51298613641142765 46.009497869018190385759 261.64921351474720268
48.009497869018218807469 741.11351114565604803 48.009497869018218807469 263.18417748282291768
50.009497869018190385759 748.34551353019787712 50.009497869018190385759 264.55128391334471871
52.009497869018190385759 755.23634013928142394 52.009497869018190385759 265.79161868738344765
54.009497869018218807469 761.81195561420190643 54.009497869018218807469 266.92278720744434395
56.009497869018190385759 768.09292722159261757 56.009497869018190385759 267.95669099270514835
58.009497869018218807469 774.09718113897429248 58.009497869018218807469 268.93430185082695516
60.009497869018190385759 779.84240434515413654 60.009497869018190385759 269.92199837489084757
62.009497869018190385759 785.34349459644897706 62.009497869018190385759 270.88668470976523395
64.009497869018218807469 790.61599630965361030 64.009497869018218807469 271.82818822142849058
66.009497869018190385759 795.68067372640553003 66.009497869018190385759 272.84106131965944542
68.009497869018190385759 800.55546671017725657 68.009497869018190385759 273.87477090241441147
70.009497869018190385759 805.25121051815438022 70.009497869018190385759 274.76416158441014659
72.009497869018190385759 809.77916250773932916 72.009497869018190385759 275.49423076787996933
74.009497869018218807469 814.14974888728818314 74.009497869018218807469 276.18436036276551704
76.009497869018190385759 818.37135138443272808 76.009497869018190385759 276.83651065740622244
78.009497869018190385759 822.45470529768863344 78.009497869018190385759 277.57251628242357810
80.009497869018218807469 826.40647103399248863 80.009497869018218807469 278.11846749722366212
82.009497869018190385759 830.22660691368662356 82.009497869018190385759 278.73922920794029778
84.009497869018218807469 833.91697155253723395 84.009497869018218807469 279.28026390464327733
86.009497869018190385759 837.48061266213278486 86.009497869018190385759 279.58593584750684613
88.009497869018190385759 840.92611551708773732 88.009497869018190385759 279.95553224054566499
91.009497869018218807469 845.88082490355679965 91.009497869018218807469 280.39064816211066500
94.009497869018218807469 850.59617885549153016 94.009497869018218807469 281.01950425884001561
97.009497869018218807469 855.10446553409929038 97.009497869018218807469 281.99838295561090717
99.504748934509137825444 858.71986046991730746 99.504748934509137825444 282.20053655369014223
nan nan nan nan

