Time Pressure difference Time.1 Pressure.1 difference.1
(hr) (psi) (hr) (psi)
0.000200000000020850166 0.45557536583579250 0.000200000000020850166 0.36685078471479488
0.000399999999999067768 0.87400701207719567 0.000399999999999067768 0.84049122108000029
0.000600000000019917934 1.27096426834193554 0.000600000000019917934 1.18081058597207078
0.000799999999998135536 1.65184740787797879 0.000799999999998135536 1.50710062032908576
0.001007140329434719206 2.03261495527300973 0.001007140329434719206 1.83184419060550452
0.001267914553977789183 2.49543407059319255 0.001267914553977789183 2.22250508780433043
0.001596209851982166583 3.05610299327073287 0.001596209851982166583 2.68715199839212193
0.002009509145224797066 3.73289294129192273 0.002009509145224797066 3.23704070812225364
0.002529822128153114136 4.54678447128933616 0.002529822128153114136 3.88443438159181520
0.003184857364431081805 5.52169448505630811 0.003184857364431081805 4.64255493071136804
0.004009497869034817086 6.68468994871712319 0.004009497869034817086 5.52552330977458439
0.005047658755856332391 8.06618705438186545 0.005047658755856332391 6.54830313555447674
0.006354625877790454069 9.70013848018414571 0.006354625877790454069 7.72666715311071073
0.008000000000009777068 11.62421640868303996 0.008000000000009777068 9.07720987855958583
0.010071403294361402914 13.88000462109382660 0.010071403294361402914 10.61743096741402859
0.012679145539692626699 16.51321851751432490 0.012679145539692626699 12.36590994780038066
0.015962098519750611558 19.57397572112344264 0.015962098519750611558 14.34257933182643718
0.020095091452091651263 23.11713911629518137 0.020095091452091651263 16.56907982422360703
0.025298221281360611101 27.20274715869536308 0.025298221281360611101 19.06917344306323869
0.031848573644296607199 31.89654171715612563 0.031848573644296607199 21.86925105508884570
0.040094978690191851456 37.27062445107789301 0.040094978690191851456 24.99909372511553585
0.050476587558435426217 43.40432444796704203 0.050476587558435426217 28.49301978843240235
0.063546258777947173257 50.38536749964529093 0.063546258777947173257 32.39103090349839675
0.080000000000012505552 58.31124979344976111 0.080000000000012505552 36.73859854421264259
0.100714032943542974863 67.29027866905795463 0.100714032943542974863 41.58318470958862889
0.126791455396883634421 77.44130352911005843 0.126791455396883634421 46.96647022190106924
0.159620985197506115583 88.89112566356347145 0.159620985197506115583 52.91389306502964018
0.200950914520774404082 101.76934723008838546 0.200950914520774404082 59.42566349960070937
0.252982212813464002465 116.20156504500981498 0.252982212813464002465 66.47450073237901336
0.318485736442809752589 132.30307843756861530 0.318485736442809752589 74.00846673566228162
0.400949786901833249431 150.17326410608342258 0.400949786901833249431 81.96891586216526093
0.504765875584169521062 169.89736508106247470 0.504765875584169521062 90.30101056756528521
0.635462587779443310865 191.54547794119150694 0.635462587779443310865 98.96692290125007219
0.800000000000011368684 215.18007779742768548 0.800000000000011368684 107.96349390148793645
1.007140329435344483500 240.86265471525780413 1.007140329435344483500 117.34419688483995969
1.267914553968907398485 268.67058248641166074 1.267914553968907398485 127.13356486936622503
1.596209851975117999245 298.66397160106112096 1.596209851975117999245 137.49961165519391670
2.009509145207687197399 330.97939360580215862 2.009509145207687197399 148.53355325211953186
2.529822128134725289783 365.69586325117592196 2.529822128134725289783 160.42780566999005032
3.184857364427983839050 403.00529301103006219 3.184857364427983839050 173.44410171401159459
4.009497869018204596614 443.06304936475191880 4.009497869018204596614 187.67990530295676876
5.009497869018190385759 484.58625053558370155 5.009497869018190385759 202.70774871285041741
6.009497869018190385759 520.65620229859223400 6.009497869018190385759 215.91087999169971567
7.009497869018204596614 552.69170330588622164 7.009497869018204596614 227.68633040797544709
8.009497869018190385759 581.58201033321370232 8.009497869018190385759 238.25475476884207637
9.009497869018204596614 607.92735229640686612 9.009497869018204596614 247.81083314252535388
10.009497869018190385759 632.15661996954645474 10.009497869018190385759 256.47998766559840078
11.009497869018190385759 654.58985048355043546 11.009497869018190385759 264.30680207003831583
12.009497869018204596614 675.47429658489693338 12.009497869018204596614 271.46372311261774257
13.009497869018190385759 695.00524609114108898 13.009497869018190385759 278.02472047338079619
14.009497869018204596614 713.34248529456669985 14.009497869018204596614 284.04411657365068322
15.009497869018190385759 730.61491930038243936 15.009497869018190385759 289.58638579462433427
16.009497869018190385759 746.92950355242476235 16.009497869018190385759 294.70760627723677771
17.009497869018204596614 762.37985270911019597 17.009497869018204596614 299.46001894351257988
18.009497869018190385759 777.04700215490447590 18.009497869018190385759 303.89756632387752688
19.009497869018204596614 790.99983176002376695 19.009497869018204596614 308.03409915460088087
20.009497869018190385759 804.30049802793519120 20.009497869018190385759 311.89017943052817827
21.009497869018190385759 816.99992519944134983 21.009497869018190385759 315.48488205741335832
22.009497869018204596614 829.14168974332767448 22.009497869018204596614 318.84952074294074009
23.009497869018190385759 840.76563066692801840 23.009497869018190385759 321.99563807582461550
24.009497869018204596614 851.90857449620273201 24.009497869018204596614 324.95665296015300783
25.009497869018204596614 862.60504957272235060 25.009497869018204596614 327.74813338130144302
26.009497869018190385759 872.88544845873627764 26.009497869018190385759 330.38644592252416032
27.009497869018204596614 882.77749453881801855 27.009497869018204596614 332.88945973985812543
28.009497869018190385759 892.30526581751860249 28.009497869018190385759 335.26309425810296716
29.009497869018190385759 901.49035925304553984 29.009497869018190385759 337.49740291690773120
30.009497869018190385759 910.35281663010550801 30.009497869018190385759 339.63739984058844357
31.009497869018218807469 918.91099701258224286 31.009497869018218807469 341.66774483132917339
32.009497869018190385759 927.18181083655724706 32.009497869018190385759 343.59666985703489672
33.009497869018190385759 935.18090848817575989 33.009497869018190385759 345.42132343564924213
34.009497869018218807469 942.92333792411022841 34.009497869018218807469 347.17962757515795147
35.009497869018190385759 950.42250548738559246 35.009497869018190385759 348.85548462946604786
36.009497869018190385759 957.69080417916029546 36.009497869018190385759 350.47073047030920634
37.009497869018190385759 964.73971415882920155 37.009497869018190385759 352.02391000205534510
38.009497869018218807469 971.58016883616994619 38.009497869018218807469 353.52190320224070774
39.009497869018190385759 978.22217122528900290 39.009497869018190385759 354.97516616706900550
40.009497869018190385759 984.67508856100175763 40.009497869018190385759 356.37915364831741272
41.009497869018218807469 990.94791641923234238 41.009497869018218807469 357.73267884354004309
42.009497869018190385759 997.04889081585872646 42.009497869018190385759 359.03084681935808931
43.009497869018190385759 1002.98575242971378430 43.009497869018190385759 360.30069059735228620
44.009497869018218807469 1008.76598762667208575 44.009497869018218807469 361.49888844517130337
46.009497869018190385759 1019.88449442254454880 46.009497869018190385759 363.79993385954577434
48.009497869018218807469 1030.45234768882301069 48.009497869018218807469 365.93416458228119836
50.009497869018190385759 1040.50780305911075629 50.009497869018190385759 367.83500434526695244
52.009497869018190385759 1050.08888389228854976 52.009497869018190385759 369.55957940780029958
54.009497869018218807469 1059.23169171015751999 54.009497869018218807469 371.13236851446026776
56.009497869018190385759 1067.96482346563902865 56.009497869018190385759 372.56991966793930260
58.009497869018218807469 1076.31320391240933532 58.009497869018218807469 373.92920051861551656
60.009497869018190385759 1084.30142521963193758 60.009497869018190385759 375.30250458974541061
62.009497869018190385759 1091.95020139095299783 62.009497869018190385759 376.64381504165987735
64.009497869018218807469 1099.28114555383353945 64.009497869018218807469 377.95289184212322198
66.009497869018190385759 1106.32312853739949787 66.009497869018190385759 379.36120169788262046
68.009497869018190385759 1113.10109412442466237 68.009497869018190385759 380.79848283006930387
70.009497869018190385759 1119.63010777524209516 70.009497869018190385759 382.03510138106349814
72.009497869018190385759 1125.92582184295247316 72.009497869018190385759 383.05019757451805162
74.009497869018218807469 1132.00273304191432544 74.009497869018218807469 384.00976132631103610
76.009497869018190385759 1137.87249541808114373 76.009497869018190385759 384.91651824283195538
78.009497869018190385759 1143.55003544815622263 78.009497869018190385759 385.93986852967117329
80.009497869018218807469 1149.04461383493480753 80.009497869018218807469 386.69896508175622785
82.009497869018190385759 1154.35617262656433013 82.009497869018190385759 387.56207896720462713
84.009497869018218807469 1159.48729606277447601 84.009497869018218807469 388.31433953864785735
86.009497869018190385759 1164.44222171515730224 86.009497869018190385759 388.73934915783485167
88.009497869018190385759 1169.23288664362189593 88.009497869018190385759 389.25324003308742249
91.009497869018218807469 1176.12196887275354129 91.009497869018218807469 389.85822997882513619
94.009497869018218807469 1182.67824868263551252 94.009497869018218807469 390.73259838729131843
97.009497869018218807469 1188.94661988645316342 97.009497869018218807469 392.09364205471922560
99.504748934509137825444 1193.97350462598092236 99.504748934509137825444 392.37471863287049700
nan nan nan nan

