Time Pressure difference Time.1 Pressure.1 difference.1
(hr) (psi) (hr) (psi)
0.000200000000020850166 0.64109702548649294 0.000200000000020850166 0.51624158046072122
0.000399999999999067768 1.22992448169155466 0.000399999999999067768 1.18276022408137971
0.000600000000019917934 1.78853264034324910 0.000600000000019917934 1.66166612837120642
0.000799999999998135536 2.32452090074126083 0.000799999999998135536 2.12082960857475600
0.001007140329434719206 2.86034649699338139 0.001007140329434719206 2.57781686592597215
0.001267914553977789183 3.51163710755068292 0.001267914553977789183 3.12756463094960768
0.001596209851982166583 4.30062440924961908 0.001596209851982166583 3.78142736062733720
0.002009509145224797066 5.25302011607089980 0.002009509145224797066 4.55524447760389339
0.002529822128153114136 6.39834859096052710 0.002529822128153114136 5.46627301317600267
0.003184857364431081805 7.77026629506281807 0.003184857364431081805 6.53311917178923274
0.004009497869034817086 9.40686253867089484 0.004009497869034817086 7.77565431276981744
0.005047658755856332391 11.35093974647825732 0.005047658755856332391 9.21493561111689097
0.006354625877790454069 13.65027697457768951 0.006354625877790454069 10.87315886734955406
0.008000000000009777068 16.35788745852440940 0.008000000000009777068 12.77367629872834875
0.010071403294361402914 19.53228893313203685 0.010071403294361402914 14.94111385726407804
0.012679145539692626699 23.23781325042655865 0.012679145539692626699 17.40161711866161909
0.015962098519750611558 27.54498718062855644 0.015962098519750611558 20.18323561145362177
0.020095091452091651263 32.53101514394904825 0.020095091452091651263 23.31642267546737557
0.025298221281360611101 38.28038475369774574 0.025298221281360611101 26.83461681560787326
0.031848573644296607199 44.88560960854318438 0.031848573644296607199 30.77495591824488841
0.040094978690191851456 52.44815296317529629 0.040094978690191851456 35.17934864109032844
0.050476587558435426217 61.07964868950370629 0.050476587558435426217 40.09608860211258730
0.063546258777947173257 70.90354671132351427 0.063546258777947173257 45.58146713349447054
0.080000000000012505552 82.05704609685786011 0.080000000000012505552 51.69947282822698043
0.100714032943542974863 94.69255963773835560 0.100714032943542974863 58.51689539592356937
0.126791455396883634421 108.97733517971646222 0.126791455396883634421 66.09238912999870763
0.159620985197506115583 125.08981066284714245 0.159620985197506115583 74.46175099627323846
0.200950914520774404082 143.21236547813754214 0.200950914520774404082 83.62527687874845128
0.252982212813464002465 163.52174260028473896 0.252982212813464002465 93.54457656428375856
0.318485736442809752589 186.18019412314663441 0.318485736442809752589 104.14656156397796849
0.400949786901833249431 211.32756541693510144 0.400949786901833249431 115.34870425923750759
0.504765875584169521062 239.08381260175789862 0.504765875584169521062 127.07383588900403026
0.635462587779443310865 269.54757733267837239 0.635462587779443310865 139.26872401703008109
0.800000000000011368684 302.80677614514866036 0.800000000000011368684 151.92892327352242887
1.007140329435344483500 338.94793939404917182 1.007140329435344483500 165.12968264418364583
1.267914553968907398485 378.07994941027055802 1.267914553968907398485 178.90552560434622364
1.596209851975117999245 420.28739517587746377 1.596209851975117999245 193.49288536699705787
2.009509145207687197399 465.76246357992187086 2.009509145207687197399 209.02012337777736661
2.529822128134725289783 514.61634615149057481 2.529822128134725289783 225.75801224824544988
3.184857364427983839050 567.11910691371565463 3.184857364427983839050 244.07486891446293953
4.009497869018204596614 623.48938145417480428 4.009497869018204596614 264.10784703552371866
5.009497869018190385759 681.92186651723352497 5.009497869018190385759 285.25540336110475437
6.009497869018190385759 732.68040290622923294 6.009497869018190385759 303.83517923298302321
7.009497869018204596614 777.76155949613200846 7.009497869018204596614 320.40588696163376881
8.009497869018190385759 818.41672061668998595 8.009497869018190385759 335.27803749901096353
9.009497869018204596614 855.49054337934433079 9.009497869018204596614 348.72558949613176082
10.009497869018190385759 889.58657358604500587 10.009497869018190385759 360.92504011398654029
11.009497869018190385759 921.15517547520971675 11.009497869018190385759 371.93912869297673751
12.009497869018204596614 950.54428928285165057 12.009497869018204596614 382.01052661332249727
13.009497869018190385759 978.02872890001287942 13.009497869018190385759 391.24332585498746084
14.009497869018204596614 1003.83334958529337655 14.009497869018204596614 399.71397028508806670
15.009497869018190385759 1028.13954982007862782 15.009497869018190385759 407.51318986205751571
16.009497869018190385759 1051.09783997443037151 16.009497869018190385759 414.71989914547111766
17.009497869018204596614 1072.83995693219617351 17.009497869018204596614 421.40761286468023172
18.009497869018190385759 1093.47993570895437188 18.009497869018190385759 427.65224029484897983
19.009497869018204596614 1113.11470577724207942 19.009497869018204596614 433.47327253775517875
20.009497869018190385759 1131.83173532009936935 20.009497869018190385759 438.89964494575150411
21.009497869018190385759 1149.70268620019896844 21.009497869018190385759 443.95820020230422642
22.009497869018204596614 1166.78888031203905484 22.009497869018204596614 448.69300373842401086
23.009497869018190385759 1183.14638010107933042 23.009497869018190385759 453.12029857304059988
24.009497869018204596614 1198.82700877380261772 24.009497869018204596614 457.28711262208719290
25.009497869018204596614 1213.87935547425786353 25.009497869018204596614 461.21535354314505639
26.009497869018190385759 1228.34618937460913912 26.009497869018190385759 464.92805280066210116
27.009497869018204596614 1242.26652351357483894 27.009497869018204596614 468.45035631700886825
28.009497869018190385759 1255.67424106012072116 28.009497869018190385759 471.79059405450607301
29.009497869018190385759 1268.59973379287362150 29.009497869018190385759 474.93476896517228170
30.009497869018190385759 1281.07120501149506708 30.009497869018190385759 477.94622604825013923
31.009497869018218807469 1293.11449004890459946 31.009497869018218807469 480.80337819449772496
32.009497869018190385759 1304.75338569282371282 32.009497869018190385759 483.51780963461226293
33.009497869018190385759 1316.00991555725227045 33.009497869018190385759 486.08550769187428386
34.009497869018218807469 1326.90525550240135999 34.009497869018218807469 488.55983716241433967
35.009497869018190385759 1337.45827126878407398 35.009497869018190385759 490.91814503686771332
36.009497869018190385759 1347.68640259694643646 36.009497869018190385759 493.19115929894087458
37.009497869018190385759 1357.60580465372186154 37.009497869018190385759 495.37683230174286564
38.009497869018218807469 1367.23186320623585743 38.009497869018218807469 497.48484572137982695
39.009497869018190385759 1376.57865474560389885 39.009497869018190385759 499.52991363740250108
40.009497869018190385759 1385.65936107845413972 40.009497869018190385759 501.50563986306735842
41.009497869018218807469 1394.48664100374753616 41.009497869018218807469 503.41035430035111631
42.009497869018190385759 1403.07208444858929397 42.009497869018190385759 505.23716867683060627
43.009497869018190385759 1411.42658428943309445 43.009497869018190385759 507.02412453519031033
44.009497869018218807469 1419.56067552718877778 44.009497869018218807469 508.71025845240035324
46.009497869018190385759 1435.20691579658569026 46.009497869018190385759 511.94834699118348453
48.009497869018218807469 1450.07826267540463050 48.009497869018218807469 514.95168973237264254
50.009497869018190385759 1464.22855044607217678 50.009497869018190385759 517.62659888980920186
52.009497869018190385759 1477.71128652822881122 52.009497869018190385759 520.05346396138736509
54.009497869018218807469 1490.57727388440889627 54.009497869018218807469 522.26673204744247414
56.009497869018190385759 1502.86675486051353801 56.009497869018190385759 524.28968991038425429
58.009497869018218807469 1514.61480419201120640 58.009497869018218807469 526.20250384967732771
60.009497869018190385759 1525.85602859314394664 60.009497869018190385759 528.13505161479770322
62.009497869018190385759 1536.61957732684186340 62.009497869018190385759 530.02257716043106939
64.009497869018218807469 1546.93586492550934963 64.009497869018218807469 531.86474270722430902
66.009497869018190385759 1556.84551914047847276 66.009497869018190385759 533.84655148618287512
68.009497869018190385759 1566.38364148543837473 68.009497869018190385759 535.86912936842270483
70.009497869018190385759 1575.57143245218799166 70.009497869018190385759 537.60932985808108242
72.009497869018190385759 1584.43091842267699576 72.009497869018190385759 539.03779855724451409
74.009497869018218807469 1592.98249953517347421 74.009497869018218807469 540.38812061847056611
76.009497869018190385759 1601.24257565401558168 76.009497869018190385759 541.66413158309853770
78.009497869018190385759 1609.23215168977003486 78.009497869018190385759 543.10421564848638809
80.009497869018218807469 1616.96425953454695446 80.009497869018218807469 544.17243526283266419
82.009497869018190385759 1624.43881763705348931 82.009497869018190385759 545.38703066485118143
84.009497869018218807469 1631.65946260393707234 84.009497869018218807469 546.44563051661930331
86.009497869018190385759 1638.63215765170730265 86.009497869018190385759 547.04371466053282802
88.009497869018190385759 1645.37370090900481046 88.009497869018190385759 547.76687472636433540
91.009497869018218807469 1655.06818936609170123 91.009497869018218807469 548.61823167791976630
94.009497869018218807469 1664.29434995241172146 94.009497869018218807469 549.84866472562998752
97.009497869018218807469 1673.11535836238158481 97.009497869018218807469 551.76395934465415394
99.504748934509137825444 1680.18931603360533700 99.504748934509137825444 552.15949732080468948
nan nan nan nan

