Time Pressure difference Time.1 Pressure.1 difference.1
(hr) (psi) (hr) (psi)
0.000200000000020850166 0.02693056349768232 0.000200000000020850166 0.02168576067279576
0.000399999999999067768 0.05166543913756822 0.000399999999999067768 0.04968421011310346
0.000600000000019917934 0.07513089270986811 0.000600000000019917934 0.06980161099342291
0.000799999999998135536 0.09764615218983126 0.000799999999998135536 0.08908969184211345
0.001007140329434719206 0.12015457863682816 0.001007140329434719206 0.10828635609490667
0.001267914553977789183 0.14751334407447442 0.001267914553977789183 0.13137961110173382
0.001596209851982166583 0.18065633457758026 0.001596209851982166583 0.15884642355027320
0.002009509145224797066 0.22066362214533533 0.002009509145224797066 0.19135216008604455
0.002529822128153114136 0.26877543672646320 0.002529822128153114136 0.22962173684286594
0.003184857364431081805 0.32640558532352559 0.003184857364431081805 0.27443674467259321
0.004009497869034817086 0.39515408563845067 0.004009497869034817086 0.32663191978963063
0.005047658755856332391 0.47681893917528273 0.005047658755856332391 0.38709181096873757
0.006354625877790454069 0.57340720079906282 0.006354625877790454069 0.45674879722821937
0.008000000000009777068 0.68714579755761818 0.008000000000009777068 0.53658383518578823
0.010071403294361402914 0.82049288400554654 0.010071403294361402914 0.62763138723629730
0.012679145539692626699 0.97615084832596988 0.012679145539692626699 0.73098975060888949
0.015962098519750611558 1.15708230863783901 0.015962098519750611558 0.84783720188136569
0.020095091452091651263 1.36653039111104513 0.020095091452091651263 0.97945299453538581
0.025298221281360611101 1.60804416701647446 0.025298221281360611101 1.12724177988551144
0.031848573644296607199 1.88550985520134717 0.031848573644296607199 1.29276360916781341
0.040094978690191851456 2.20318962272381613 0.040094978690191851456 1.47777893941569660
0.050476587558435426217 2.56577287377145069 0.050476587558435426217 1.68431644069551134
0.063546258777947173257 2.97844536943716021 0.063546258777947173257 1.91474074306394471
0.080000000000012505552 3.44697043113988721 0.080000000000012505552 2.17173981542143713
0.100714032943542974863 3.97775046319554404 0.100714032943542974863 2.45811929317765276
0.126791455396883634421 4.57781104605576772 0.126791455396883634421 2.77634306730449643
0.159620985197506115583 5.25464782247665863 0.159620985197506115583 3.12791486098697424
0.200950914520774404082 6.01592200374906749 0.200950914520774404082 3.51284710342467221
0.252982212813464002465 6.86905803221732825 0.252982212813464002465 3.92952713688939870
0.318485736442809752589 7.82087163177745470 0.318485736442809752589 4.37488473314259885
0.400949786901833249431 8.87723728705911697 0.400949786901833249431 4.84545315441371116
0.504765875584169521062 10.04319399493965470 0.504765875584169521062 5.33799077246691400
0.635462587779443310865 11.32288539553841389 0.635462587779443310865 5.85026145229064554
0.800000000000011368684 12.72000459886272061 0.800000000000011368684 6.38207845723081313
1.007140329435344483500 14.23818648563100275 1.007140329435344483500 6.93660277151763349
1.267914553968907398485 15.88200487604403754 1.267914553968907398485 7.51528462281967791
1.596209851975117999245 17.65501309957011600 1.596209851975117999245 8.12805586139077363
2.009509145207687197399 19.56528435108189967 2.009509145207687197399 8.78030856662775427
2.529822128134725289783 21.61748945327148164 2.529822128134725289783 9.48341708394029936
3.184857364427983839050 23.82297298587370094 3.184857364427983839050 10.25285330329132449
4.009497869018204596614 26.19091917427104832 4.009497869018204596614 11.09437863859842821
5.009497869018190385759 28.64549264249755822 5.009497869018190385759 11.98272406184337413
6.009497869018190385759 30.77770653981826499 6.009497869018190385759 12.76320472857338295
7.009497869018204596614 32.67143073729376113 7.009497869018204596614 13.45929046746652880
8.009497869018190385759 34.37923213792396382 8.009497869018190385759 14.08402491244386745
9.009497869018204596614 35.93659225397478707 9.009497869018204596614 14.64891624487834676
10.009497869018190385759 37.36886423465299600 10.009497869018190385759 15.16137858121763848
11.009497869018190385759 38.69496653104731365 11.009497869018190385759 15.62404741300719380
12.009497869018204596614 39.92951506905794190 12.009497869018204596614 16.04711663719908188
13.009497869018190385759 41.08405395612656719 13.009497869018190385759 16.43495884571709098
14.009497869018204596614 42.16802868736354526 14.009497869018204596614 16.79078521617639552
15.009497869018190385759 43.18905926898812453 15.009497869018190385759 17.11840704204675490
16.009497869018190385759 44.15346819029111458 16.009497869018190385759 17.42113928732434047
17.009497869018204596614 45.06678932270602189 17.009497869018204596614 17.70207008533079218
18.009497869018190385759 45.93381293526528708 18.009497869018190385759 17.96438815707650249
19.009497869018204596614 46.75861074443490395 19.009497869018204596614 18.20891226529660045
20.009497869018190385759 47.54485702628188193 20.009497869018190385759 18.43685789737112302
21.009497869018190385759 48.29556208075514689 21.009497869018190385759 18.64935263393576292
22.009497869018204596614 49.01330185674843420 22.009497869018204596614 18.84824753160240718
23.009497869018190385759 49.70043136947357709 23.009497869018190385759 19.03422491088618784
24.009497869018204596614 50.35912755642578276 24.009497869018204596614 19.20926027350657961
25.009497869018204596614 50.99143150183580531 25.009497869018204596614 19.37427389446116877
26.009497869018190385759 51.59913981036864783 26.009497869018190385759 19.53023325650389097
27.009497869018204596614 52.18389130278727350 27.009497869018204596614 19.67819466442511001
28.009497869018190385759 52.74710930940996434 28.009497869018190385759 19.81850803496175217
29.009497869018190385759 53.29007049771698235 29.009497869018190385759 19.95058539410291942
30.009497869018190385759 53.81395960375007803 30.009497869018190385759 20.07708767530572302
31.009497869018218807469 54.31986189236939566 31.009497869018218807469 20.19710806884704724
32.009497869018190385759 54.80877699526446634 32.009497869018190385759 20.31113319351930357
33.009497869018190385759 55.28163005841432920 33.009497869018190385759 20.41899448880685242
34.009497869018218807469 55.73931061620356076 34.009497869018218807469 20.52293364976303280
35.009497869018190385759 56.18261116181589898 35.009497869018190385759 20.62199909139700793
36.009497869018190385759 56.61226428645282738 36.009497869018190385759 20.71748160415620887
37.009497869018190385759 57.02894862022635181 37.009497869018190385759 20.80929517253528971
38.009497869018218807469 57.43331047307407999 38.009497869018218807469 20.89784649471373967
39.009497869018190385759 57.82594115617472141 39.009497869018190385759 20.98375366504841466
40.009497869018190385759 58.20739439769469215 40.009497869018190385759 21.06674799891531791
41.009497869018218807469 58.57820195581669509 41.009497869018218807469 21.14675934050483264
42.009497869018190385759 58.93885068862218901 42.009497869018190385759 21.22349833414924802
43.009497869018190385759 59.28979817318505496 43.009497869018190385759 21.29856299097649242
44.009497869018218807469 59.63148695330080784 44.009497869018218807469 21.36939242040421405
46.009497869018190385759 60.28873858655435924 46.009497869018190385759 21.50541480943127581
48.009497869018218807469 60.91343927224569654 48.009497869018218807469 21.63157623146489783
50.009497869018190385759 61.50785042713955164 50.009497869018190385759 21.74394114356258001
52.009497869018190385759 62.07421973747518251 52.009497869018190385759 21.84588646745617524
54.009497869018218807469 62.61468128335906869 54.009497869018218807469 21.93885922252966836
56.009497869018190385759 63.13092552506240906 56.009497869018190385759 22.02383761583877586
58.009497869018218807469 63.62442584703897097 58.009497869018218807469 22.10418919321865161
60.009497869018190385759 64.09663597357432252 60.009497869018190385759 22.18536972944308161
62.009497869018190385759 64.54878037779032240 62.009497869018190385759 22.26465901724098018
64.009497869018218807469 64.98213668298522805 64.009497869018218807469 22.34204286751467450
66.009497869018190385759 65.39841153915662630 66.009497869018190385759 22.42529271120488232
68.009497869018190385759 65.79907945563101634 68.009497869018190385759 22.51025514266419947
70.009497869018190385759 66.18503100149213481 70.009497869018190385759 22.58335574666385170
72.009497869018190385759 66.55719143899227674 72.009497869018190385759 22.64336143297643744
74.009497869018218807469 66.91641771676340511 74.009497869018218807469 22.70008441337798999
76.009497869018190385759 67.26339874392597551 76.009497869018190385759 22.75368580745804792
78.009497869018190385759 67.59901687378263091 78.009497869018190385759 22.81417942047317382
80.009497869018218807469 67.92381953704048669 80.009497869018218807469 22.85905212305948098
82.009497869018190385759 68.23780330797424654 82.009497869018190385759 22.91007363352933979
84.009497869018218807469 68.54112094952361645 84.009497869018218807469 22.95454223873780109
86.009497869018190385759 68.83402295853146313 86.009497869018190385759 22.97966596006905604
88.009497869018190385759 69.11721497400721148 88.009497869018190385759 23.01004374579827072
91.009497869018218807469 69.52445136193617259 91.009497869018218807469 23.04580669825567085
94.009497869018218807469 69.91201470045136546 94.009497869018218807469 23.09749350072658203
97.009497869018218807469 70.28255881102185754 97.009497869018218807469 23.17794928402281229
99.504748934509137825444 70.57971455917127912 99.504748934509137825444 23.19456464824850173
nan nan nan nan

