Time Pressure difference Time.1 Pressure.1 difference.1
(hr) (psi) (hr) (psi)
0.000200000000020850166 0.47726943087559215 0.000200000000020850166 0.38431986970121373
0.000399999999999067768 0.91562639360468123 0.000399999999999067768 0.88051461256000030
0.000600000000019917934 1.33148637635821809 0.000600000000019917934 1.23703966149455047
0.000799999999998135536 1.73050680825312053 0.000799999999998135536 1.57886731653523293
0.001007140329434719206 2.12940614361934388 0.001007140329434719206 1.91907486634862345
0.001267914553977789183 2.61426426443096327 0.001267914553977789183 2.32833866341406059
0.001596209851982166583 3.20163170723600610 0.001596209851982166583 2.81511161736317517
0.002009509145224797066 3.91064974802010923 0.002009509145224797066 3.39118550374712280
0.002529822128153114136 4.76329801754120918 0.002529822128153114136 4.06940744738190130
0.003184857364431081805 5.78463231767803610 0.003184857364431081805 4.86362897503095759
0.004009497869034817086 7.00300851770365362 0.004009497869034817086 5.78864346738289814
0.005047658755856332391 8.45029119982862120 0.005047658755856332391 6.86012709439040513
0.006354625877790454069 10.16204983638339066 0.006354625877790454069 8.09460368421122034
0.008000000000009777068 12.17775052338223141 0.008000000000009777068 9.50945796801480370
0.010071403294361402914 14.54095722209829589 0.010071403294361402914 11.12302291824326872
0.012679145539692626699 17.29956225644357914 0.012679145539692626699 12.95476280245754097
0.015962098519750611558 20.50606980308170080 0.015962098519750611558 15.02555930000864848
0.020095091452091651263 24.21795526469018967 0.020095091452091651263 17.35808362537711247
0.025298221281360611101 28.49811607101418787 0.025298221281360611101 19.97722932130434259
0.031848573644296607199 33.41542465606831769 0.031848573644296607199 22.91064396247402613
0.040094978690191851456 39.04541609160541071 0.040094978690191851456 26.18952675964484555
0.050476587558435426217 45.47119704072737534 0.050476587558435426217 29.84983025454822680
0.063546258777947173257 52.78467071391411736 0.063546258777947173257 33.93346094652213907
0.080000000000012505552 61.08797597409022728 0.080000000000012505552 38.48805561774658202
0.100714032943542974863 70.49457765329880488 0.100714032943542974863 43.56333636242618468
0.126791455396883634421 81.12898464954388089 0.126791455396883634421 49.20296880389635419
0.159620985197506115583 93.12403640944745575 0.159620985197506115583 55.43360225860248391
0.200950914520774404082 106.61550662199736905 0.200950914520774404082 62.25545699958169621
0.252982212813464002465 121.73497290429600071 0.252982212813464002465 69.63995314820658677
0.318485736442809752589 138.60322502983376580 0.318485736442809752589 77.53267943736048551
0.400949786901833249431 157.32437192065879117 0.400949786901833249431 85.87219756988743313
0.504765875584169521062 177.98771579920833119 0.504765875584169521062 94.60105868983029609
0.635462587779443310865 200.66669117648635279 0.635462587779443310865 103.67963351559531304
0.800000000000011368684 225.42674816873378063 0.800000000000011368684 113.10461265870164027
1.007140329435344483500 252.33230493979391440 1.007140329435344483500 122.93201578411805031
1.267914553968907398485 281.46441974766929661 1.267914553968907398485 133.18754414885984261
1.596209851975117999245 312.88606548682594166 1.596209851975117999245 144.04721221020315625
2.009509145207687197399 346.74031711084035123 2.009509145207687197399 155.60657959745853418
2.529822128134725289783 383.10995197742238361 2.529822128134725289783 168.06722498760862550
3.184857364427983839050 422.19602124965052781 3.184857364427983839050 181.70334465277406366
4.009497869018204596614 464.16128981069249448 4.009497869018204596614 196.61704365071662437
5.009497869018190385759 507.66178627537340162 5.009497869018190385759 212.36049865155754901
6.009497869018190385759 545.44935478900151793 6.009497869018190385759 226.19235046749494700
7.009497869018204596614 579.01035584426165315 7.009497869018204596614 238.52853661787904116
8.009497869018190385759 609.27639177765240674 8.009497869018190385759 249.60021928164411520
9.009497869018204596614 636.87627383433095929 9.009497869018204596614 259.61134900645515700
10.009497869018190385759 662.25931615857257384 10.009497869018190385759 268.69332041157923641
11.009497869018190385759 685.76079574467189559 11.009497869018190385759 276.89284026384967774
12.009497869018204596614 707.63973927941594866 12.009497869018204596614 284.39056707036144189
13.009497869018190385759 728.10073400024293733 13.009497869018190385759 291.26399287687519291
14.009497869018204596614 747.31117507049839332 14.009497869018204596614 297.57002688668166002
15.009497869018190385759 765.40610593373401116 15.009497869018190385759 303.37621368960645896
16.009497869018190385759 782.49757515015937770 16.009497869018190385759 308.74130181424806096
17.009497869018204596614 798.68365521906787308 17.009497869018204596614 313.72001984558460208
18.009497869018190385759 814.04924035275712413 18.009497869018190385759 318.36887900596695999
19.009497869018204596614 828.66649041526295605 19.009497869018204596614 322.70238959053421013
20.009497869018190385759 842.60052174355109855 20.009497869018190385759 326.74209273674381393
21.009497869018190385759 855.90468354227186865 21.009497869018190385759 330.50797167919495223
22.009497869018204596614 868.62462735015276394 22.009497869018204596614 334.03283125450928992
23.009497869018190385759 880.80208927011506148 23.009497869018190385759 337.32876369848293052
24.009497869018204596614 892.47564947221246712 24.009497869018204596614 340.43077929158880579
25.009497869018204596614 903.68148050475679156 25.009497869018204596614 343.35518735183961780
26.009497869018190385759 914.45142219486649537 26.009497869018190385759 346.11913382359671232
27.009497869018204596614 924.81451808828558114 27.009497869018204596614 348.74133877508938895
28.009497869018190385759 934.79599276120995910 28.009497869018190385759 351.22800350848876860
29.009497869018190385759 944.41847159842870951 29.009497869018190385759 353.56870781771283418
30.009497869018190385759 953.70295075534863827 30.009497869018190385759 355.81060935680699231
31.009497869018218807469 962.66866353699094816 31.009497869018218807469 357.93763744234490787
32.009497869018190385759 971.33332563829799255 32.009497869018190385759 359.95841604070324138
33.009497869018190385759 979.71333270189848008 33.009497869018190385759 361.86995788496591331
34.009497869018218807469 987.82444925382969814 34.009497869018218807469 363.71199079302260770
35.009497869018190385759 995.68072003440397566 35.009497869018190385759 365.46765056420252904
36.009497869018190385759 1003.29512818769171645 36.009497869018190385759 367.15981287365724484
37.009497869018190385759 1010.67970054734485075 37.009497869018190385759 368.78695333548654389
38.009497869018218807469 1017.84589116170195666 38.009497869018218807469 370.35627954520458616
39.009497869018190385759 1024.80417937887432345 39.009497869018190385759 371.87874550835800846
40.009497869018190385759 1031.56437849247799932 40.009497869018190385759 373.34958953633258716
41.009497869018218807469 1038.13591243919586304 41.009497869018218807469 374.76756831228010469
42.009497869018190385759 1044.52740942613763764 42.009497869018190385759 376.12755381075606920
43.009497869018190385759 1050.74697873589047958 43.009497869018190385759 377.45786634008334204
44.009497869018218807469 1056.80246322794232583 44.009497869018218807469 378.71312122827470148
46.009497869018190385759 1068.45042272838009012 46.009497869018190385759 381.12374023380988319
48.009497869018218807469 1079.52150710257660648 48.009497869018218807469 383.35960099096126896
50.009497869018190385759 1090.05579368097323822 50.009497869018190385759 385.35095693313684251
52.009497869018190385759 1100.09311645858792872 52.009497869018190385759 387.15765461769552758
54.009497869018218807469 1109.67129607730794305 54.009497869018218807469 388.80533844372024532
56.009497869018190385759 1118.82029124971722922 56.009497869018190385759 390.31134441403162327
58.009497869018218807469 1127.56621362252417384 58.009497869018218807469 391.73535292426390697
60.009497869018190385759 1135.93482642056687837 60.009497869018190385759 393.17405242735236470
62.009497869018190385759 1143.94783002861754539 62.009497869018190385759 394.57923480554848084
64.009497869018218807469 1151.62786677068265817 64.009497869018218807469 395.95064859651000688
66.009497869018190385759 1159.00518227727593512 66.009497869018190385759 397.42602082635318084
68.009497869018190385759 1166.10590813034968960 68.009497869018190385759 398.93174391721549910
70.009497869018190385759 1172.94582719311074470 70.009497869018190385759 400.22724906587603755
72.009497869018190385759 1179.54133716880733118 72.009497869018190385759 401.29068317330461468
74.009497869018218807469 1185.90762509152955317 74.009497869018218807469 402.29594043708772233
76.009497869018190385759 1192.05689996179921764 76.009497869018190385759 403.24587625439539806
78.009497869018190385759 1198.00479904092571815 78.009497869018190385759 404.31795750727457062
80.009497869018218807469 1203.76102401755065330 80.009497869018218807469 405.11320151422080471
82.009497869018190385759 1209.32551418021012068 82.009497869018190385759 406.01741606088103254
84.009497869018218807469 1214.70097682766845537 84.009497869018218807469 406.80549856429774991
86.009497869018190385759 1219.89185132064085337 86.009497869018190385759 407.25074673677943338
88.009497869018190385759 1224.91064315046105548 88.009497869018190385759 407.78910860609158817
91.009497869018218807469 1232.12777691431324456 91.009497869018218807469 408.42290759686437696
94.009497869018218807469 1238.99626052466578585 94.009497869018218807469 409.33891259620992287
97.009497869018218807469 1245.56312559533193962 97.009497869018218807469 410.76476786684872877
99.504748934509137825444 1250.82938579864685380 99.504748934509137825444 411.05922904395953310
nan nan nan nan

