Time Pressure difference Time.1 Pressure.1 difference.1
(hr) (psi) (hr) (psi)
0.000200000000020850166 0.19375044294165886 0.000200000000020850166 0.15601700039594726
0.000399999999999067768 0.37170413157306026 0.000399999999999067768 0.35745028942482771
0.000600000000019917934 0.54052503366266225 0.000600000000019917934 0.50218381242490373
0.000799999999998135536 0.70250981714350824 0.000799999999998135536 0.64095083853076074
0.001007140329434719206 0.86444544074829144 0.001007140329434719206 0.77906017301613406
0.001267914553977789183 1.06127655875802418 0.001267914553977789183 0.94520331320414053
0.001596209851982166583 1.29972196265536910 0.001596209851982166583 1.14281176943113216
0.002009509145224797066 1.58755217043449592 0.002009509145224797066 1.37667248506348727
0.002529822128153114136 1.93368994755983259 0.002529822128153114136 1.65200082895284095
0.003184857364431081805 2.34830684996647587 0.003184857364431081805 1.97441991306115683
0.004009497869034817086 2.84291411612107581 0.004009497869034817086 2.34993520070873130
0.005047658755856332391 3.43044736795550609 0.005047658755856332391 2.78491052891397306
0.006354625877790454069 4.12534625019325762 0.006354625877790454069 3.28605384672524448
0.008000000000009777068 4.94363226576175219 0.008000000000009777068 3.86042259203108751
0.010071403294361402914 5.90299047103990393 0.010071403294361402914 4.51545914706113916
0.012679145539692626699 7.02286304767850567 0.012679145539692626699 5.25906515021395471
0.015962098519750611558 8.32456438714445213 0.015962098519750611558 6.09971764686871509
0.020095091452091651263 9.83142698049335273 0.020095091452091651263 7.04662015512958018
0.025298221281360611101 11.56898442381296910 0.025298221281360611101 8.10987836084298763
0.031848573644296607199 13.56519590269858355 0.031848573644296607199 9.30071596595732508
0.040094978690191851456 15.85072534126301314 0.040094978690191851456 10.63179848079626133
0.050476587558435426217 18.45931039741126867 0.050476587558435426217 12.11772105944826272
0.063546258777947173257 21.42825974122845878 0.063546258777947173257 13.77549590148782599
0.080000000000012505552 24.79903726847863155 0.080000000000012505552 15.62446144983755936
0.100714032943542974863 28.61770472132349852 0.100714032943542974863 17.68480269258366633
0.126791455396883634421 32.93480724801232640 0.126791455396883634421 19.97424595644068290
0.159620985197506115583 37.80427183392929180 0.159620985197506115583 22.50360969432295377
0.200950914520774404082 43.28121663808356345 0.200950914520774404082 25.27298332741639442
0.252982212813464002465 49.41905639845244735 0.252982212813464002465 28.27076467928762327
0.318485736442809752589 56.26682646195446580 0.318485736442809752589 31.47486516344257979
0.400949786901833249431 63.86679048189754582 0.400949786901833249431 34.86034352758753130
0.504765875584169521062 72.25520124137139533 0.504765875584169521062 38.40387805747029404
0.635462587779443310865 81.46186992901247947 0.635462587779443310865 42.08938100397991633
0.800000000000011368684 91.51336641959568396 0.800000000000011368684 45.91550890063280121
1.007140329435344483500 102.43584166051194018 1.007140329435344483500 49.90500327286297022
1.267914553968907398485 114.26220174709459343 1.267914553968907398485 54.06829770306379856
1.596209851975117999245 127.01801091079612149 1.596209851975117999245 58.47684633611695659
2.009509145207687197399 140.76135130361700476 2.009509145207687197399 63.16944218768301056
2.529822128134725289783 155.52582689992541987 2.529822128134725289783 68.22791735390381973
3.184857364427983839050 171.39305564836911344 3.184857364427983839050 73.76358348756814109
4.009497869018204596614 188.42911294822783930 4.009497869018204596614 79.81789076102759850
5.009497869018190385759 206.08840540019076570 5.009497869018190385759 86.20904255603983302
6.009497869018190385759 221.42849982813694965 6.009497869018190385759 91.82416735279183229
7.009497869018204596614 235.05279335997457224 7.009497869018204596614 96.83211752982863629
8.009497869018190385759 247.33947565895294929 8.009497869018190385759 101.32673478674892920
9.009497869018204596614 258.54381649387420339 9.009497869018204596614 105.39081409509698517
10.009497869018190385759 268.84821768819796262 10.009497869018190385759 109.07769590376024382
11.009497869018190385759 278.38878698725710592 11.009497869018190385759 112.40634111024618846
12.009497869018204596614 287.27067785794469046 12.009497869018204596614 115.45008913984892729
13.009497869018190385759 295.57694373991057546 13.009497869018190385759 118.24039836224243061
14.009497869018204596614 303.37553972297661176 14.009497869018204596614 120.80037141638017317
15.009497869018190385759 310.72128751855342443 15.009497869018190385759 123.15742844139194290
16.009497869018190385759 317.65967392459447183 16.009497869018190385759 125.33541876158348316
17.009497869018204596614 324.23051207169055488 17.009497869018204596614 127.35655978057431525
18.009497869018190385759 330.46826528426976211 18.009497869018190385759 129.24379257452261527
19.009497869018204596614 336.40222730023998565 19.009497869018204596614 131.00300768643941751
20.009497869018190385759 342.05883249463914808 20.009497869018190385759 132.64294987275337689
21.009497869018190385759 347.45973830321065634 21.009497869018190385759 134.17173144970450949
22.009497869018204596614 352.62347724716232733 22.009497869018204596614 135.60266974125065076
23.009497869018190385759 357.56699235260157366 23.009497869018190385759 136.94067366443118772
24.009497869018204596614 362.30594547539658379 24.009497869018204596614 138.19995585661678206
25.009497869018204596614 366.85502108265205834 25.009497869018204596614 139.38713718515117534
26.009497869018190385759 371.22714474681885122 26.009497869018190385759 140.50917815095854735
27.009497869018204596614 375.43410687283062543 27.009497869018204596614 141.57367828016953126
28.009497869018190385759 379.48614753158835811 28.009497869018190385759 142.58315502930813068
29.009497869018190385759 383.39245163635268909 29.009497869018190385759 143.53337825201822398
30.009497869018190385759 387.16154270475755084 30.009497869018190385759 144.44349188622726388
31.009497869018218807469 390.80122861454645999 31.009497869018218807469 145.30697193976070025
32.009497869018190385759 394.31870116037487151 32.009497869018190385759 146.12731936448608394
33.009497869018190385759 397.72061625359202708 33.009497869018190385759 146.90332146113817657
34.009497869018218807469 401.01337359990895948 34.009497869018218807469 147.65110598023957778
35.009497869018190385759 404.20267474750880865 35.009497869018190385759 148.36382679643958227
36.009497869018190385759 407.29379028309119803 36.009497869018190385759 149.05077042990160407
37.009497869018190385759 410.29160257329516526 37.009497869018190385759 149.71131804685111888
38.009497869018218807469 413.20076145906074316 38.009497869018218807469 150.34839561474606739
39.009497869018190385759 416.02552109581256445 39.009497869018190385759 150.96644997909831432
40.009497869018190385759 418.76986525008123863 40.009497869018190385759 151.56354810330742566
41.009497869018218807469 421.43761962657015374 41.009497869018218807469 152.13918525529865633
42.009497869018190385759 424.03228689869848722 42.009497869018190385759 152.69127968179597588
43.009497869018190385759 426.55715907930357389 43.009497869018190385759 153.23132818508088349
44.009497869018218807469 429.01542002513639318 44.009497869018218807469 153.74090658013031430
46.009497869018190385759 433.74398038659944632 46.009497869018190385759 154.71951210118612607
48.009497869018218807469 438.23835476421209023 48.009497869018218807469 155.62717344303911204
50.009497869018190385759 442.51481279525404489 50.009497869018190385759 156.43557656063077843
52.009497869018190385759 446.58952533350208114 52.009497869018190385759 157.16901652975414549
54.009497869018218807469 450.47784589972218328 54.009497869018218807469 157.83790385097734088
56.009497869018190385759 454.19193641642124248 56.009497869018190385759 158.44927618061785779
58.009497869018218807469 457.74239706619704293 58.009497869018218807469 159.02736114010085089
60.009497869018190385759 461.13968658765963937 60.009497869018190385759 159.61140999793772721
62.009497869018190385759 464.39261438465820220 62.009497869018190385759 160.18185237403926635
64.009497869018218807469 467.51037224703259199 64.009497869018218807469 160.73858618573055423
66.009497869018190385759 470.50523857337685740 66.009497869018190385759 161.33752256116846979
68.009497869018190385759 473.38782163912316037 68.009497869018190385759 161.94878005416742894
70.009497869018190385759 476.16452859406848575 70.009497869018190385759 162.47469828849827422
72.009497869018190385759 478.84201618608329909 72.009497869018190385759 162.90640586502490805
74.009497869018218807469 481.42644968449235421 74.009497869018218807469 163.31449619624720526
76.009497869018190385759 483.92278540768967332 76.009497869018190385759 163.70012844810094066
78.009497869018190385759 486.33737139749172229 78.009497869018190385759 164.13534638618199324
80.009497869018218807469 488.67414611370787725 80.009497869018218807469 164.45818055201127095
82.009497869018190385759 490.93308491014801120 82.009497869018190385759 164.82525197455828447
84.009497869018218807469 493.11528683129483852 84.009497869018218807469 165.14517888425251613
86.009497869018190385759 495.22255406276804024 86.009497869018190385759 165.32593010160795188
88.009497869018190385759 497.25996328521847545 88.009497869018190385759 165.54448139338200008
91.009497869018218807469 500.18980285392973428 91.009497869018218807469 165.80177596800606921
94.009497869018218807469 502.97810576158065032 94.009497869018218807469 166.17363379689399494
97.009497869018218807469 505.64396477929614093 97.009497869018218807469 166.75246846005302359
99.504748934509137825444 507.78183530070452889 99.504748934509137825444 166.87200677489894929
nan nan nan nan

