Time Pressure difference Time.1 Pressure.1 difference.1
(hr) (psi) (hr) (psi)
0.000200000000020850166 0.33289168767968419 0.000200000000020850166 0.26806009720539198
0.000399999999999067768 0.63864223378382934 0.000399999999999067768 0.61415204167586224
0.000600000000019917934 0.92870131266364742 0.000600000000019917934 0.86282546922425540
0.000799999999998135536 1.20701493679096972 0.000799999999998135536 1.10124757971501341
0.001007140329434719206 1.48524409703857030 0.001007140329434719206 1.33853967950648500
0.001267914553977789183 1.82342883647614218 0.001267914553977789183 1.62399797056309847
0.001596209851982166583 2.23311302463953387 0.001596209851982166583 1.96351829110754394
0.002009509145224797066 2.72764755151872818 0.002009509145224797066 2.36532531217471709
0.002529822128153114136 3.32236303731322602 0.002529822128153114136 2.83837980264098189
0.003184857364431081805 4.03473570747135746 0.003184857364431081805 3.39234309386955468
0.004009497869034817086 4.88454355858640454 0.004009497869034817086 4.03753345295515587
0.005047658755856332391 5.89401188702779955 0.005047658755856332391 4.78488488558578418
0.006354625877790454069 7.08795012098841593 0.006354625877790454069 5.64592263240437742
0.008000000000009777068 8.49388555314277838 0.008000000000009777068 6.63277240715766059
0.010071403294361402914 10.14220370506856028 0.010071403294361402914 7.75822131444867402
0.012679145539692626699 12.06630909736268364 0.012679145539692626699 9.03584552835988397
0.015962098519750611558 14.30282298177328748 0.015962098519750611558 10.48020985658910398
0.020095091452091651263 16.89183400123375378 0.020095091452091651263 12.10712729356240658
0.025298221281360611101 19.87721262006475342 0.025298221281360611101 13.93396089025146267
0.031848573644296607199 23.30699682123887584 0.031848573644296607199 15.97999461332435978
0.040094978690191851456 27.23387172533606204 0.040094978690191851456 18.26698966777735933
0.050476587558435426217 31.71580357856376864 0.050476587558435426217 20.82002266970840409
0.063546258777947173257 36.81689414998712095 0.063546258777947173257 23.66832307398487600
0.080000000000012505552 42.60838449603471645 0.080000000000012505552 26.84511716284831806
0.100714032943542974863 49.16941544783380635 0.100714032943542974863 30.38508570733486991
0.126791455396883634421 56.58683098596712568 0.126791455396883634421 34.31868513751390992
0.159620985197506115583 64.95328558339203084 0.159620985197506115583 38.66450314275564892
0.200950914520774404082 74.36348032412041675 0.200950914520774404082 43.42269336177720618
0.252982212813464002465 84.90918956490864389 0.252982212813464002465 48.57332155321618217
0.318485736442809752589 96.67466322613798013 0.318485736442809752589 54.07843628467934138
0.400949786901833249431 109.73251646503631207 0.400949786901833249431 59.89518482539170208
0.504765875584169521062 124.14503688189296327 0.504765875584169521062 65.98349704854933861
0.635462587779443310865 139.96344447262760013 0.635462587779443310865 72.31573184081491945
0.800000000000011368684 157.23339018038640802 0.800000000000011368684 78.88958092965867763
1.007140329435344483500 175.99980516960545174 1.007140329435344483500 85.74411759237074193
1.267914553968907398485 196.31922693998879481 1.267914553968907398485 92.89726825429879398
1.596209851975117999245 218.23557859190839281 1.596209851975117999245 100.47180161996929826
2.009509145207687197399 241.84865378420681736 2.009509145207687197399 108.53436978192640083
2.529822128134725289783 267.21618907516136687 2.529822128134725289783 117.22557228759535519
3.184857364427983839050 294.47841607538322251 3.184857364427983839050 126.73665888790664269
4.009497869018204596614 323.74886201529494656 4.009497869018204596614 137.13884706045280382
5.009497869018190385759 354.09011738642817591 5.009497869018190385759 148.11978354223057863
6.009497869018190385759 380.44665028386469885 6.009497869018190385759 157.76739178375430583
7.009497869018204596614 403.85518550265902604 7.009497869018204596614 166.37178494507239179
8.009497869018190385759 424.96550837156007674 8.009497869018190385759 174.09419683437559456
9.009497869018204596614 444.21620980607724505 9.009497869018204596614 181.07688136030176906
10.009497869018190385759 461.92068290057176227 10.009497869018190385759 187.41148524005134846
11.009497869018190385759 478.31278073100156689 11.009497869018190385759 193.13058607745003314
12.009497869018204596614 493.57317238141075677 12.009497869018204596614 198.36019176537752173
13.009497869018190385759 507.84455584656456040 13.009497869018190385759 203.15435239844740067
14.009497869018204596614 521.24368794102167612 14.009497869018204596614 207.55276169995821078
15.009497869018190385759 533.86476040832542367 15.009497869018190385759 211.60253149196685740
16.009497869018190385759 545.78592624109853659 16.009497869018190385759 215.34463841275925233
17.009497869018204596614 557.07559023900512329 17.009497869018204596614 218.81725522145006835
18.009497869018190385759 567.79296544980707040 18.009497869018190385759 222.05979805275123340
19.009497869018204596614 577.98838281315374843 19.009497869018204596614 225.08238772380522619
20.009497869018190385759 587.70726046376205431 20.009497869018190385759 227.90004900917085706
21.009497869018190385759 596.98680905377898398 21.009497869018190385759 230.52672005837266056
22.009497869018204596614 605.85887017369577734 22.009497869018204596614 232.98528198786308963
23.009497869018190385759 614.35255442821505767 23.009497869018190385759 235.28416903734313337
24.009497869018204596614 622.49477118359641281 24.009497869018204596614 237.44780060306746350
25.009497869018204596614 630.31075050880372146 25.009497869018204596614 239.48755230653389958
26.009497869018190385759 637.82270043372352575 26.009497869018190385759 241.41538330956197456
27.009497869018204596614 645.05087860389824073 27.009497869018204596614 243.24435071303261680
28.009497869018190385759 652.01287896353983342 28.009497869018190385759 244.97877987661055954
29.009497869018190385759 658.72448254122377875 29.009497869018190385759 246.61140278821662264
30.009497869018190385759 665.20033399079966330 30.009497869018190385759 248.17511154197353562
31.009497869018218807469 671.45384839178836955 31.009497869018218807469 249.65869696213712814
32.009497869018190385759 677.49738230257469240 32.009497869018190385759 251.06817419766917965
33.009497869018190385759 683.34237155539938158 33.009497869018190385759 252.40145965330691524
34.009497869018218807469 688.99981178362736500 34.009497869018218807469 253.68626317068188314
35.009497869018190385759 694.47949908355769821 35.009497869018190385759 254.91082210199076030
36.009497869018190385759 699.79048909643074694 36.009497869018190385759 256.09109205137531262
37.009497869018190385759 704.94117044446466025 37.009497869018190385759 257.22600977161681612
38.009497869018218807469 709.93953223661026186 38.009497869018218807469 258.32060250410040680
39.009497869018190385759 714.79288373604867957 39.009497869018190385759 259.38251058184840758
40.009497869018190385759 719.50806963817035466 40.009497869018190385759 260.40841276436992757
41.009497869018218807469 724.09166306495637855 41.009497869018218807469 261.39744184790697545
42.009497869018190385759 728.54968212324649812 42.009497869018190385759 262.34602107490042044
43.009497869018190385759 732.88778297409294282 43.009497869018190385759 263.27390363845944421
44.009497869018218807469 737.11143595052396904 44.009497869018218807469 264.14943408555211590
46.009497869018190385759 745.23579641713024557 46.009497869018190385759 265.83082194991436609
48.009497869018218807469 752.95779100414813456 48.009497869018218807469 267.39031730560776623
50.009497869018190385759 760.30537333547499657 50.009497869018190385759 268.77927246903743708
52.009497869018190385759 767.30632731045716355 52.009497869018190385759 270.03942994494440200
54.009497869018218807469 773.98703253041060179 54.009497869018218807469 271.18867650071399567
56.009497869018190385759 780.36838496257701081 56.009497869018190385759 272.23910386245154314
58.009497869018218807469 786.46859727589844624 58.009497869018218807469 273.23233863839720925
60.009497869018190385759 792.30563911779347563 60.009497869018190385759 274.23582026672698930
62.009497869018190385759 797.89464633657485138 62.009497869018190385759 275.21592396311763196
64.009497869018218807469 803.25141177578962015 64.009497869018218807469 276.17247433455639793
66.009497869018190385759 808.39703152568608857 66.009497869018190385759 277.20153490239368921
68.009497869018190385759 813.34973215988327411 68.009497869018190385759 278.25176495793243703
70.009497869018190385759 818.12052210177785128 70.009497869018190385759 279.15536964626153349
72.009497869018190385759 822.72083862087663420 72.009497869018190385759 279.89710660206981174
74.009497869018218807469 827.16127455443665895 74.009497869018218807469 280.59826566536685277
76.009497869018190385759 831.45034558464055863 76.009497869018190385759 281.26083845330089162
78.009497869018190385759 835.59895857870196778 78.009497869018190385759 282.00860672529341855
80.009497869018218807469 839.61388038841698744 80.009497869018218807469 282.56328318781856979
82.009497869018190385759 843.49506866801482374 82.009497869018190385759 283.19396574779318598
84.009497869018218807469 847.24441173716684261 84.009497869018218807469 283.74364711773120007
86.009497869018190385759 850.86500601518059739 86.009497869018190385759 284.05420422863141994
88.009497869018190385759 854.36557398425577503 88.009497869018190385759 284.42970741333971318
91.009497869018218807469 859.39946822393335424 91.009497869018218807469 284.87177724232702758
94.009497869018218807469 864.19018171391257965 94.009497869018218807469 285.51068355064802518
97.009497869018218807469 868.77051863624251382 97.009497869018218807469 286.50520642750416300
99.504748934509137825444 872.44369385642289672 99.504748934509137825444 286.71059079084955101
nan nan nan nan

