Time Pressure difference Time.1 Pressure.1 difference.1
(hr) (psi) (hr) (psi)
0.000200000000020850166 0.55058040928594953 0.000200000000020850166 0.44335332931049104
0.000399999999999067768 1.05627120014583920 0.000399999999999067768 1.01576607342344860
0.000600000000019917934 1.53600936206841476 0.000600000000019917934 1.42705515808775729
0.000799999999998135536 1.99632133365877240 0.000799999999998135536 1.82138925543876384
0.001007140329434719206 2.45649360768626446 0.001007140329434719206 2.21385439127364725
0.001267914553977789183 3.01582836774481056 0.001267914553977789183 2.68598316030211315
0.001596209851982166583 3.69341839580830733 0.001596209851982166583 3.24752688147225221
0.002009509145224797066 4.51134516386018891 0.002009509145224797066 3.91208860620357779
0.002529822128153114136 5.49496448418547079 0.002529822128153114136 4.69448884212081463
0.003184857364431081805 6.67318085550318951 0.003184857364431081805 5.61070677997301637
0.004009497869034817086 8.07870575083054554 0.004009497869034817086 6.67780813792133632
0.005047658755856332391 9.74829831202800179 0.005047658755856332391 7.91387702424974648
0.006354625877790454069 11.72299166078084021 0.006354625877790454069 9.33797540999915121
0.008000000000009777068 14.04831408340019294 0.008000000000009777068 10.97015840824278143
0.010071403294361402914 16.77452118411339654 0.010071403294361402914 12.83157502794207794
0.012679145539692626699 19.95686178799760668 0.012679145539692626699 14.94467934578173995
0.015962098519750611558 23.65590497659582070 0.015962098519750611558 17.33356057179680931
0.020095091452091651263 27.93795466271470218 0.020095091452091651263 20.02437233272344130
0.025298221281360611101 32.87556963678125754 0.025298221281360611101 23.04583194432601445
0.031848573644296607199 38.54820148411643288 0.031848573644296607199 26.42983378743085154
0.040094978690191851456 45.04298784235358255 0.040094978690191851456 30.21236942805424164
0.050476587558435426217 52.45580097488299742 0.050476587558435426217 34.43491389866378682
0.063546258777947173257 60.89266088627083917 0.063546258777947173257 39.14581074708510045
0.080000000000012505552 70.47139548108214058 0.080000000000012505552 44.40001400417160227
0.100714032943542974863 81.32289835866444605 0.100714032943542974863 50.25488332718756368
0.126791455396883634421 93.59080360825124956 0.126791455396883634421 56.76079159822526066
0.159620985197506115583 107.42835548174501525 0.159620985197506115583 63.94848160240036350
0.200950914520774404082 122.99218318775871239 0.200950914520774404082 71.81820744779329857
0.252982212813464002465 140.43407532533205995 0.252982212813464002465 80.33699924307217088
0.318485736442809752589 159.89337558300576347 0.318485736442809752589 89.44208787758201140
0.400949786901833249431 181.49018453543084206 0.400949786901833249431 99.06259782356920596
0.504765875584169521062 205.32752167432181523 0.504765875584169521062 109.13225579265690612
0.635462587779443310865 231.49010141989646172 0.635462587779443310865 119.60534524683096436
0.800000000000011368684 260.05342735452671832 0.800000000000011368684 130.47804845894106052
1.007140329435344483500 291.09181259512268980 1.007140329435344483500 141.81498999547159201
1.267914553968907398485 324.69876635467807091 1.267914553968907398485 153.64581895542451662
1.596209851975117999245 360.94693448010013981 1.596209851975117999245 166.17358649954471161
2.009509145207687197399 400.00136895545216476 2.009509145207687197399 179.50853069550075247
2.529822128134725289783 441.95756215577256398 2.529822128134725289783 193.88319371611277120
3.184857364427983839050 487.04744771119567304 3.184857364427983839050 209.61388975617819597
4.009497869018204596614 535.45879200731928904 4.009497869018204596614 226.81840772245678295
5.009497869018190385759 585.64118291328338728 5.009497869018190385759 244.98013637546449672
6.009497869018190385759 629.23311148072900778 6.009497869018190385759 260.93663000638917993
7.009497869018204596614 667.94925062911681835 7.009497869018204596614 275.16771622376012374
8.009497869018190385759 702.86430148644546989 8.009497869018190385759 287.94006487663017424
9.009497869018204596614 734.70366385904014805 9.009497869018204596614 299.48895433973507352
10.009497869018190385759 763.98566879735017210 10.009497869018190385759 309.96596210489394707
11.009497869018190385759 791.09709352363404378 11.009497869018190385759 319.42496933259150182
12.009497869018204596614 816.33675252296245617 12.009497869018204596614 328.07438458273674087
13.009497869018190385759 839.94065865858760844 13.009497869018190385759 336.00360306799387899
14.009497869018204596614 862.10191983054357934 14.009497869018204596614 343.27827553071733746
15.009497869018190385759 882.97632283264613307 15.009497869018190385759 349.97632174851145237
16.009497869018190385759 902.69312744595174536 16.009497869018190385759 356.16551431863098287
17.009497869018204596614 921.36547059754536804 17.009497869018204596614 361.90898841120730367
18.009497869018190385759 939.09128667653487810 18.009497869018190385759 367.27193565578630796
19.009497869018204596614 955.95381966400248075 19.009497869018204596614 372.27109520161940281
20.009497869018190385759 972.02818809287407475 20.009497869018190385759 376.93131701292077196
21.009497869018190385759 987.37593587321634914 21.009497869018190385759 381.27565384935337534
22.009497869018204596614 1002.04972684907909297 22.009497869018204596614 385.34194953498251834
23.009497869018190385759 1016.09770799812656605 23.009497869018190385759 389.14415373367313578
24.009497869018204596614 1029.56438559803814314 24.009497869018204596614 392.72265448057896720
25.009497869018204596614 1042.49148848197660300 25.009497869018204596614 396.09626628676170412
26.009497869018190385759 1054.91574723420353621 26.009497869018190385759 399.28476879963511692
27.009497869018204596614 1066.87066663476207395 27.009497869018204596614 402.30975758380219531
28.009497869018190385759 1078.38534588127049574 28.009497869018190385759 405.17838649255133987
29.009497869018190385759 1089.48588573110282596 29.009497869018190385759 407.87863472388193031
30.009497869018190385759 1100.19650745444596396 30.009497869018190385759 410.46490358402814991
31.009497869018218807469 1110.53939868844099692 31.009497869018218807469 412.91865385198406102
32.009497869018190385759 1120.53499634762897585 32.009497869018190385759 415.24983417861687940
33.009497869018190385759 1130.20221452758210035 33.009497869018190385759 417.45499843782903326
34.009497869018218807469 1139.55923926460604889 34.009497869018218807469 419.57997683959979440
35.009497869018190385759 1148.62227264156967976 35.009497869018190385759 421.60531475744988938
36.009497869018190385759 1157.40629207859115013 36.009497869018190385759 423.55740168497140985
37.009497869018190385759 1165.92517179129436045 37.009497869018190385759 425.43447908294371018
38.009497869018218807469 1174.19212522729230841 38.009497869018218807469 427.24486166970308432
39.009497869018190385759 1182.21924141512749884 39.009497869018190385759 429.00118604098980768
40.009497869018190385759 1190.01784101953580830 40.009497869018190385759 430.69795908893536307
41.009497869018218807469 1197.59879554114127131 41.009497869018218807469 432.33374651698767366
42.009497869018190385759 1204.97205852294246142 42.009497869018190385759 433.90263260927349620
43.009497869018190385759 1212.14698487400551130 43.009497869018190385759 435.43728781551936891
44.009497869018218807469 1219.13262215637223562 44.009497869018218807469 436.88535615048613181
46.009497869018190385759 1232.56976665844467789 46.009497869018190385759 439.66625832615051195
48.009497869018218807469 1245.34142512146763693 48.009497869018218807469 442.24555850994897810
50.009497869018190385759 1257.49383095485313788 50.009497869018190385759 444.54279671283489961
52.009497869018190385759 1269.07293685504828318 52.009497869018190385759 446.62701222354843367
54.009497869018218807469 1280.12237290422967817 54.009497869018218807469 448.52778854949548304
56.009497869018190385759 1290.67669962349827983 56.009497869018190385759 450.26512459048166193
58.009497869018218807469 1300.76603953946346337 58.009497869018218807469 451.90786795024797584
60.009497869018190385759 1310.42011323751921736 60.009497869018190385759 453.56755891305857631
62.009497869018190385759 1319.66395439038001314 62.009497869018190385759 455.18858435248228034
64.009497869018218807469 1328.52368329658679613 64.009497869018218807469 456.77065418029997090
66.009497869018190385759 1337.03419146720216304 66.009497869018190385759 458.47265098463321920
68.009497869018190385759 1345.22562442623393508 68.009497869018190385759 460.20966069446808433
70.009497869018190385759 1353.11618936383933942 70.009497869018190385759 461.70416193179431730
72.009497869018190385759 1360.72480275273073858 72.009497869018190385759 462.93094485196269261
74.009497869018218807469 1368.06898443160753231 74.009497869018218807469 464.09061467350556995
76.009497869018190385759 1375.16281876470884526 76.009497869018190385759 465.18646539692008446
78.009497869018190385759 1382.02434497511148948 78.009497869018190385759 466.42322370745154103
80.009497869018218807469 1388.66475497949431883 80.009497869018218807469 467.34062118254939833
82.009497869018190385759 1395.08397874080674228 82.009497869018190385759 468.38372761882209261
84.009497869018218807469 1401.28513941248274932 84.009497869018218807469 469.29286354752844090
86.009497869018190385759 1407.27335826331000135 86.009497869018190385759 469.80650407252295508
88.009497869018190385759 1413.06306169081403823 88.009497869018190385759 470.42756102520911554
91.009497869018218807469 1421.38878339958387187 91.009497869018218807469 471.15871471989368047
94.009497869018218807469 1429.31230054256116091 94.009497869018218807469 472.21542268152120414
97.009497869018218807469 1436.88786902533593093 97.009497869018218807469 473.86029647335527670
99.504748934509137825444 1442.96305320972396657 99.504748934509137825444 474.19998836419159716
nan nan nan nan

