Time Pressure difference Time.1 Pressure.1 difference.1
(hr) (psi) (hr) (psi)
0.000200000000020850166 0.52888634424614989 0.000200000000020850166 0.42588424432407229
0.000399999999999067768 1.01465181861835352 0.000399999999999067768 0.97574268194344871
0.000600000000019917934 1.47548725405213221 0.000600000000019917934 1.37082608256527760
0.000799999999998135536 1.91766193328363044 0.000799999999998135536 1.74962255923261711
0.001007140329434719206 2.35970241933993075 0.001007140329434719206 2.12662371553052809
0.001267914553977789183 2.89699817390703984 0.001267914553977789183 2.58014958469238342
0.001596209851982166583 3.54788968184303455 0.001596209851982166583 3.11956726250119898
0.002009509145224797066 4.33358835713200286 0.002009509145224797066 3.75794381057870819
0.002529822128153114136 5.27845093793359688 0.002529822128153114136 4.50951577633072809
0.003184857364431081805 6.41024302288146064 0.003184857364431081805 5.38963273565342771
0.004009497869034817086 7.76038718184401688 0.004009497869034817086 6.41468798031302345
0.005047658755856332391 9.36419416658124604 0.005047658755856332391 7.60205306541381809
0.006354625877790454069 11.26108030458159703 0.006354625877790454069 8.97003887889864160
0.008000000000009777068 13.49477996870099972 0.008000000000009777068 10.53791031878756534
0.010071403294361402914 16.11356858310892903 0.010071403294361402914 12.32598307711283958
0.012679145539692626699 19.17051804906835244 0.012679145539692626699 14.35582649112457965
0.015962098519750611558 22.72381089463755899 0.015962098519750611558 16.65058060361459980
0.020095091452091651263 26.83713851431969033 0.020095091452091651263 19.23536853156993587
0.025298221281360611101 31.58020072446243276 0.025298221281360611101 22.13777606608491055
0.031848573644296607199 37.02931854520423371 0.031848573644296607199 25.38844088004566757
0.040094978690191851456 43.26819620182605775 0.040094978690191851456 29.02193639352493193
0.050476587558435426217 50.38892838212265701 0.050476587558435426217 33.07810343254795526
0.063546258777947173257 58.49335767200200564 0.063546258777947173257 37.60338070406136524
0.080000000000012505552 67.69466930044167441 0.080000000000012505552 42.65055693063766284
0.100714032943542974863 78.11859937442359580 0.100714032943542974863 48.27473167435001500
0.126791455396883634421 89.90312248781744131 0.126791455396883634421 54.52429301622997571
0.159620985197506115583 103.19544473586104516 0.159620985197506115583 61.42877240882751266
0.200950914520774404082 118.14602379584974301 0.200950914520774404082 68.98841394781231884
0.252982212813464002465 134.90066746604586001 0.252982212813464002465 77.17154682724459747
0.318485736442809752589 153.59322899074058455 0.318485736442809752589 85.91787517588380751
0.400949786901833249431 174.33907672085547347 0.400949786901833249431 95.15931611584703376
0.504765875584169521062 197.23717095617598716 0.504765875584169521062 104.83220767039188104
0.635462587779443310865 222.36888818460161588 0.635462587779443310865 114.89263463248572350
0.800000000000011368684 249.80675698322065159 0.800000000000011368684 125.33692970172738512
1.007140329435344483500 279.62216237058663637 1.007140329435344483500 136.22717109619350140
1.267914553968907398485 311.90492909342043504 1.267914553968907398485 147.59183967593091324
1.596209851975117999245 346.72484059433537595 1.596209851975117999245 159.62598594453547207
2.009509145207687197399 384.24044545041397214 2.009509145207687197399 172.43550435016175015
2.529822128134725289783 424.54347342952610234 2.529822128134725289783 186.24377439849419602
3.184857364427983839050 467.85671947257515058 3.184857364427983839050 201.35464681741575532
4.009497869018204596614 514.36055156137865652 4.009497869018204596614 217.88126937469692734
5.009497869018190385759 562.56564717349363036 5.009497869018190385759 235.32738643675736512
6.009497869018190385759 604.43995899031972385 6.009497869018190385759 250.65515953059392018
7.009497869018204596614 641.63059809074138684 7.009497869018204596614 264.32551001385655809
8.009497869018190385759 675.16992004200665178 8.009497869018190385759 276.59460036382819226
9.009497869018204596614 705.75474232111605488 9.009497869018204596614 287.68843847580529882
10.009497869018190385759 733.88297260832416669 10.009497869018190385759 297.75262935891311145
11.009497869018190385759 759.92614826251258364 11.009497869018190385759 306.83893113878013992
12.009497869018204596614 784.17130982844355458 12.009497869018204596614 315.14754062499304155
13.009497869018190385759 806.84517074948553272 13.009497869018190385759 322.76433066449953913
14.009497869018204596614 828.13323005461188586 14.009497869018204596614 329.75236521768636067
15.009497869018190385759 848.18513619929456127 15.009497869018190385759 336.18649385352938452
16.009497869018190385759 867.12505584821724369 16.009497869018190385759 342.13181878161975646
17.009497869018204596614 885.06166808758780462 17.009497869018204596614 347.64898750913528147
18.009497869018190385759 902.08904847868222987 18.009497869018190385759 352.80062297369687485
19.009497869018204596614 918.28716100876329165 19.009497869018204596614 357.60280476568601671
20.009497869018190385759 933.72816437725805372 20.009497869018190385759 362.07940370670513630
21.009497869018190385759 948.47117753038594401 21.009497869018190385759 366.25256422757178143
22.009497869018204596614 962.56678924225388982 22.009497869018204596614 370.15863902341396852
23.009497869018190385759 976.06124939493952297 23.009497869018190385759 373.81102811101482075
24.009497869018204596614 988.99731062202852172 24.009497869018204596614 377.24852814914311239
25.009497869018204596614 1001.41505754994216204 25.009497869018204596614 380.48921231622347250
26.009497869018190385759 1013.34977349807309110 26.009497869018190385759 383.55208089856256493
27.009497869018204596614 1024.83364308529439768 27.009497869018204596614 386.45787854857087495
28.009497869018190385759 1035.89461893757902544 28.009497869018190385759 389.21347724216548158
29.009497869018190385759 1046.55777338571942892 29.009497869018190385759 391.80732982307677048
30.009497869018190385759 1056.84637332920306108 30.009497869018190385759 394.29169406780960117
31.009497869018218807469 1066.78173216403229162 31.009497869018218807469 396.64876124096838339
32.009497869018190385759 1076.38348154588811667 32.009497869018190385759 398.88808799494853474
33.009497869018190385759 1085.66979031385926646 33.009497869018190385759 401.00636398851236208
34.009497869018218807469 1094.65812793488635180 34.009497869018218807469 403.04761362173508132
35.009497869018190385759 1103.36405809455118288 35.009497869018190385759 404.99314882271346505
36.009497869018190385759 1111.80196807005972914 36.009497869018190385759 406.86831928162331451
37.009497869018190385759 1119.98518540277882494 37.009497869018190385759 408.67143574951251139
38.009497869018218807469 1127.92640290176041162 38.009497869018218807469 410.41048532673926275
39.009497869018190385759 1135.63723326154240567 39.009497869018190385759 412.09760669970080471
40.009497869018190385759 1143.12855108805933924 40.009497869018190385759 413.72752320092024547
41.009497869018218807469 1150.41079952117775065 41.009497869018218807469 415.29885704824766890
42.009497869018190385759 1157.49353991266343655 42.009497869018190385759 416.80592561787545947
43.009497869018190385759 1164.38575856782858864 43.009497869018190385759 418.28011207278831307
44.009497869018218807469 1171.09614655510199555 44.009497869018218807469 419.67112336738273370
46.009497869018190385759 1184.00383835260913656 46.009497869018190385759 422.34245195188645994
48.009497869018218807469 1196.27226570771426850 48.009497869018218807469 424.82012210126890750
50.009497869018190385759 1207.94584033299088333 50.009497869018190385759 427.02684412496506638
52.009497869018190385759 1219.06870428874890422 52.009497869018190385759 429.02893701365320567
54.009497869018218807469 1229.68276853707925511 54.009497869018218807469 430.85481862023544863
56.009497869018190385759 1239.82123183942007927 56.009497869018190385759 432.52369984438928441
58.009497869018218807469 1249.51302982934885222 58.009497869018218807469 434.10171554459964227
60.009497869018190385759 1258.78671203658427658 60.009497869018190385759 435.69601107545162222
62.009497869018190385759 1267.66632575271546557 62.009497869018190385759 437.25316458859367685
64.009497869018218807469 1276.17696207973767741 64.009497869018218807469 438.77289742591318600
66.009497869018190385759 1284.35213772732595316 66.009497869018190385759 440.40783185616254514
68.009497869018190385759 1292.22081042030913522 68.009497869018190385759 442.07639960732188911
70.009497869018190385759 1299.80046994597068988 70.009497869018190385759 443.51201424698177789
72.009497869018190385759 1307.10928742687588056 72.009497869018190385759 444.69045925317612955
74.009497869018218807469 1314.16409238199275933 74.009497869018218807469 445.80443556272888372
76.009497869018190385759 1320.97841422099077135 76.009497869018190385759 446.85710738535664177
78.009497869018190385759 1327.56958138234222133 78.009497869018190385759 448.04513472984814371
80.009497869018218807469 1333.94834479687824569 80.009497869018218807469 448.92638475008476462
82.009497869018190385759 1340.11463718716072435 82.009497869018190385759 449.92839052514563036
84.009497869018218807469 1346.07145864758876996 84.009497869018218807469 450.80170452187854835
86.009497869018190385759 1351.82372865782622284 86.009497869018190385759 451.29510649357843022
88.009497869018190385759 1357.38530518397487867 88.009497869018190385759 451.89169245220494986
91.009497869018218807469 1365.38297535802416860 91.009497869018218807469 452.59403710185443970
94.009497869018218807469 1372.99428870053088758 94.009497869018218807469 453.60910847260254286
97.009497869018218807469 1380.27136331645715472 97.009497869018218807469 455.18917066122577353
99.504748934509137825444 1386.10717203705826250 99.504748934509137825444 455.51547795310250422
nan nan nan nan

