Time Pressure difference Time.1 Pressure.1 difference.1
(hr) (psi) (hr) (psi)
0.000200000000020850166 0.27379406222643682 0.000200000000020850166 0.22047190017342355
0.000399999999999067768 0.52526529789861032 0.000399999999999067768 0.50512280281655186
0.000600000000019917934 0.76383074255032579 0.000600000000019917934 0.70964971176646630
0.000799999999998135536 0.99273588059661777 0.000799999999998135536 0.90574520039482009
0.001007140329434719206 1.22157154947441970 0.001007140329434719206 1.10091128696488427
0.001267914553977789183 1.49971899809048992 0.001267914553977789183 1.33569271286762703
0.001596209851982166583 1.83667273487206617 0.001596209851982166583 1.61493863942777760
0.002009509145224797066 2.24341349181090921 0.002009509145224797066 1.94541362754145286
0.002529822128153114136 2.73255027338570988 0.002529822128153114136 2.33448765790247004
0.003184857364431081805 3.31845678412251033 0.003184857364431081805 2.79010690417136420
0.004009497869034817086 4.01739987065758175 0.004009497869034817086 3.32075785119457789
0.005047658755856332391 4.84765921494870788 0.005047658755856332391 3.93543341151549875
0.006354625877790454069 5.82963987479047230 0.006354625877790454069 4.64361277182023002
0.008000000000009777068 6.98598227516911763 0.008000000000009777068 5.45526899105551344
0.010071403294361402914 8.34167765405639017 0.010071403294361402914 6.38091910356902314
0.012679145539692626699 9.92420029131402615 0.012679145539692626699 7.43172913119037659
0.015962098519750611558 11.76367013781803017 0.015962098519750611558 8.61967821912721810
0.020095091452091651263 13.89305897629562558 0.020095091452091651263 9.95777211110975458
0.025298221281360611101 16.34844903133415528 0.025298221281360611101 11.46029142883603491
0.031848573644296607199 19.16935019454703237 0.031848573644296607199 13.14309669320610396
0.040094978690191851456 22.39909449769213268 0.040094978690191851456 15.02408588405958234
0.050476587558435426217 26.08535755000974632 0.050476587558435426217 17.12388381373769874
0.063546258777947173257 30.28086125594446187 0.063546258777947173257 19.46653088781677354
0.080000000000012505552 35.04419938325551698 0.080000000000012505552 22.07935479011794300
0.100714032943542974863 40.44046304248803381 0.100714032943542974863 24.99087948063947096
0.126791455396883634421 46.54107896823364143 0.126791455396883634421 28.22615451759571314
0.159620985197506115583 53.42225286184603306 0.159620985197506115583 31.80046775336757392
0.200950914520774404082 61.16187370478218099 0.200950914520774404082 35.71394555148416572
0.252982212813464002465 69.83542332754284132 0.252982212813464002465 39.95019255837556216
0.318485736442809752589 79.51219492307077985 0.318485736442809752589 44.47799478694975051
0.400949786901833249431 90.25191241843437240 0.400949786901833249431 49.26210706987272658
0.504765875584169521062 102.10580561521982190 0.504765875584169521062 54.26957285341362081
0.635462587779443310865 115.11600152130722563 0.635462587779443310865 59.47765809828822370
0.800000000000011368684 129.32004675510432889 0.800000000000011368684 64.88446431517994029
1.007140329435344483500 144.75489593724853421 1.007140329435344483500 70.52212817709593651
1.267914553968907398485 161.46704957311439443 1.267914553968907398485 76.40539366533339205
1.596209851975117999245 179.49263317896284775 1.596209851975117999245 82.63523459080620626
2.009509145207687197399 198.91372423599932517 2.009509145207687197399 89.26647042738217408
2.529822128134725289783 219.77780944159343335 2.529822128134725289783 96.41474035339304294
3.184857364427983839050 242.20022535638261729 3.184857364427983839050 104.23734191679514538
4.009497869018204596614 266.27434493842235952 4.009497869018204596614 112.79284949241736058
5.009497869018190385759 291.22917519872515868 5.009497869018190385759 121.82436129540764114
6.009497869018190385759 312.90668315481900663 6.009497869018190385759 129.75924807382941140
7.009497869018204596614 332.15954582915321680 7.009497869018204596614 136.83611975257636573
8.009497869018190385759 349.52219340222700339 8.009497869018190385759 143.18758660984599373
9.009497869018204596614 365.35535458207704096 9.009497869018204596614 148.93064848959650703
10.009497869018190385759 379.91678638563882942 10.009497869018190385759 154.14068224237931304
11.009497869018190385759 393.39882639898104344 11.009497869018190385759 158.84448203223979590
12.009497869018204596614 405.95006986875574739 12.009497869018204596614 163.14568581152397542
13.009497869018190385759 417.68788188728677824 13.009497869018190385759 167.08874826479043918
14.009497869018204596614 428.70829165486270540 14.009497869018204596614 170.70631636446000812
15.009497869018190385759 439.08876923471262899 15.009497869018190385759 174.03713826080871740
16.009497869018190385759 448.89359326795971583 16.009497869018190385759 177.11491608779746798
17.009497869018204596614 458.17902478084459972 17.009497869018204596614 179.97104586752973887
18.009497869018190385759 466.99376484186382186 18.009497869018190385759 182.63794626361112705
19.009497869018204596614 475.37920923508818305 19.009497869018204596614 185.12394136384875765
20.009497869018190385759 483.37271310053250772 20.009497869018190385759 187.44138862327309880
21.009497869018190385759 491.00488115434410474 21.009497869018190385759 189.60175177834693727
22.009497869018204596614 498.30190221027567077 22.009497869018204596614 191.62384990462447831
23.009497869018190385759 505.28771892298135526 23.009497869018190385759 193.51461992734289197
24.009497869018204596614 511.98446349032877833 24.009497869018204596614 195.29414611398354396
25.009497869018204596614 518.41288693533078913 25.009497869018204596614 196.97178459368853964
26.009497869018190385759 524.59125473874792078 26.009497869018190385759 198.55737144112288206
27.009497869018204596614 530.53622824500394017 27.009497869018204596614 200.06164575498860358
28.009497869018190385759 536.26227797900139649 28.009497869018190385759 201.48816502211113288
29.009497869018190385759 541.78238339345591612 29.009497869018190385759 202.83095150671300644
30.009497869018190385759 547.10858930479253104 30.009497869018190385759 204.11705803227482647
31.009497869018218807469 552.25192923908878129 31.009497869018218807469 205.33726536661166051
32.009497869018190385759 557.22256611852208152 32.009497869018190385759 206.49652080077959226
33.009497869018190385759 562.02990559387899339 33.009497869018190385759 207.59311063620299365
34.009497869018218807469 566.68299126473618799 34.009497869018218807469 208.64982543925751202
35.009497869018190385759 571.18988014512831342 35.009497869018190385759 209.65699076253622479
36.009497869018190385759 575.55802024560375685 36.009497869018190385759 210.62772964225479200
37.009497869018190385759 579.79431097230133219 37.009497869018190385759 211.56116758744215645
38.009497869018218807469 583.90532314291988314 38.009497869018218807469 212.46143936292301646
39.009497869018190385759 587.89706842110967955 39.009497869018190385759 213.33482892799219144
40.009497869018190385759 591.77517637656274019 40.009497869018190385759 214.17860465563904881
41.009497869018218807469 595.54505321746967184 41.009497869018218807469 214.99205329513247875
42.009497869018190385759 599.21164866765889201 42.009497869018190385759 215.77223306385064916
43.009497869018190385759 602.77961476071470770 43.009497869018190385759 216.53539040826098017
44.009497869018218807469 606.25345069189165770 44.009497869018218807469 217.25548960744285409
46.009497869018190385759 612.93550896330259548 46.009497869018190385759 218.63838389588462974
48.009497869018218807469 619.28663260116456968 48.009497869018218807469 219.92102501989310781
50.009497869018190385759 625.32981267591890173 50.009497869018190385759 221.06340162621953027
52.009497869018190385759 631.08790066433107313 52.009497869018190385759 222.09984575247111138
54.009497869018218807469 636.58259304748378327 54.009497869018218807469 223.04506876238497171
56.009497869018190385759 641.83107617146788471 56.009497869018190385759 223.90901576102754689
58.009497869018218807469 646.84832944489630790 58.009497869018218807469 224.72592346438960931
60.009497869018190385759 651.64913239800546307 60.009497869018190385759 225.55125891600465593
62.009497869018190385759 656.24593384086824699 62.009497869018190385759 226.35736667528328780
64.009497869018218807469 660.65172294368312578 64.009497869018218807469 227.14410248639916290
66.009497869018190385759 664.88385064809233427 66.009497869018190385759 227.99047589724966656
68.009497869018190385759 668.95730779891539441 68.009497869018190385759 228.85426061708602674
70.009497869018190385759 672.88114851517013904 70.009497869018190385759 229.59745009108246450
72.009497869018190385759 676.66477962975477567 72.009497869018190385759 230.20750790192710156
74.009497869018218807469 680.31691345376134450 74.009497869018218807469 230.78419153600955838
76.009497869018190385759 683.84455389658080549 76.009497869018190385759 231.32913904249014081
78.009497869018190385759 687.25667155012342846 78.009497869018190385759 231.94415744147727310
80.009497869018218807469 690.55883195991157208 80.009497869018218807469 232.40036325110472148
82.009497869018190385759 693.75100029773807364 82.009497869018190385759 232.91908194088162531
84.009497869018218807469 696.83472965349005790 84.009497869018218807469 233.37117942716767516
86.009497869018190385759 699.81256674506983018 86.009497869018190385759 233.62660392736876247
88.009497869018190385759 702.69168556907322909 88.009497869018190385759 233.93544474894909513
91.009497869018218807469 706.83192217968439763 91.009497869018218807469 234.29903476559931619
94.009497869018218807469 710.77214945458888451 94.009497869018218807469 234.82451725738690129
97.009497869018218807469 714.53934791205563215 97.009497869018218807469 235.64248438756524706
99.504748934509137825444 717.56043135157472079 99.504748934509137825444 235.81140725719311035
nan nan nan nan

