Time Pressure difference Time.1 Pressure.1 difference.1
(hr) (psi) (hr) (psi)
0.000200000000020850166 0.42714865992157225 0.000200000000020850166 0.34396025956017717
0.000399999999999067768 0.81947127076531812 0.000399999999999067768 0.78804677707172444
0.000600000000019917934 1.19165943714818590 0.000600000000019917934 1.10713110770123557
0.000799999999998135536 1.54877646945537917 0.000799999999998135536 1.41306150116241058
0.001007140329434719206 1.90578512226746888 0.001007140329434719206 1.71754192583865839
0.001267914553977789183 2.33972554073680250 0.001267914553977789183 2.08382660941916686
0.001596209851982166583 2.86541019566106492 0.001596209851982166583 2.51948077353350008
0.002009509145224797066 3.49997022902740218 0.002009509145224797066 3.03505787247587300
0.002529822128153114136 4.26307706585584700 0.002529822128153114136 3.64205588159101223
0.003184857364431081805 5.17715525610369731 0.003184857364431081805 4.35287170022363146
0.004009497869034817086 6.26758285832098139 0.004009497869034817086 5.18074517221886310
0.005047658755856332391 7.56287817414128938 0.005047658755856332391 6.13970622397636578
0.006354625877790454069 9.09487532378513563 0.006354625877790454069 7.24454342270314555
0.008000000000009777068 10.89889584459444372 0.008000000000009777068 8.51081583030791933
0.010071403294361402914 13.01392879908797262 0.010071403294361402914 9.95493116977571546
0.012679145539692626699 15.48283706650357772 0.012679145539692626699 11.59430965549099746
0.015962098519750611558 18.35261106200572456 0.015962098519750611558 13.44764006317388372
0.020095091452091651263 21.67469037012241273 0.020095091452091651263 15.53521277443625692
0.025298221281360611101 25.50536720462241647 0.025298221281360611101 17.87930711985075405
0.031848573644296607199 29.90628131444359283 0.031848573644296607199 20.50466724541170649
0.040094978690191851456 34.94503540486942228 0.040094978690191851456 23.43921595573229766
0.050476587558435426217 40.69600863676384250 0.050476587558435426217 26.71513021214269656
0.063546258777947173257 47.24145294301717968 0.063546258777947173257 30.36991567470868247
0.080000000000012505552 54.67278100502432636 0.080000000000012505552 34.44620651682334511
0.100714032943542974863 63.09154206901821027 0.100714032943542974863 38.98850323345666169
0.126791455396883634421 72.60916964716231803 0.126791455396883634421 44.03588587307964985
0.159620985197506115583 83.34455296206033381 0.159620985197506115583 49.61220515621005944
0.200950914520774404082 95.41920733724214188 0.200950914520774404082 55.71765822376355004
0.252982212813464002465 108.95089267766928742 0.252982212813464002465 62.32666653232908516
0.318485736442809752589 124.04771393735907736 0.318485736442809752589 69.39053285067844001
0.400949786901833249431 140.80284696974325698 0.400949786901833249431 76.85427086583968048
0.504765875584169521062 159.29621586418176094 0.504765875584169521062 84.66646475218354340
0.635462587779443310865 179.59354335701206651 0.635462587779443310865 92.79164692383217528
0.800000000000011368684 201.75340627640591151 0.800000000000011368684 101.22685552996651381
1.007140329435344483500 225.83345786931397470 1.007140329435344483500 110.02222729268245871
1.267914553968907398485 251.90624400614291289 1.267914553968907398485 119.20076443416766665
1.596209851975117999245 280.02812444040375794 1.596209851975117999245 128.91999713483701839
2.009509145207687197399 310.32714901299340227 2.009509145207687197399 139.26544976512354879
2.529822128134725289783 342.87740216161159879 2.529822128134725289783 150.41753208138641185
3.184857364427983839050 377.85882152594120953 3.184857364427983839050 162.62164544942629618
4.009497869018204596614 415.41707912524361745 4.009497869018204596614 175.96917229554730966
5.009497869018190385759 454.34934163516959416 5.009497869018190385759 190.05931775868239697
6.009497869018190385759 488.16862317322852505 6.009497869018190385759 202.43860833376115238
7.009497869018204596614 518.20519308318716867 7.009497869018204596614 213.47930158120522037
8.009497869018190385759 545.29282085429406379 8.009497869018190385759 223.38828402792910310
9.009497869018204596614 569.99428269498912414 9.009497869018204596614 232.34808821737598805
10.009497869018190385759 592.71170772185723763 10.009497869018190385759 240.47631027431310713
11.009497869018190385759 613.74516358966707230 11.009497869018190385759 247.81475202297517058
12.009497869018204596614 633.32647512311348237 12.009497869018204596614 254.52509999557429410
13.009497869018190385759 651.63874469300742476 13.009497869018190385759 260.67670835845723332
14.009497869018204596614 668.83178834679404190 14.009497869018204596614 266.32050995657556314
15.009497869018190385759 685.02646784978389860 15.009497869018190385759 271.51695613913051375
16.009497869018190385759 700.32306490711744118 16.009497869018190385759 276.31862591839444576
17.009497869018204596614 714.80935286847613952 17.009497869018204596614 280.77450052010783565
18.009497869018190385759 728.56131072323569242 18.009497869018190385759 284.93515660251898680
19.009497869018204596614 741.64352041867584830 19.009497869018204596614 288.81358065234331889
20.009497869018190385759 754.11426005574878673 20.009497869018190385759 292.42905164996977874
21.009497869018190385759 766.02127633642203364 21.009497869018190385759 295.79945427714784500
22.009497869018204596614 777.40542667231534324 22.009497869018204596614 298.95414834847150587
23.009497869018190385759 788.30406422137264144 23.009497869018190385759 301.90395622544480148
24.009497869018204596614 798.75171763108664891 24.009497869018204596614 304.68021156034046726
25.009497869018204596614 808.78076076522904714 25.009497869018204596614 307.29751093714799026
26.009497869018190385759 818.41968977001374697 26.009497869018190385759 309.77119970732559295
27.009497869018204596614 827.69449816365363404 27.009497869018204596614 312.11803203852048227
28.009497869018190385759 836.62776154647474414 28.009497869018190385759 314.34355799897667794
29.009497869018190385759 845.23972928323314591 29.009497869018190385759 316.43845166757682819
30.009497869018190385759 853.54919260392489377 30.009497869018190385759 318.44491840554354667
31.009497869018218807469 861.57336501508120818 31.009497869018218807469 320.34857520310180234
32.009497869018190385759 869.32810178600027484 32.009497869018190385759 322.15714037498668176
33.009497869018190385759 876.82807675984952311 33.009497869018190385759 323.86794036413090225
34.009497869018218807469 884.08739894033976725 34.009497869018218807469 325.51653094485254769
35.009497869018190385759 891.11863814991329491 35.009497869018190385759 327.08781892188028451
36.009497869018190385759 897.93341409901563566 36.009497869018190385759 328.60227766592208809
37.009497869018190385759 904.54249061525683828 37.009497869018190385759 330.05854287549033188
38.009497869018218807469 910.95611889236954539 38.009497869018218807469 331.46306523559849211
39.009497869018190385759 917.18367778266019741 39.009497869018190385759 332.82564840951789620
40.009497869018190385759 923.23395003010182336 40.009497869018190385759 334.14203076057350472
41.009497869018218807469 929.11536991031482557 41.009497869018218807469 335.41109953967389856
42.009497869018190385759 934.83565953342417743 42.009497869018190385759 336.62826524442277787
43.009497869018190385759 940.40207658024064585 43.009497869018190385759 337.81887410687710371
44.009497869018218807469 945.82164028707677517 44.009497869018218807469 338.94230755696685264
46.009497869018190385759 956.24638147007055977 46.009497869018190385759 341.09977378292387584
48.009497869018218807469 966.15482845700819325 48.009497869018218807469 343.10083411573486956
50.009497869018190385759 975.58284983046360139 50.009497869018190385759 344.88306647150648132
52.009497869018190385759 984.56609639162024905 52.009497869018190385759 346.50003258104101178
54.009497869018218807469 993.13841702216734575 54.009497869018218807469 347.97468377956778340
56.009497869018190385759 1001.32662430029552070 56.009497869018190385759 349.32253551788721779
58.009497869018218807469 1009.15408774053491925 58.009497869018218807469 350.59700081466252186
60.009497869018190385759 1016.64386502530373946 60.009497869018190385759 351.88461431977776783
62.009497869018190385759 1023.81537765884104374 62.009497869018190385759 353.14223052346108034
64.009497869018218807469 1030.68889016623779753 64.009497869018218807469 354.36962437085776401
66.009497869018190385759 1037.29147191273432327 66.009497869018190385759 355.69005939161075958
68.009497869018190385759 1043.64651025459193079 68.009497869018190385759 357.03765795725712451
70.009497869018190385759 1049.76813060700033020 70.009497869018190385759 358.19711475958496294
72.009497869018190385759 1055.67100865734960280 72.009497869018190385759 359.14887161748737299
74.009497869018218807469 1061.36873656310854130 74.009497869018218807469 360.04856111218981596
76.009497869018190385759 1066.87224118838162212 76.009497869018190385759 360.89873877940402735
78.009497869018190385759 1072.19551763694130386 78.009497869018190385759 361.85823469694946652
80.009497869018218807469 1077.34724876805876193 80.009497869018218807469 362.56996561852679406
82.009497869018190385759 1082.32738024592481452 82.009497869018190385759 363.37922346514591254
84.009497869018218807469 1087.13833506049945754 84.009497869018218807469 364.08454495331352518
86.009497869018190385759 1091.78408637004054071 86.009497869018190385759 364.48303508887306634
88.009497869018190385759 1096.27582639328102232 88.009497869018190385759 364.96486052363366070
91.009497869018218807469 1102.73504799070997251 91.009497869018218807469 365.53210068622189510
94.009497869018218807469 1108.88223316549238007 94.009497869018218807469 366.35191080319106050
97.009497869018218807469 1114.75947447481894415 97.009497869018218807469 367.62802892158401846
99.504748934509137825444 1119.47269481352236653 99.504748934509137825444 367.89156705971930705
nan nan nan nan

