Time Pressure difference Time.1 Pressure.1 difference.1
(hr) (psi) (hr) (psi)
0.000200000000020850166 0.24387121389567876 0.000200000000020850166 0.19637661053698380
0.000399999999999067768 0.46785925441242332 0.000399999999999067768 0.44991812491310362
0.000600000000019917934 0.68035197287269455 0.000600000000019917934 0.63209236621821852
0.000799999999998135536 0.88424015594124972 0.000799999999998135536 0.80675665390358298
0.001007140329434719206 1.08806646210016611 0.001007140329434719206 0.98059311352609924
0.001267914553977789183 1.33581528245218517 0.001267914553977789183 1.18971536719903415
0.001596209851982166583 1.63594347423031028 0.001596209851982166583 1.43844261326080725
0.002009509145224797066 1.99823168942720319 0.002009509145224797066 1.73280011633473685
0.002529822128153114136 2.43391089924519477 0.002529822128153114136 2.07935239474373024
0.003184857364431081805 2.95578391154081466 0.003184857364431081805 2.48517718786848318
0.004009497869034817086 3.57833977550374760 0.004009497869034817086 2.95783349587276634
0.005047658755856332391 4.31786039364283791 0.005047658755856332391 3.50533139932801285
0.006354625877790454069 5.19252076279151353 0.006354625877790454069 4.13611410823332015
0.008000000000009777068 6.22248694454954165 0.008000000000009777068 4.85906472973797143
0.010071403294361402914 7.43001889405022631 0.010071403294361402914 5.68355089552869153
0.012679145539692626699 8.83958823761850532 0.012679145539692626699 6.61951829718049911
0.015962098519750611558 10.47802312822043014 0.015962098519750611558 7.67763688370347896
0.020095091452091651263 12.37469187506113144 0.020095091452091651263 8.86949100607043661
0.025298221281360611101 14.56173329020474050 0.025298221281360611101 10.20780056229657795
0.031848573644296607199 17.07433924432331196 0.031848573644296607199 11.70669268301964294
0.040094978690191851456 19.95110602799900335 0.040094978690191851456 13.38210928470880923
0.050476587558435426217 23.23449880137480150 0.050476587558435426217 15.25242110185379829
0.063546258777947173257 26.97147751212539291 0.063546258777947173257 17.33904117330127903
0.080000000000012505552 31.21423223754452891 0.080000000000012505552 19.66631055076079093
0.100714032943542974863 36.02074030560409312 0.100714032943542974863 22.25963582155318932
0.126791455396883634421 41.45462225039389637 0.126791455396883634421 25.14132888725738368
0.159620985197506115583 47.58375528131641374 0.159620985197506115583 28.32500679671537824
0.200950914520774404082 54.47751592283877642 0.200950914520774404082 31.81078210323453348
0.252982212813464002465 62.20313662507913932 0.252982212813464002465 35.58405129516511067
0.318485736442809752589 70.82233755442918266 0.318485736442809752589 39.61701175012463949
0.400949786901833249431 80.38831543281312975 0.400949786901833249431 43.87827023163526974
0.504765875584169521062 90.94670117639797979 0.504765875584169521062 48.33847199511704673
0.635462587779443310865 102.53501774848675154 0.635462587779443310865 52.97736759574306120
0.800000000000011368684 115.18670831192353887 0.800000000000011368684 57.79326602936792767
1.007140329435344483500 128.93468873099186567 1.007140329435344483500 62.81479176429856892
1.267914553968907398485 143.82037748862100557 1.267914553968907398485 68.05507741775596742
1.596209851975117999245 159.87595195721826258 1.596209851975117999245 73.60406141148311576
2.009509145207687197399 177.17451940146384004 2.009509145207687197399 79.51057202001800306
2.529822128134725289783 195.75837671573623311 2.529822128134725289783 85.87761026012604759
3.184857364427983839050 215.73025537207848856 3.184857364427983839050 92.84528269091589436
4.009497869018204596614 237.17332363367674475 4.009497869018204596614 100.46576211619688479
5.009497869018190385759 259.40085004039457317 5.009497869018190385759 108.51022344891499927
6.009497869018190385759 278.70923144390985726 6.009497869018190385759 115.57790948652564111
7.009497869018204596614 295.85795612104908514 7.009497869018204596614 121.88135256650245708
8.009497869018190385759 311.32304658231146277 8.009497869018190385759 127.53867004046389866
9.009497869018204596614 325.42580763321620907 9.009497869018204596614 132.65407488417611148
10.009497869018190385759 338.39582612491324198 10.009497869018190385759 137.29470604102638731
11.009497869018190385759 350.40441914226175868 11.009497869018190385759 141.48442935112069563
12.009497869018204596614 361.58394201424698622 12.009497869018204596614 145.31555621463613193
13.009497869018190385759 372.03893304714608803 13.009497869018190385759 148.82768288066034756
14.009497869018204596614 381.85492644668096318 14.009497869018204596614 152.04988834648622742
15.009497869018190385759 391.10092560250359384 15.009497869018190385759 155.01668599186785968
16.009497869018190385759 399.83418416763623782 16.009497869018190385759 157.75809465743711257
17.009497869018204596614 408.10481442228234528 17.009497869018204596614 160.30207910605108168
18.009497869018190385759 415.95619491379125066 18.009497869018190385759 162.67751497797056004
19.009497869018204596614 423.42519729682720708 19.009497869018204596614 164.89181662463033717
20.009497869018190385759 430.54509418244151675 20.009497869018190385759 166.95599095952738367
21.009497869018190385759 437.34314550906054819 21.009497869018190385759 168.88024885175167356
22.009497869018204596614 443.84267792499969119 22.009497869018204596614 170.68135264728846323
23.009497869018190385759 450.06501740134410738 23.009497869018190385759 172.36548113746934519
24.009497869018204596614 456.02987731652228831 24.009497869018204596614 173.95052358786514901
25.009497869018204596614 461.75574082217980276 25.009497869018204596614 175.44481359984280289
26.009497869018190385759 467.25887717167165647 26.009497869018190385759 176.85711226722966671
27.009497869018204596614 472.55412679746251570 27.009497869018204596614 178.19698501673849478
28.009497869018190385759 477.65437874632362991 28.009497869018190385759 179.46760053882027819
29.009497869018190385759 482.57119395154825270 29.009497869018190385759 180.66363440215422997
30.009497869018190385759 487.31530085618129533 30.009497869018190385759 181.80918283749070952
31.009497869018218807469 491.89652713645619997 31.009497869018218807469 182.89603417900380578
32.009497869018190385759 496.32392501267270291 32.009497869018190385759 183.92859503020255829
33.009497869018190385759 500.60587219564087036 33.009497869018190385759 184.90533898197315921
34.009497869018218807469 504.75042391339894721 34.009497869018218807469 185.84656582840966621
35.009497869018190385759 508.76475663199954624 35.009497869018190385759 186.74365843876176996
36.009497869018190385759 512.65550437176727883 36.009497869018190385759 187.60830563763678924
37.009497869018190385759 516.42881250538312088 37.009497869018190385759 188.43972850684735931
38.009497869018218807469 520.09053372839309759 38.009497869018218807469 189.24160992435218986
39.009497869018190385759 523.64602269202657681 39.009497869018190385759 190.01954707793842658
40.009497869018190385759 527.10029371245741459 40.009497869018190385759 190.77110687906647968
41.009497869018218807469 530.45816215545119121 41.009497869018218807469 191.49565402790486246
42.009497869018190385759 533.72403679141200428 42.009497869018190385759 192.19056824812929563
43.009497869018190385759 536.90206123495352131 43.009497869018190385759 192.87032041828712181
44.009497869018218807469 539.99624296600177331 44.009497869018218807469 193.51172025143816313
46.009497869018190385759 545.94802164490886298 46.009497869018190385759 194.74347855207213343
48.009497869018218807469 551.60503340978050346 48.009497869018218807469 195.88594031826545461
50.009497869018190385759 556.98775664576373856 50.009497869018190385759 196.90346702226113962
52.009497869018190385759 562.11654540046970396 52.009497869018190385759 197.82663856640868971
54.009497869018218807469 567.01072495486266689 54.009497869018218807469 198.66855851512980280
56.009497869018190385759 571.68560336584300785 56.009497869018190385759 199.43808507676223485
58.009497869018218807469 576.15452294818635437 58.009497869018218807469 200.16571324970223600
60.009497869018190385759 580.43064798292289197 60.009497869018190385759 200.90084810551235250
62.009497869018190385759 584.52506675443453332 62.009497869018190385759 201.61885665612663843
64.009497869018218807469 588.44934885147733894 64.009497869018218807469 202.31961041138288238
66.009497869018190385759 592.21894893791829872 66.009497869018190385759 203.07348399591089105
68.009497869018190385759 595.84721951488086233 68.009497869018190385759 203.84286601412580353
70.009497869018190385759 599.34222518017895709 70.009497869018190385759 204.50483259478929199
72.009497869018190385759 602.71234469754108432 72.009497869018190385759 205.04821742084217817
74.009497869018218807469 605.96533821291313870 74.009497869018218807469 205.56187552114514006
76.009497869018190385759 609.10744418110755305 76.009497869018190385759 206.04726592309231137
78.009497869018190385759 612.14665280147607973 78.009497869018190385759 206.59506919650706891
80.009497869018218807469 615.08792136319993915 80.009497869018218807469 207.00141644770528160
82.009497869018190385759 617.93121884443337422 82.009497869018190385759 207.46344457029346131
84.009497869018218807469 620.67792859846372266 84.009497869018218807469 207.86613249523676927
86.009497869018190385759 623.33031901336823921 86.009497869018190385759 208.09364174951426207
88.009497869018190385759 625.89478004239856546 88.009497869018190385759 208.36872947583989912
91.009497869018218807469 629.58253177753317686 91.009497869018218807469 208.69258287864857948
94.009497869018218807469 633.09213312075394242 94.009497869018218807469 209.16063558991291416
97.009497869018218807469 636.44761589980907956 97.009497869018218807469 209.88920740531767706
99.504748934509137825444 639.13852628582890247 99.504748934509137825444 210.03966875913920376
nan nan nan nan

