Time Pressure difference Time.1 Pressure.1 difference.1
(hr) (psi) (hr) (psi)
0.000200000000020850166 0.00598456966615163 0.000200000000020850166 0.00481905792728795
0.000399999999999067768 0.01148120869723738 0.000399999999999067768 0.01104093558068966
0.000600000000019917934 0.01669575393552625 0.000600000000019917934 0.01551146910964954
0.000799999999998135536 0.02169914493107361 0.000799999999998135536 0.01979770929824743
0.001007140329434719206 0.02670101747485070 0.001007140329434719206 0.02406363468775704
0.001267914553977789183 0.03278074312766099 0.001267914553977789183 0.02919546913371862
0.001596209851982166583 0.04014585212835117 0.001596209851982166583 0.03529920523339405
0.002009509145224797066 0.04903636047674118 0.002009509145224797066 0.04252270224134323
0.002529822128153114136 0.05972787482810294 0.002529822128153114136 0.05102705263174798
0.003184857364431081805 0.07253457451633902 0.003184857364431081805 0.06098594326057626
0.004009497869034817086 0.08781201903076681 0.004009497869034817086 0.07258487106436236
0.005047658755856332391 0.10595976426117394 0.005047658755856332391 0.08602040243749724
0.006354625877790454069 0.12742382239979175 0.006354625877790454069 0.10149973271738208
0.008000000000009777068 0.15269906612391512 0.008000000000009777068 0.11924085226350850
0.010071403294361402914 0.18233175200123256 0.010071403294361402914 0.13947364160806608
0.012679145539692626699 0.21692241073910443 0.012679145539692626699 0.16244216680197543
0.015962098519750611558 0.25712940191951977 0.015962098519750611558 0.18840826708474795
0.020095091452091651263 0.30367342024689892 0.020095091452091651263 0.21765622100786350
0.025298221281360611101 0.35734314822588326 0.025298221281360611101 0.25049817330789148
0.031848573644296607199 0.41900219004474387 0.031848573644296607199 0.28728080203729184
0.040094978690191851456 0.48959769393862584 0.040094978690191851456 0.32839531987015480
0.050476587558435426217 0.57017174972698903 0.050476587558435426217 0.37429254237678028
0.063546258777947173257 0.66187674876381342 0.063546258777947173257 0.42549794290309889
0.080000000000012505552 0.76599342914219715 0.080000000000012505552 0.48260884787143044
0.100714032943542974863 0.88394454737678751 0.100714032943542974863 0.54624873181725619
0.126791455396883634421 1.01729134356794826 0.126791455396883634421 0.61696512606766585
0.159620985197506115583 1.16769951610592426 0.159620985197506115583 0.69509219133043865
0.200950914520774404082 1.33687155638868171 0.200950914520774404082 0.78063268964992716
0.252982212813464002465 1.52645734049273973 0.252982212813464002465 0.87322825264208870
0.318485736442809752589 1.73797147372832339 0.318485736442809752589 0.97219660736502178
0.400949786901833249431 1.97271939712424849 0.400949786901833249431 1.07676736764749137
0.504765875584169521062 2.23182088776436771 0.504765875584169521062 1.18622017165931415
0.635462587779443310865 2.51619675456409198 0.635462587779443310865 1.30005810050903214
0.800000000000011368684 2.82666768863616014 0.800000000000011368684 1.41823965716240297
1.007140329435344483500 3.16404144125133424 1.007140329435344483500 1.54146728255947396
1.267914553968907398485 3.52933441689867466 1.267914553968907398485 1.67006324951548391
1.596209851975117999245 3.92333624434891481 1.596209851975117999245 1.80623463586461641
2.009509145207687197399 4.34784096690708832 2.009509145207687197399 1.95117968147283438
2.529822128134725289783 4.80388654517144076 2.529822128134725289783 2.10742601865339951
3.184857364427983839050 5.29399399686082184 3.184857364427983839050 2.27841184517584994
4.009497869018204596614 5.82020426094912224 4.009497869018204596614 2.46541747524409516
5.009497869018190385759 6.36566503166612385 5.009497869018190385759 2.66282756929852749
6.009497869018190385759 6.83949034218183627 6.009497869018190385759 2.83626771746075157
7.009497869018204596614 7.26031794162083610 7.009497869018204596614 2.99095343721478413
8.009497869018190385759 7.63982936398310297 8.009497869018190385759 3.12978331387641484
9.009497869018204596614 7.98590938977217579 9.009497869018204596614 3.25531472108407671
10.009497869018190385759 8.30419205214511003 10.009497869018190385759 3.36919524027058648
11.009497869018190385759 8.59888145134384807 11.009497869018190385759 3.47201053622382050
12.009497869018204596614 8.87322557090176645 12.009497869018204596614 3.56602591937757341
13.009497869018190385759 9.12978976802812525 13.009497869018190385759 3.65221307682602081
14.009497869018204596614 9.37067304163634418 14.009497869018204596614 3.73128560359475392
15.009497869018190385759 9.59756872644180525 15.009497869018190385759 3.80409045378816835
16.009497869018190385759 9.81188182006469312 16.009497869018190385759 3.87136428607207606
17.009497869018204596614 10.01484207171245089 17.009497869018204596614 3.93379335229573179
18.009497869018190385759 10.20751398561450962 18.009497869018190385759 3.99208625712811171
19.009497869018204596614 10.39080238765220088 19.009497869018204596614 4.04642494784368889
20.009497869018190385759 10.56552378361819677 20.009497869018190385759 4.09707953274913894
21.009497869018190385759 10.73234712905670030 21.009497869018190385759 4.14430058531905843
22.009497869018204596614 10.89184485705520622 22.009497869018204596614 4.18849945146720160
23.009497869018190385759 11.04454030432746237 23.009497869018190385759 4.22982775797470811
24.009497869018204596614 11.19091723476128486 24.009497869018204596614 4.26872450522368485
25.009497869018204596614 11.33142922263017915 25.009497869018204596614 4.30539419876914842
26.009497869018190385759 11.46647551341525428 26.009497869018190385759 4.34005183477864254
27.009497869018204596614 11.59642028950828241 27.009497869018204596614 4.37293214765002425
28.009497869018190385759 11.72157984653554941 28.009497869018190385759 4.40411289665816685
29.009497869018190385759 11.84223788838155045 29.009497869018190385759 4.43346342091176027
30.009497869018190385759 11.95865768972224075 30.009497869018190385759 4.46157503895682694
31.009497869018218807469 12.07108042052653119 31.009497869018218807469 4.48824623752156615
32.009497869018190385759 12.17972822116988141 32.009497869018190385759 4.51358515411540040
33.009497869018190385759 12.28480667964762851 33.009497869018190385759 4.53755433084596760
34.009497869018218807469 12.38651347026745775 34.009497869018218807469 4.56065192216956294
35.009497869018190385759 12.48502470262575592 35.009497869018190385759 4.58266646475489026
36.009497869018190385759 12.58050317476729418 36.009497869018190385759 4.60388480092360197
37.009497869018190385759 12.67309969338363551 37.009497869018190385759 4.62428781611895356
38.009497869018218807469 12.76295788290535249 38.009497869018218807469 4.64396588771416408
39.009497869018190385759 12.85020914581660456 39.009497869018190385759 4.66305637001075901
40.009497869018190385759 12.93497653282104132 40.009497869018190385759 4.68149955531451489
41.009497869018218807469 13.01737821240370963 41.009497869018218807469 4.69927985344551846
42.009497869018190385759 13.09752237524937435 42.009497869018190385759 4.71633296314427675
43.009497869018190385759 13.17551070515223444 43.009497869018190385759 4.73301399799477629
44.009497869018218807469 13.25144154517795769 44.009497869018218807469 4.74875387120093695
46.009497869018190385759 13.39749746367874650 46.009497869018190385759 4.77898106876250583
48.009497869018218807469 13.53631983827682106 48.009497869018218807469 4.80701694032553295
50.009497869018190385759 13.66841120603101167 50.009497869018190385759 4.83198692079168435
52.009497869018190385759 13.79427105277226318 52.009497869018190385759 4.85464143721248309
54.009497869018218807469 13.91437361852423749 54.009497869018218807469 4.87530204945103840
56.009497869018190385759 14.02909456112497999 56.009497869018190385759 4.89418613685306170
58.009497869018218807469 14.13876129934199533 58.009497869018218807469 4.91204204293747804
60.009497869018190385759 14.24369688301651315 60.009497869018190385759 4.93008216209846228
62.009497869018190385759 14.34417341728673811 62.009497869018190385759 4.94770200383132863
64.009497869018218807469 14.44047481844116199 64.009497869018218807469 4.96489841500326090
66.009497869018190385759 14.53298034203480604 66.009497869018190385759 4.98339838026775173
68.009497869018190385759 14.62201765680689292 68.009497869018190385759 5.00227892059204393
70.009497869018190385759 14.70778466699825415 70.009497869018190385759 5.01852349925863361
72.009497869018190385759 14.79048698644272619 72.009497869018190385759 5.03185809621698610
74.009497869018218807469 14.87031504816964755 74.009497869018218807469 5.04446320297288686
76.009497869018190385759 14.94742194309466221 76.009497869018190385759 5.05637462387956571
78.009497869018190385759 15.02200374972947472 78.009497869018190385759 5.06981764899403853
80.009497869018218807469 15.09418211934232978 80.009497869018218807469 5.07978936067988496
82.009497869018190385759 15.16395629066094308 82.009497869018190385759 5.09112747411763067
84.009497869018218807469 15.23136021100524751 84.009497869018218807469 5.10100938638617851
86.009497869018190385759 15.29644954634032494 86.009497869018190385759 5.10659243557090115
88.009497869018190385759 15.35938110533493450 88.009497869018190385759 5.11334305462183814
91.009497869018218807469 15.44987808043026156 91.009497869018218807469 5.12129037739014947
94.009497869018218807469 15.53600326676696852 94.009497869018218807469 5.13277633349479512
97.009497869018218807469 15.61834640244930306 97.009497869018218807469 5.15065539644951365
99.504748934509137825444 15.68438101314917432 99.504748934509137825444 5.15434769961077777
nan nan nan nan

