Time Pressure difference Time.1 Pressure.1 difference.1
(hr) (psi) (hr) (psi)
0.000200000000020850166 0.22068100643934119 0.000200000000020850166 0.17770276106874303
0.000399999999999067768 0.42336957071062847 0.000399999999999067768 0.40713449953793118
0.000600000000019917934 0.61565592637253042 0.000600000000019917934 0.57198542341832670
0.000799999999998135536 0.80015596933333943 0.000799999999998135536 0.73004053037287420
0.001007140329434719206 0.98460001938511965 0.001007140329434719206 0.88734652911104073
0.001267914553977789183 1.20878990283249887 0.001267914553977789183 1.07658292430587421
0.001596209851982166583 1.48037829723294956 0.001596209851982166583 1.30165819298140550
0.002009509145224797066 1.80821579257983123 0.002009509145224797066 1.56802464514953188
0.002529822128153114136 2.20246538428629579 0.002529822128153114136 1.88162256579570708
0.003184857364431081805 2.67471243529000136 0.003184857364431081805 2.24885665773374965
0.004009497869034817086 3.23806820175952614 0.004009497869034817086 2.67656712049836187
0.005047658755856332391 3.90726630713078915 0.005047658755856332391 3.17200233988271041
0.006354625877790454069 4.69875345099232078 0.006354625877790454069 3.74280264395346407
0.008000000000009777068 5.63077806331937047 0.008000000000009777068 4.39700642721687629
0.010071403294361402914 6.72348335504545069 0.010071403294361402914 5.14309053429743646
0.012679145539692626699 7.99901389600447477 0.012679145539692626699 5.99005490082284364
0.015962098519750611558 9.48164669578229002 0.015962098519750611558 6.94755484875008023
0.020095091452091651263 11.19795737160439764 0.020095091452091651263 8.02607314966496688
0.025298221281360611101 13.17702859082944400 0.025298221281360611101 9.23712014072849819
0.031848573644296607199 15.45070575789992873 0.031848573644296607199 10.59347957512513716
0.040094978690191851456 18.05391496398682705 0.040094978690191851456 12.10957742021195749
0.050476587558435426217 21.02508327118271936 0.050476587558435426217 13.80203750014377384
0.063546258777947173257 24.40670511066561588 0.063546258777947173257 15.69023664455177247
0.080000000000012505552 28.24600769961852009 0.080000000000012505552 17.79620126525899693
0.100714032943542974863 32.59545518451903945 0.100714032943542974863 20.14292198576131909
0.126791455396883634421 37.51261829406809767 0.126791455396883634421 22.75058902374518155
0.159620985197506115583 43.05891965640595487 0.159620985197506115583 25.63152455530992668
0.200950914520774404082 49.29713864183263183 0.200950914520774404082 28.78583043084106308
0.252982212813464002465 56.28811443066977915 0.252982212813464002465 32.20029181617702108
0.318485736442809752589 64.08769809373193027 0.318485736442809752589 35.84974989658518041
0.400949786901833249431 72.74402776895666989 0.400949786901833249431 39.70579668200123535
0.504765875584169521062 82.29839523631106601 0.504765875584169521062 43.74186882993720360
0.635462587779443310865 92.78475532455090047 0.635462587779443310865 47.93964245627056897
0.800000000000011368684 104.23337101845841346 0.800000000000011368684 52.29758735786361257
1.007140329435344483500 116.67402814614294471 1.007140329435344483500 56.84160604438060460
1.267914553968907398485 130.14420662313861499 1.267914553968907398485 61.58358232588346937
1.596209851975117999245 144.67302401036621973 1.596209851975117999245 66.60490219750772667
2.009509145207687197399 160.32663565469889022 2.009509145207687197399 71.94975075431077016
2.529822128134725289783 177.14331635319689440 2.529822128134725289783 77.71133443784411554
3.184857364427983839050 195.21602863424283214 3.184857364427983839050 84.01643679085945848
4.009497869018204596614 214.62003212249888406 4.009497869018204596614 90.91226939962601250
5.009497869018190385759 234.73389804268830972 5.009497869018190385759 98.19176661788320359
6.009497869018190385759 252.20620636795524661 6.009497869018190385759 104.58737208136521701
7.009497869018204596614 267.72422409726834758 7.009497869018204596614 110.29140799729516687
8.009497869018190385759 281.71870779687691311 8.009497869018190385759 115.41075969919279487
9.009497869018204596614 294.48040874784902599 9.009497869018204596614 120.03973033997533548
10.009497869018190385759 306.21708192285097994 10.009497869018190385759 124.23907448497786277
11.009497869018190385759 317.08375351830443378 11.009497869018190385759 128.03038852325337871
12.009497869018204596614 327.20019292700266078 12.009497869018204596614 131.49720577704800917
13.009497869018190385759 336.66099769603715686 13.009497869018190385759 134.67535720795950738
14.009497869018204596614 345.54356841034018544 14.009497869018204596614 137.59115663255656159
15.009497869018190385759 353.91034678754158449 15.009497869018190385759 140.27583548343869779
16.009497869018190385759 361.81314211488557930 16.009497869018190385759 142.75655804890780587
17.009497869018204596614 369.29730139439664072 17.009497869018204596614 145.05862986590511809
18.009497869018190385759 376.40207821953504208 18.009497869018190385759 147.20818073159912842
19.009497869018204596614 383.16083804467490381 19.009497869018204596614 149.21191995173603573
20.009497869018190385759 389.60368952092096606 20.009497869018190385759 151.07980777012448925
21.009497869018190385759 395.75530038396578902 21.009497869018190385759 152.82108408364027241
22.009497869018204596614 401.63677910391078285 22.009497869018204596614 154.45091727285307570
23.009497869018190385759 407.26742372207513654 23.009497869018190385759 155.97489857531735424
24.009497869018204596614 412.66507303182231681 24.009497869018204596614 157.40921613012338298
25.009497869018204596614 417.84645258448784944 25.009497869018204596614 158.76141107961234411
26.009497869018190385759 422.82628455718753457 26.009497869018190385759 160.03941140746243832
27.009497869018204596614 427.61799817561791315 27.009497869018204596614 161.25187294459465193
28.009497869018190385759 432.23325684099836508 28.009497869018190385759 162.40166306426988285
29.009497869018190385759 436.68252213406969986 29.009497869018190385759 163.48396364612116827
30.009497869018190385759 440.97550230850760045 30.009497869018190385759 164.52057956153299756
31.009497869018218807469 445.12109050691589118 31.009497869018218807469 165.50408000860772972
32.009497869018190385759 449.12747815563938047 32.009497869018190385759 166.43845255800542304
33.009497869018190385759 453.00224631200632075 33.009497869018190385759 167.32231594994505031
34.009497869018218807469 456.75268421611247049 34.009497869018218807469 168.17403963000262479
35.009497869018190385759 460.38528590932469342 35.009497869018190385759 168.98582588783659730
36.009497869018190385759 463.90605456954398278 36.009497869018190385759 169.76825203405783782
37.009497869018190385759 467.32055119352150996 37.009497869018190385759 170.52061321938643346
38.009497869018218807469 470.63407193213487290 38.009497869018218807469 171.24624210945981417
39.009497869018190385759 473.85146225198730008 39.009497869018190385759 171.95020364414673963
40.009497869018190385759 476.97725964777589525 40.009497869018190385759 172.63029610222272936
41.009497869018218807469 480.01582158238682041 41.009497869018218807469 173.28594459580347120
42.009497869018190385759 482.97113758732069755 42.009497869018190385759 173.91477801594521679
43.009497869018190385759 485.84695725248860754 43.009497869018190385759 174.52989117605736169
44.009497869018218807469 488.64690697843724365 44.009497869018218807469 175.11029900053452479
46.009497869018190385759 494.03271897315374872 46.009497869018190385759 176.22492691061739833
48.009497869018218807469 499.15179403645777256 48.009497869018218807469 177.25874967450400277
50.009497869018190385759 504.02266322239353258 50.009497869018190385759 178.17951770419335844
52.009497869018190385759 508.66374507097719970 52.009497869018190385759 179.01490299721029942
54.009497869018218807469 513.09252718308130170 54.009497869018218807469 179.77676307350702700
56.009497869018190385759 517.32286194148366576 56.009497869018190385759 180.47311379645665852
58.009497869018218807469 521.36682291323609206 58.009497869018218807469 181.13155033331949539
60.009497869018190385759 525.23632256123391926 60.009497869018190385759 181.79677972738079461
62.009497869018190385759 528.94139476244856723 62.009497869018190385759 182.44651139128023942
64.009497869018218807469 532.49250893001783425 64.009497869018218807469 183.08062905324524650
66.009497869018190385759 535.90365011253345529 66.009497869018190385759 183.76281527237335922
68.009497869018190385759 539.18690109475414829 68.009497869018190385759 184.45903519683162131
70.009497869018190385759 542.34955959556054950 70.009497869018190385759 185.05805403516211527
72.009497869018190385759 545.39920762507551899 72.009497869018190385759 185.54976729800134194
74.009497869018218807469 548.34286740125571669 74.009497869018218807469 186.01458060962522723
76.009497869018190385759 551.18618415161563462 76.009497869018190385759 186.45381425555899568
78.009497869018190385759 553.93638827127438162 78.009497869018190385759 186.94952580665517416
80.009497869018218807469 556.59796565074839236 80.009497869018218807469 187.31723267507072705
82.009497869018190385759 559.17088821812228616 82.009497869018190385759 187.73532560808763492
84.009497869018218807469 561.65640778081842655 84.009497869018218807469 188.09972112299033142
86.009497869018190385759 564.05657702129951758 86.009497869018190385759 188.30559606167699371
88.009497869018190385759 566.37717825922572956 88.009497869018190385759 188.55452513918027080
91.009497869018218807469 569.71425421586593529 91.009497869018218807469 188.84758266626175782
94.009497869018218807469 572.89012046203197315 94.009497869018218807469 189.27112729762058052
97.009497869018218807469 575.92652359031797005 97.009497869018218807469 189.93041774407581102
99.504748934509137825444 578.36154985987582222 99.504748934509137825444 190.06657142314745101
nan nan nan nan

