Time Pressure difference Time.1 Pressure.1 difference.1
(hr) (psi) (hr) (psi)
0.000200000000020850166 0.56180147740998376 0.000200000000020850166 0.45238906292415598
0.000399999999999067768 1.07779846645315924 0.000399999999999067768 1.03646782763724166
0.000600000000019917934 1.56731390069752652 0.000600000000019917934 1.45613916266835020
0.000799999999998135536 2.03700723040453546 0.000799999999998135536 1.85850996037297778
0.001007140329434719206 2.50655801545160983 0.001007140329434719206 2.25897370631319205
0.001267914553977789183 3.07729226110917509 0.001267914553977789183 2.74072466492783606
0.001596209851982166583 3.76869186854896610 0.001596209851982166583 3.31371289128486612
0.002009509145224797066 4.60328833975407914 0.002009509145224797066 3.99181867290609604
0.002529822128153114136 5.60695424948816346 0.002529822128153114136 4.79016456580534200
0.003184857364431081805 6.80918318272132517 0.003184857364431081805 5.72505542358659714
0.004009497869034817086 8.24335328651323351 0.004009497869034817086 6.81390477116701643
0.005047658755856332391 9.94697287001770292 0.005047658755856332391 8.07516527882005342
0.006354625877790454069 11.96191132778044874 0.006354625877790454069 9.52828740884424263
0.008000000000009777068 14.33462483238253427 0.008000000000009777068 11.19373500623686191
0.010071403294361402914 17.11639321911570377 0.010071403294361402914 13.09308810595720196
0.012679145539692626699 20.36359130813342588 0.012679145539692626699 15.24925840853544479
0.015962098519750611558 24.13802260519491938 0.015962098519750611558 17.68682607258071116
0.020095091452091651263 28.50734232567763371 0.020095091452091651263 20.43247774711318598
0.025298221281360611101 33.54558803970478920 0.025298221281360611101 23.51551601927831214
0.031848573644296607199 39.33383059045033292 0.031848573644296607199 26.96848529125077221
0.040094978690191851456 45.96098351848850427 0.040094978690191851456 30.82811065281078200
0.050476587558435426217 53.52487300562109596 0.050476587558435426217 35.13671241562024505
0.063546258777947173257 62.13367979020297582 0.063546258777947173257 39.94361939002840955
0.080000000000012505552 71.90763316072376199 0.080000000000012505552 45.30490559393053474
0.100714032943542974863 82.98029438499592914 0.100714032943542974863 51.27909969934491841
0.126791455396883634421 95.49822487744116017 0.126791455396883634421 57.91760120960213953
0.159620985197506115583 109.61779207444364204 0.159620985197506115583 65.25177946114493466
0.200950914520774404082 125.49881735598748378 0.200950914520774404082 73.28189374088691466
0.252982212813464002465 143.29618283875592510 0.252982212813464002465 81.97430221677608131
0.318485736442809752589 163.15207209624637130 0.318485736442809752589 91.26495651639142181
0.400949786901833249431 185.18903340503882760 0.400949786901833249431 101.08153663790822918
0.504765875584169521062 209.51218583888001490 0.504765875584169521062 111.35641861451810541
0.635462587779443310865 236.20797033470415727 0.635462587779443310865 122.04295418528539585
0.800000000000011368684 265.35342927071957320 0.800000000000011368684 133.13724781612057768
1.007140329435344483500 297.02439029746898314 1.007140329435344483500 144.70524115027063772
1.267914553968907398485 331.31626838636310595 1.267914553968907398485 156.77718754826605618
1.596209851975117999245 368.30318993825437701 1.596209851975117999245 169.56027644179087588
2.009509145207687197399 408.15357076840297168 2.009509145207687197399 183.16699259826233970
2.529822128134725289783 450.96484942796899986 2.529822128134725289783 197.83461750108790511
3.184857364427983839050 496.97368645530974618 3.184857364427983839050 213.88591196588291155
4.009497869018204596614 546.37167499659881287 4.009497869018204596614 231.44106548853943650
5.009497869018190385759 597.57680484765728579 5.009497869018190385759 249.97293806789923565
6.009497869018190385759 642.05715587231986774 6.009497869018190385759 266.25463197662804760
7.009497869018204596614 681.56234676965596009 7.009497869018204596614 280.77575391853781639
8.009497869018190385759 717.18898154391376920 8.009497869018190385759 293.80840859014847410
9.009497869018204596614 749.67724396486300975 9.009497869018204596614 305.59266944176766856
10.009497869018190385759 779.55602889512226739 10.009497869018190385759 316.28320318040130132
11.009497869018190385759 807.21999624490365477 11.009497869018190385759 325.93498908801115022
12.009497869018204596614 832.97405046840333398 12.009497869018204596614 334.76068318156967507
13.009497869018190385759 857.05901447364033174 13.009497869018190385759 342.85150258704265980
14.009497869018204596614 879.67193178361173977 14.009497869018204596614 350.27443603745751943
15.009497869018190385759 900.97176419472452835 15.009497869018190385759 357.10899134936425980
16.009497869018190385759 921.09040585857303540 16.009497869018190385759 363.42432235501615878
17.009497869018204596614 940.14329948200622766 17.009497869018204596614 369.28485094676182143
18.009497869018190385759 958.23037539956203545 18.009497869018190385759 374.75709738790152414
19.009497869018204596614 975.43657414085032542 19.009497869018204596614 379.85814197882632470
20.009497869018190385759 991.83854518715804716 20.009497869018190385759 384.61334113682539737
21.009497869018190385759 1007.49908674019775390 21.009497869018190385759 389.04621744682663120
22.009497869018204596614 1022.47193595605745031 22.009497869018204596614 393.19538600648360216
23.009497869018190385759 1036.80622106874034216 23.009497869018190385759 397.07508077987569095
24.009497869018204596614 1050.54735541321542769 24.009497869018204596614 400.72651292787332977
25.009497869018204596614 1063.73791827440822999 25.009497869018204596614 404.16888040945383409
26.009497869018190385759 1076.41538882185705006 26.009497869018190385759 407.42236598984504781
27.009497869018204596614 1088.61395467759007261 27.009497869018204596614 410.50900536064602875
28.009497869018190385759 1100.36330809352466531 28.009497869018190385759 413.43609817378541038
29.009497869018190385759 1111.69008177181831343 29.009497869018190385759 416.19137863809146438
30.009497869018190385759 1122.61899062267525551 30.009497869018190385759 418.83035678207215824
31.009497869018218807469 1133.17267447692802307 31.009497869018218807469 421.33411554733697812
32.009497869018190385759 1143.37198676232264916 32.009497869018190385759 423.71280634258323516
33.009497869018190385759 1153.23622705192133253 33.009497869018190385759 425.96291280816518565
34.009497869018218807469 1162.78395202135766340 34.009497869018218807469 428.13119919366772592
35.009497869018190385759 1172.03169395899271876 35.009497869018190385759 430.19781437886535969
36.009497869018190385759 1180.99473553127972991 36.009497869018190385759 432.18968568670311470
37.009497869018190385759 1189.68723371638884601 37.009497869018190385759 434.10501873816679108
38.009497869018218807469 1198.12267125773973930 38.009497869018218807469 435.95229770916716916
39.009497869018190385759 1206.31338356353376184 39.009497869018190385759 437.74441673475996595
40.009497869018190385759 1214.27092201857522014 40.009497869018190385759 439.47577075515005163
41.009497869018218807469 1222.00637968939827260 41.009497869018218807469 441.14489624219800135
42.009497869018190385759 1229.52991297653511538 42.009497869018190385759 442.74575691516901088
43.009497869018190385759 1236.85106744616609831 43.009497869018190385759 444.31168906175958000
44.009497869018218807469 1243.97907505358080016 44.009497869018218807469 445.78926965898790513
46.009497869018190385759 1257.69007440284235599 46.009497869018190385759 448.62684783008023715
48.009497869018218807469 1270.72202481823660492 48.009497869018218807469 451.25871527305935160
50.009497869018190385759 1283.12210196616115354 50.009497869018190385759 453.60277218931929610
52.009497869018190385759 1294.93719507899618293 52.009497869018190385759 455.72946491832186666
54.009497869018218807469 1306.21182343896271050 54.009497869018218807469 457.66897989221621401
56.009497869018190385759 1316.98125192560746655 56.009497869018190385759 459.44172359708113618
58.009497869018218807469 1327.27621697572976700 58.009497869018218807469 461.11794678075580123
60.009497869018190385759 1337.12704489317525258 60.009497869018190385759 462.81146296699313325
62.009497869018190385759 1346.55927954779258471 62.009497869018190385759 464.46552560966597412
64.009497869018218807469 1355.59957358116412252 64.009497869018218807469 466.07983870843111163
66.009497869018190385759 1364.28352960851725584 66.009497869018190385759 467.81652294763523514
68.009497869018190385759 1372.64190753274715462 68.009497869018190385759 469.58893367057811474
70.009497869018190385759 1380.69328561446127424 70.009497869018190385759 471.11389349290425343
72.009497869018190385759 1388.45696585231075915 72.009497869018190385759 472.36567878236957085
74.009497869018218807469 1395.95082514692558107 74.009497869018218807469 473.54898317907975525
76.009497869018190385759 1403.18923490801125809 76.009497869018190385759 474.66716781669424563
78.009497869018190385759 1410.19060200585431630 78.009497869018190385759 475.92913179931537115
80.009497869018218807469 1416.96634645326116697 80.009497869018218807469 476.86522623382415986
82.009497869018190385759 1423.51639678579590509 82.009497869018190385759 477.92959163279260792
84.009497869018218807469 1429.84393980811751135 84.009497869018218807469 478.85725614700254482
86.009497869018190385759 1435.95420116269815480 86.009497869018190385759 479.38136488921838918
88.009497869018190385759 1441.86190126331712236 88.009497869018190385759 480.01507925262507115
91.009497869018218807469 1450.35730480039092072 91.009497869018218807469 480.76113417750025292
94.009497869018218807469 1458.44230666774910787 94.009497869018218807469 481.83937830682390313
97.009497869018218807469 1466.17226852992826025 97.009497869018218807469 483.51777534169809769
99.504748934509137825444 1472.37126760937894687 99.504748934509137825444 483.86439030096175884
nan nan nan nan

