Time Pressure difference Time.1 Pressure.1 difference.1
(hr) (psi) (hr) (psi)
0.000200000000020850166 0.13614895990494946 0.000200000000020850166 0.10963356784580078
0.000399999999999067768 0.26119749786215046 0.000399999999999067768 0.25118128446068971
0.000600000000019917934 0.37982840203322210 0.000600000000019917934 0.35288592224452692
0.000799999999998135536 0.49365554718192473 0.000799999999998135536 0.45039788653512908
0.001007140329434719206 0.60744814755285348 0.001007140329434719206 0.54744768914647257
0.001267914553977789183 0.74576190615428739 0.001267914553977789183 0.66419692279209874
0.001596209851982166583 0.91331813591998912 0.001596209851982166583 0.80305691905971455
0.002009509145224797066 1.11557720084586198 0.002009509145224797066 0.96739147599055852
0.002529822128153114136 1.35880915233934174 0.002529822128153114136 1.16086544737226660
0.003184857364431081805 1.65016157024671273 0.003184857364431081805 1.38743020917811011
0.004009497869034817086 1.99772343294994492 0.004009497869034817086 1.65130581671424359
0.005047658755856332391 2.41058463694170699 0.005047658755856332391 1.95696415545306213
0.006354625877790454069 2.89889195959526225 0.006354625877790454069 2.30911891932044222
0.008000000000009777068 3.47390375431906939 0.008000000000009777068 2.71272938899481852
0.010071403294361402914 4.14804735802804103 0.010071403294361402914 3.17302534658350277
0.012679145539692626699 4.93498484431462536 0.012679145539692626699 3.69555929474494116
0.015962098519750611558 5.84969389366907500 0.015962098519750611558 4.28628807617801488
0.020095091452091651263 6.90857031061695004 0.020095091452091651263 4.95167902792889425
0.025298221281360611101 8.12955662213884445 0.025298221281360611101 5.69883344275453130
0.031848573644296607199 9.53229982351792238 0.031848573644296607199 6.53563824634838930
0.040094978690191851456 11.13834753710373882 0.040094978690191851456 7.47099352704602104
0.050476587558435426217 12.97140730628900052 0.050476587558435426217 8.51515533907175204
0.063546258777947173257 15.05769603437675386 0.063546258777947173257 9.68007820104550021
0.080000000000012505552 17.42635051298498183 0.080000000000012505552 10.97935128907504243
0.100714032943542974863 20.10973845282191519 0.100714032943542974863 12.42715864884257826
0.126791455396883634421 23.14337806617082549 0.126791455396883634421 14.03595661803939976
0.159620985197506115583 26.56516399140977569 0.159620985197506115583 15.81334735276748127
0.200950914520774404082 30.41382790784250645 0.200950914520774404082 17.75939368953584463
0.252982212813464002465 34.72690449620982633 0.252982212813464002465 19.86594274760751588
0.318485736442809752589 39.53885102731935319 0.318485736442809752589 22.11747281755424765
0.400949786901833249431 44.87936628457665478 0.400949786901833249431 24.49645761398042509
0.504765875584169521062 50.77392519663936099 0.504765875584169521062 26.98650890524939427
0.635462587779443310865 57.24347616633309599 0.635462587779443310865 29.57632178658048616
0.800000000000011368684 64.30668991647263510 0.800000000000011368684 32.26495220044466805
1.007140329435344483500 71.98194278846784755 1.007140329435344483500 35.06838067822803140
1.267914553968907398485 80.29235798444484828 1.267914553968907398485 37.99393892647725579
1.596209851975117999245 89.25589955893781280 1.596209851975117999245 41.09183796592002125
2.009509145207687197399 98.91338199713626977 2.009509145207687197399 44.38933775350697886
2.529822128134725289783 109.28841890265027814 2.529822128134725289783 47.94394192436484303
3.184857364427983839050 120.43836342858371324 3.184857364427983839050 51.83386947775058928
4.009497869018204596614 132.40964693659253726 4.009497869018204596614 56.08824756180317195
5.009497869018190385759 144.81887947040431186 5.009497869018190385759 60.57932720154149564
6.009497869018190385759 155.59840528463678311 6.009497869018190385759 64.52509057223210220
7.009497869018204596614 165.17223317187404064 7.009497869018204596614 68.04419069663633479
8.009497869018190385759 173.80611803061560749 8.009497869018190385759 71.20257039068843596
9.009497869018204596614 181.67943861731700395 9.009497869018204596614 74.05840990466275287
10.009497869018190385759 188.92036918630125797 10.009497869018190385759 76.64919171615584048
11.009497869018190385759 195.62455301807256092 11.009497869018190385759 78.98823969909192044
12.009497869018204596614 201.86588173801516177 12.009497869018204596614 81.12708966583979020
13.009497869018190385759 207.70271722263987613 13.009497869018190385759 83.08784749779196943
14.009497869018204596614 213.18281169722683899 14.009497869018204596614 84.88674748178065954
15.009497869018190385759 218.34468852655106730 15.009497869018190385759 86.54305782368082589
16.009497869018190385759 223.22031140647177949 16.009497869018190385759 88.07353750813972226
17.009497869018204596614 227.83765713145822929 17.009497869018204596614 89.49379876472789874
18.009497869018190385759 232.22094317273010233 18.009497869018190385759 90.81996234966455006
19.009497869018204596614 236.39075431908756286 19.009497869018204596614 92.05616756344392115
20.009497869018190385759 240.36566607731396061 20.009497869018190385759 93.20855937004290581
21.009497869018190385759 244.16089718603993219 21.009497869018190385759 94.28283831600859344
22.009497869018204596614 247.78947049800595437 22.009497869018204596614 95.28836252087883452
23.009497869018190385759 251.26329192344974217 23.009497869018190385759 96.22858149392460803
24.009497869018204596614 254.59336709081921413 24.009497869018204596614 97.11348249383881637
25.009497869018204596614 257.79001481483658154 25.009497869018204596614 97.94771802199814204
26.009497869018190385759 260.86231793019703673 26.009497869018190385759 98.73617924121411704
27.009497869018204596614 263.81856158631342169 27.009497869018204596614 99.48420635903805476
28.009497869018190385759 266.66594150868377255 28.009497869018190385759 100.19356839897329792
29.009497869018190385759 269.41091196068032332 29.009497869018190385759 100.86129282574253807
30.009497869018190385759 272.05946244118092636 30.009497869018190385759 101.50083213626781742
31.009497869018218807469 274.61707956697864574 31.009497869018218807469 102.10760190361561683
32.009497869018190385759 277.08881703161483756 32.009497869018190385759 102.68406225612535820
33.009497869018190385759 279.47935196198358199 33.009497869018190385759 103.22936102674574954
34.009497869018218807469 281.79318144858467576 34.009497869018218807469 103.75483122935754920
35.009497869018190385759 284.03431198473589347 35.009497869018190385759 104.25566207317375245
36.009497869018190385759 286.20644722595596932 36.009497869018190385759 104.73837922101193953
37.009497869018190385759 288.31301802447768523 37.009497869018190385759 105.20254781670620048
38.009497869018218807469 290.35729183609674919 38.009497869018218807469 105.65022394549724538
39.009497869018190385759 292.34225806732774799 39.009497869018190385759 106.08453241774476794
40.009497869018190385759 294.27071612167867443 40.009497869018190385759 106.50411488340522226
41.009497869018218807469 296.14535433218441085 41.009497869018218807469 106.90861666588553192
42.009497869018190385759 297.96863403692327665 42.009497869018190385759 107.29657491153230353
43.009497869018190385759 299.74286854221332987 43.009497869018190385759 107.67606845438115215
44.009497869018218807469 301.47029515279854195 44.009497869018218807469 108.03415056982130693
46.009497869018190385759 304.79306729869148285 46.009497869018190385759 108.72181931434701596
48.009497869018218807469 307.95127632079766045 48.009497869018218807469 109.35963539240586329
50.009497869018190385759 310.95635493720556042 50.009497869018190385759 109.92770244801080537
52.009497869018190385759 313.81966645056900234 52.009497869018190385759 110.44309269658398875
54.009497869018218807469 316.55199982142636372 54.009497869018218807469 110.91312162501111516
56.009497869018190385759 319.16190126559325790 56.009497869018190385759 111.34273461340714562
58.009497869018218807469 321.65681956003038522 58.009497869018218807469 111.74895647682762956
60.009497869018190385759 324.04410408862565873 60.009497869018190385759 112.15936918774001185
62.009497869018190385759 326.32994524327330055 62.009497869018190385759 112.56022058716273193
64.009497869018218807469 328.52080211953642674 64.009497869018218807469 112.95143894132418438
66.009497869018190385759 330.62530278129185035 66.009497869018190385759 113.37231315109136176
68.009497869018190385759 332.65090169235679696 68.009497869018190385759 113.80184544346899145
70.009497869018190385759 334.60210117421030418 70.009497869018190385759 114.17140960813391359
72.009497869018190385759 336.48357894157203418 72.009497869018190385759 114.47477168893641419
74.009497869018218807469 338.29966734585946142 74.009497869018218807469 114.76153786763318010
76.009497869018190385759 340.05384920540353733 76.009497869018190385759 115.03252269326013391
78.009497869018190385759 341.75058530634555609 78.009497869018190385759 115.33835151461438784
80.009497869018218807469 343.39264321503799238 80.009497869018218807469 115.56520795546737190
82.009497869018190385759 344.98000561253644491 82.009497869018190385759 115.82315003617610216
84.009497869018218807469 346.51344480036937057 84.009497869018218807469 116.04796354028556493
86.009497869018190385759 347.99422717924244353 86.009497869018190385759 116.17497790923800949
88.009497869018190385759 349.42592014636977638 88.009497869018190385759 116.32855449264681624
91.009497869018218807469 351.48472632978842967 91.009497869018218807469 116.50935608562589607
94.009497869018218807469 353.44407431894853744 94.009497869018218807469 116.77066158700660026
97.009497869018218807469 355.31738065572164942 97.009497869018218807469 117.17741026922642789
99.504748934509137825444 356.81966804914372915 99.504748934509137825444 117.26141016614521106
nan nan nan nan

