Time Pressure difference Time.1 Pressure.1 difference.1
(hr) (psi) (hr) (psi)
0.000200000000020850166 0.44360622650348919 0.000200000000020850166 0.35721266886021902
0.000399999999999067768 0.85104459468272087 0.000399999999999067768 0.81840934991862102
0.000600000000019917934 1.23757276047088283 0.000600000000019917934 1.14978764775277176
0.000799999999998135536 1.60844911801583157 0.000799999999998135536 1.46750520173259091
0.001007140329434719206 1.97921292032330820 0.001007140329434719206 1.78371692122999015
0.001267914553977789183 2.42987258433787057 0.001267914553977789183 2.16411414953689318
0.001596209851982166583 2.97581128901403025 0.001596209851982166583 2.61655358792533344
0.002009509145224797066 3.63482022033844032 0.002009509145224797066 3.15199530363956715
0.002529822128153114136 4.42732872163313029 0.002529822128153114136 3.78238027632831919
0.003184857364431081805 5.37662533602363002 0.003184857364431081805 4.52058304419021617
0.004009497869034817086 6.50906591065559059 0.004009497869034817086 5.38035356764585959
0.005047658755856332391 7.85426752585951693 0.005047658755856332391 6.37626233067948256
0.006354625877790454069 9.44529083538456327 0.006354625877790454069 7.52366768767594696
0.008000000000009777068 11.31881827643521099 0.008000000000009777068 8.83872817403256761
0.010071403294361402914 13.51534111709136177 0.010071403294361402914 10.33848368419789843
0.012679145539692626699 16.07937369603611444 0.012679145539692626699 12.04102561419642825
0.015962098519750611558 19.05971691728440121 0.015962098519750611558 13.96576279765694117
0.020095091452091651263 22.50979227580138442 0.020095091452091651263 16.13376738220788198
0.025298221281360611101 26.48806086224359291 0.025298221281360611101 18.56817709644745307
0.031848573644296607199 31.05853733706663533 0.031848573644296607199 21.29468945101426058
0.040094978690191851456 36.29142906320063844 0.040094978690191851456 24.34230308537522447
0.050476587558435426217 42.26398094851306553 0.050476587558435426217 27.74443470367884146
0.063546258777947173257 49.06161400211767187 0.063546258777947173257 31.54003501769220819
0.080000000000012505552 56.77926293516536305 0.080000000000012505552 35.77338084846977750
0.100714032943542974863 65.52238957430436983 0.100714032943542974863 40.49068724595411339
0.126791455396883634421 75.40672084197417746 0.126791455396883634421 45.73253996976573177
0.159620985197506115583 86.55572663135161804 0.159620985197506115583 51.52370868236877044
0.200950914520774404082 99.09560411731102647 0.200950914520774404082 57.86439812030084795
0.252982212813464002465 113.14865036402431997 0.252982212813464002465 64.72804422709482708
0.318485736442809752589 128.82713549011194232 0.318485736442809752589 72.06407352093225427
0.400949786901833249431 146.22782531183491983 0.400949786901833249431 79.81538112687029241
0.504765875584169521062 165.43372330553373217 0.504765875584169521062 87.92857022424665558
0.635462587779443310865 186.51308443206332299 0.635462587779443310865 96.36680670023201856
0.800000000000011368684 209.52674242015538653 0.800000000000011368684 105.12701458716311720
1.007140329435344483500 234.53457183275511966 1.007140329435344483500 114.26126231972101266
1.267914553968907398485 261.61191365261424835 1.267914553968907398485 123.79343837033526654
1.596209851975117999245 290.81729911236328689 1.596209851975117999245 133.88714238346469187
2.009509145207687197399 322.28371167198793046 2.009509145207687197399 144.63119388917382935
2.529822128134725289783 356.08809016083301913 2.529822128134725289783 156.21295363268325218
3.184857364427983839050 392.41730501730847891 3.184857364427983839050 168.88727802365988850
4.009497869018204596614 431.42264084285369563 4.009497869018204596614 182.74907035246855003
5.009497869018190385759 471.85492047225142187 5.009497869018190385759 197.38209357425333224
6.009497869018190385759 506.97722161422865383 6.009497869018190385759 210.23834455677823030
7.009497869018204596614 538.17106742264445529 7.009497869018204596614 221.70442353354587794
8.009497869018190385759 566.30235160524750881 8.009497869018190385759 231.99518814108924403
9.009497869018204596614 591.95553351686248789 9.009497869018204596614 241.30020370035720134
10.009497869018190385759 615.54823586525640167 10.009497869018190385759 249.74159718505720207
11.009497869018190385759 637.39208758086272155 11.009497869018190385759 257.36278099759067572
12.009497869018204596614 657.72784544309342891 12.009497869018204596614 264.33167127386263928
13.009497869018190385759 676.74566655508476742 13.009497869018190385759 270.72029431972879365
14.009497869018204596614 694.60113921129402570 14.009497869018204596614 276.58154536646117094
15.009497869018190385759 711.41978184749882530 15.009497869018190385759 281.97820488704797981
16.009497869018190385759 727.30573991229539388 16.009497869018190385759 286.96487770509264692
17.009497869018204596614 742.35016856568540788 17.009497869018204596614 291.59243223892110564
18.009497869018190385759 756.63197418367542468 18.009497869018190385759 295.91339380962131145
19.009497869018204596614 770.21822698471942203 19.009497869018204596614 299.94124925891344446
20.009497869018190385759 783.16945046069884029 20.009497869018190385759 303.69602036502993769
21.009497869018190385759 795.53523094132788174 21.009497869018190385759 307.19628088677524147
22.009497869018204596614 807.35800002921712348 22.009497869018204596614 310.47252184000632269
23.009497869018190385759 818.67655005827305104 23.009497869018190385759 313.53598255987526500
24.009497869018204596614 829.52674002668015873 24.009497869018204596614 316.41920394970560437
25.009497869018204596614 839.94219112746213796 25.009497869018204596614 319.13734498376317106
26.009497869018190385759 849.95249743190572644 26.009497869018190385759 321.70634225296686282
27.009497869018204596614 859.58465395980147150 27.009497869018204596614 324.14359544455805917
28.009497869018190385759 868.86210612444745038 28.009497869018190385759 326.45486846478661391
29.009497869018190385759 877.80588347628247448 29.009497869018190385759 328.63047607508417514
30.009497869018190385759 886.43550125066110468 30.009497869018190385759 330.71424976267479678
31.009497869018218807469 894.76883617152918760 31.009497869018218807469 332.69125235628609971
32.009497869018190385759 902.82235439421754108 32.009497869018190385759 334.56949954880406040
33.009497869018190385759 910.61129512888044246 33.009497869018190385759 336.34621477395728562
34.009497869018218807469 918.15031098357519568 34.009497869018218807469 338.05832373081886999
35.009497869018190385759 925.45245608213417654 35.009497869018190385759 339.69015169995628867
36.009497869018190385759 932.52979782962574973 36.009497869018190385759 341.26296086846195976
37.009497869018190385759 939.39351477206196250 37.009497869018190385759 342.77533436981747172
38.009497869018218807469 946.05425307035920923 38.009497869018218807469 344.23397142681244532
39.009497869018190385759 952.52175293365587549 39.009497869018190385759 345.64905342704747682
40.009497869018190385759 958.80513549535965012 40.009497869018190385759 347.01615453768840780
41.009497869018218807469 964.91315999442508655 41.009497869018218807469 348.33411913664906479
42.009497869018190385759 970.85384606536001684 42.009497869018190385759 349.59818089306952515
43.009497869018190385759 976.63473101940928700 43.009497869018190385759 350.83466260136276560
44.009497869018218807469 982.26310453631617747 44.009497869018218807469 352.00138070276938151
46.009497869018190385759 993.08949949518705580 46.009497869018190385759 354.24197172202076445
48.009497869018218807469 1003.37970801226936146 48.009497869018218807469 356.32013070163009161
50.009497869018190385759 1013.17098064704873650 50.009497869018190385759 358.17103050368359618
52.009497869018190385759 1022.50034178674411578 52.009497869018190385759 359.85029653337528543
54.009497869018218807469 1031.40294447310907344 54.009497869018218807469 361.38176441555822294
56.009497869018190385759 1039.90663434338921434 56.009497869018190385759 362.78154739423320052
58.009497869018218807469 1048.03568131372526295 58.009497869018218807469 364.10511643274060134
60.009497869018190385759 1055.81403145359900009 60.009497869018190385759 365.44234026554852335
62.009497869018190385759 1063.26185455637937594 62.009497869018190385759 366.74841103399722897
64.009497869018218807469 1070.40019591695113377 64.009497869018218807469 368.02309501211669840
66.009497869018190385759 1077.25716785332974723 66.009497869018190385759 369.39440493734713300
68.009497869018190385759 1083.85705881081094049 68.009497869018190385759 370.79392498888523733
70.009497869018190385759 1090.21453844124539501 70.009497869018190385759 371.99805438254622914
72.009497869018190385759 1096.34484787006704209 72.009497869018190385759 372.98648138208403680
74.009497869018218807469 1102.26210294557517955 74.009497869018218807469 373.92083492036528014
76.009497869018190385759 1107.97765153189197918 76.009497869018190385759 374.80376899507285771
78.009497869018190385759 1113.50602794869723766 78.009497869018190385759 375.80023323168313709
80.009497869018218807469 1118.85624959625010888 80.009497869018218807469 376.53938636039640642
82.009497869018190385759 1124.02826004524217751 82.009497869018190385759 377.37982401896937290
84.009497869018218807469 1129.02457564076394192 84.009497869018218807469 378.11232076587549500
86.009497869018190385759 1133.84932262247662038 86.009497869018190385759 378.52616428669307425
88.009497869018190385759 1138.51412443295203047 88.009497869018190385759 379.02655392384372135
91.009497869018218807469 1145.22221271189300751 91.009497869018218807469 379.61564922404483013
94.009497869018218807469 1151.60624214910171759 94.009497869018218807469 380.46704572030171221
97.009497869018218807469 1157.70992708155449691 97.009497869018218807469 381.79233126182020897
99.504748934509137825444 1162.60474259968236765 99.504748934509137825444 382.06602323364893437
nan nan nan nan

