Time Pressure difference Time.1 Pressure.1 difference.1
(hr) (psi) (hr) (psi)
0.000200000000020850166 0.78173441264105614 0.000200000000020850166 0.62948944175198795
0.000399999999999067768 1.49973288607663302 0.000399999999999067768 1.44222221022758657
0.000600000000019917934 2.18088285782811608 0.000600000000019917934 2.02618565244797066
0.000799999999998135536 2.83445080662149085 0.000799999999998135536 2.58607577708357095
0.001007140329434719206 3.48782040765237289 0.001007140329434719206 3.14331228108826277
0.001267914553977789183 4.28198457105071562 0.001267914553977789183 3.81365815559199506
0.001596209851982166583 5.24405193426587157 0.001596209851982166583 4.61095868361209771
0.002009509145224797066 6.40537458727431730 0.002009509145224797066 5.55452798027546013
0.002529822128153114136 7.80195364942094560 0.002529822128153114136 6.66540875002208022
0.003184857364431081805 9.47482879619678364 0.003184857364431081805 7.96628883841277347
0.004009497869034817086 11.47044498589391459 0.004009497869034817086 9.48139878278233184
0.005047658755856332391 13.84099420661584645 0.005047658755856332391 11.23641506839807747
0.006354625877790454069 16.64473680097279740 0.006354625877790454069 13.25840258620803525
0.008000000000009777068 19.94631551243641354 0.008000000000009777068 15.57583632692079867
0.010071403294361402914 23.81708510516100219 0.010071403294361402914 18.21874443505362962
0.012679145539692626699 28.33548990279551205 0.012679145539692626699 21.21900803850803996
0.015962098519750611558 33.58752812573727198 0.015962098519750611558 24.61082988794520077
0.020095091452091651263 39.66734051975117126 0.020095091452091651263 28.43134386915216893
0.025298221281360611101 46.67794873700599823 0.025298221281360611101 32.72132388834332062
0.031848573644296607199 54.73216107459466429 0.031848573644296607199 37.52605476612124846
0.040094978690191851456 63.95369877073301268 0.040094978690191851456 42.89663865803897380
0.050476587558435426217 74.47868480808794800 0.050476587558435426217 48.89196334796692156
0.063546258777947173257 86.45765030727312705 0.063546258777947173257 55.58066879171728658
0.080000000000012505552 100.05789168169950187 0.080000000000012505552 63.04078075320560259
0.100714032943542974863 115.46525650109286687 0.100714032943542974863 71.35374059362909804
0.126791455396883634421 132.88368175356325196 0.126791455396883634421 80.59106959258885183
0.159620985197506115583 152.53074929133634896 0.159620985197506115583 90.79641749253855210
0.200950914520774404082 174.62884705327155643 0.200950914520774404082 101.97014508552175016
0.252982212813464002465 199.39349010186413125 0.252982212813464002465 114.06544050137284785
0.318485736442809752589 227.02252375576225063 0.318485736442809752589 126.99318183705597107
0.400949786901833249431 257.68647124935495185 0.400949786901833249431 140.65273739895354765
0.504765875584169521062 291.53160346422055227 0.504765875584169521062 154.95000992299790710
0.635462587779443310865 328.67820106493456933 0.635462587779443310865 169.82008937899232137
0.800000000000011368684 369.23346682809841468 0.800000000000011368684 185.25755521683890947
1.007140329435344483500 413.30291326345553671 1.007140329435344483500 201.35416378433129125
1.267914553968907398485 461.01930820738942884 1.267914553968907398485 218.15201196796010663
1.596209851975117999245 512.48579691807697145 1.596209851975117999245 235.93939930981554198
2.009509145207687197399 567.93672630223841225 2.009509145207687197399 254.87284589238896615
2.529822128134725289783 627.50767996301954099 2.529822128134725289783 275.28252368660031379
3.184857364427983839050 691.52796583994495450 3.184857364427983839050 297.61754727609542215
4.009497869018204596614 760.26418158647913970 4.009497869018204596614 322.04515770375996908
5.009497869018190385759 831.51499476138747013 5.009497869018190385759 347.83185123962016405
6.009497869018190385759 893.40842594750245098 6.009497869018190385759 370.48747059331071796
7.009497869018204596614 948.37903112422168306 7.009497869018204596614 390.69329273618120624
8.009497869018190385759 997.95271067029295864 8.009497869018190385759 408.82794537510665123
9.009497869018204596614 1043.15941403899046236 9.009497869018204596614 425.22548544160753181
10.009497869018190385759 1084.73508681145494847 10.009497869018190385759 440.10112826034537648
11.009497869018190385759 1123.22888958179032670 11.009497869018190385759 453.53137629423656563
12.009497869018204596614 1159.06509019904319757 12.009497869018204596614 465.81213571869551515
13.009497869018190385759 1192.57878844867400403 13.009497869018190385759 477.07033316039894544
14.009497869018204596614 1224.04416606374729781 14.009497869018204596614 487.39918196956472229
15.009497869018190385759 1253.68241489146089407 15.009497869018190385759 496.90931552607952426
16.009497869018190385759 1281.67706274595047944 16.009497869018190385759 505.69695986816498134
17.009497869018204596614 1308.18874561743882623 17.009497869018204596614 513.85175664362998305
18.009497869018190385759 1333.35651437089518367 18.009497869018190385759 521.46626733735968173
19.009497869018204596614 1357.29856188706889952 19.009497869018204596614 528.56425881208190276
20.009497869018190385759 1380.12154423512674839 20.009497869018190385759 535.18101396535621461
21.009497869018190385759 1401.91284373303142274 21.009497869018190385759 541.34926395730201421
22.009497869018204596614 1422.74723445283643741 22.009497869018204596614 547.12274084790328743
23.009497869018190385759 1442.69307725277462850 23.009497869018190385759 552.52125088544619302
24.009497869018204596614 1461.81356379069279683 24.009497869018204596614 557.60213849484375714
25.009497869018204596614 1480.16794220606720955 25.009497869018204596614 562.39211721421997936
26.009497869018190385759 1497.80836393986760413 26.009497869018190385759 566.91927091796014793
27.009497869018204596614 1514.78240031701943735 27.009497869018204596614 571.21426178678450469
28.009497869018190385759 1531.13136745370593417 28.009497869018190385759 575.28724712597306734
29.009497869018190385759 1546.89232416984009433 29.009497869018190385759 579.12115935659858224
30.009497869018190385759 1562.09966071996745995 30.009497869018190385759 582.79323946373551735
31.009497869018218807469 1576.78487993127828304 31.009497869018218807469 586.27716477625449443
32.009497869018190385759 1590.97699889031559906 32.009497869018190385759 589.58706075632414922
33.009497869018190385759 1604.70287252897151120 33.009497869018190385759 592.71803446675448868
34.009497869018218807469 1617.98832205368648829 34.009497869018218807469 595.73515733339911549
35.009497869018190385759 1630.85635178048937632 35.009497869018190385759 598.61080695860755441
36.009497869018190385759 1643.32822720397780358 36.009497869018190385759 601.38245212064555290
37.009497869018190385759 1655.42364744823726141 37.009497869018190385759 604.04759598053840364
38.009497869018218807469 1667.16137345451170404 38.009497869018218807469 606.61804408266266364
39.009497869018190385759 1678.55856967229397014 39.009497869018190385759 609.11173833265536359
40.009497869018190385759 1689.63130959974864709 40.009497869018190385759 611.52087941295860674
41.009497869018218807469 1700.39502899523472479 41.009497869018218807469 613.84343085632076509
42.009497869018190385759 1710.86386026694958673 42.009497869018190385759 616.07099331072117820
43.009497869018190385759 1721.05108586051051134 43.009497869018190385759 618.24995348806760376
44.009497869018218807469 1730.96955183887075691 44.009497869018218807469 620.30597442562225297
46.009497869018190385759 1750.04810619303634667 46.009497869018190385759 624.25440210710235078
48.009497869018218807469 1768.18177887490992362 48.009497869018218807469 627.91658783002276323
50.009497869018190385759 1785.43621378780107989 50.009497869018190385759 631.17829152841375162
52.009497869018190385759 1801.87665626837679156 52.009497869018190385759 634.13753773588064178
54.009497869018218807469 1817.56505391972837060 54.009497869018218807469 636.83633020954175663
56.009497869018190385759 1832.55047704695039101 56.009497869018190385759 639.30306412643108160
58.009497869018218807469 1846.87569472654809033 58.009497869018218807469 641.63549185870806468
60.009497869018190385759 1860.58290534403204219 60.009497869018190385759 643.99198242411159754
62.009497869018190385759 1873.70765263308021531 62.009497869018190385759 646.29357425046725893
64.009497869018218807469 1886.28702315887676377 64.009497869018218807469 648.53985545980094685
66.009497869018190385759 1898.37055717829639434 66.009497869018190385759 650.95641342247517969
68.009497869018190385759 1910.00105642040034581 68.009497869018190385759 653.42268400233581360
70.009497869018190385759 1921.20437212664705839 70.009497869018190385759 655.54463209065897900
72.009497869018190385759 1932.00736260408098133 72.009497869018190385759 657.28646381834369095
74.009497869018218807469 1942.43490316716020061 74.009497869018218807469 658.93300588833335496
76.009497869018190385759 1952.50699131674036835 76.009497869018190385759 660.48893524426841850
78.009497869018190385759 1962.24923980841231241 78.009497869018190385759 662.24493039984633924
80.009497869018218807469 1971.67753933909148145 80.009497869018218807469 663.54748523880994071
82.009497869018190385759 1980.79179046758554250 82.009497869018190385759 665.02852630661550393
84.009497869018218807469 1989.59642756256039320 84.009497869018218807469 666.31935109669461781
86.009497869018190385759 1998.09872199070491661 86.009497869018190385759 667.04863689644901115
88.009497869018190385759 2006.31915688437584322 88.009497869018190385759 667.93043650997753957
91.009497869018218807469 2018.14032425620257527 91.009497869018218807469 668.96855554658827714
94.009497869018218807469 2029.39042672143546042 94.009497869018218807469 670.46890856275763326
97.009497869018218807469 2040.14649881994023417 97.009497869018218807469 672.80436116121768464
99.504748934509137825444 2048.77226984261096732 99.504748934509137825444 673.28666826165783732
nan nan nan nan

