Time Pressure difference Time.1 Pressure.1 difference.1
(hr) (psi) (hr) (psi)
0.000200000000020850166 0.43088901596291707 0.000200000000020850166 0.34697217076473214
0.000399999999999067768 0.82664702620109154 0.000399999999999067768 0.79494736180965542
0.000600000000019917934 1.20209428335788981 0.000600000000019917934 1.11682577589476661
0.000799999999998135536 1.56233843503730019 0.000799999999998135536 1.42543506947381515
0.001007140329434719206 1.92247325818925052 0.001007140329434719206 1.73258169751850666
0.001267914553977789183 2.36021350519159068 0.001267914553977789183 2.10207377762774117
0.001596209851982166583 2.89050135324128421 0.001596209851982166583 2.54154277680437124
0.002009509145224797066 3.53061795432536529 0.002009509145224797066 3.06163456137671286
0.002529822128153114136 4.30040698762341123 0.002529822128153114136 3.67394778948585499
0.003184857364431081805 5.22248936517640949 0.003184857364431081805 4.39098791476149142
0.004009497869034817086 6.32246537021521071 0.004009497869034817086 5.22611071663409010
0.005047658755856332391 7.62910302680452368 0.005047658755856332391 6.19346897549980113
0.006354625877790454069 9.17451521278500515 0.006354625877790454069 7.30798075565150995
0.008000000000009777068 10.99433276092189082 0.008000000000009777068 8.58534136297261163
0.010071403294361402914 13.12788614408874466 0.010071403294361402914 10.04210219578075680
0.012679145539692626699 15.61841357321551804 0.012679145539692626699 11.69583600974223181
0.015962098519750611558 18.51331693820542412 0.015962098519750611558 13.56539523010185100
0.020095091452091651263 21.86448625777672206 0.020095091452091651263 15.67124791256617300
0.025298221281360611101 25.72870667226359132 0.025298221281360611101 18.03586847816818306
0.031848573644296607199 30.16815768322155478 0.031848573644296607199 20.68421774668501456
0.040094978690191851456 35.25103396358105812 0.040094978690191851456 23.64446303065114563
0.050476587558435426217 41.05236598034321105 0.050476587558435426217 26.94906305112818146
0.063546258777947173257 47.65512591099456330 0.063546258777947173257 30.63585188902311529
0.080000000000012505552 55.15152689823819543 0.080000000000012505552 34.74783704674299400
0.100714032943542974863 63.64400741112870463 0.100714032943542974863 39.32990869084244423
0.126791455396883634421 73.24497673689228350 0.126791455396883634421 44.42148907687194281
0.159620985197506115583 84.07436515962653800 0.159620985197506115583 50.04663777579158790
0.200950914520774404082 96.25475205998507988 0.200950914520774404082 56.20555365479475540
0.252982212813464002465 109.90492851547725195 0.252982212813464002465 62.87243419023037916
0.318485736442809752589 125.13394610843927524 0.318485736442809752589 69.99815573028158155
0.400949786901833249431 142.03579659294587145 0.400949786901833249431 77.52725047061937858
0.504765875584169521062 160.69110391903447521 0.504765875584169521062 85.40785235947062404
0.635462587779443310865 181.16616632861462222 0.635462587779443310865 93.60418323665032858
0.800000000000011368684 203.52007358180352981 0.800000000000011368684 102.11325531569301006
1.007140329435344483500 227.81098377009604405 1.007140329435344483500 110.98564434428213588
1.267914553968907398485 254.11207801670460071 1.267914553968907398485 120.24455396511484651
1.596209851975117999245 282.48020959312185596 1.596209851975117999245 130.04889378225237806
2.009509145207687197399 313.04454961731039475 2.009509145207687197399 140.48493706604406839
2.529822128134725289783 345.87983125234370618 2.529822128134725289783 151.73467334304478982
3.184857364427983839050 381.16756777397921496 3.184857364427983839050 164.04565285266119190
4.009497869018204596614 419.05470678833677312 4.009497869018204596614 177.51005821757485137
5.009497869018190385759 458.32788227996093156 5.009497869018190385759 191.72358498949398609
6.009497869018190385759 492.44330463709223977 6.009497869018190385759 204.21127565717412722
7.009497869018204596614 522.74289179670017802 7.009497869018204596614 215.34864747946446073
8.009497869018190385759 550.06771420678342110 8.009497869018190385759 225.34439859910187920
9.009497869018204596614 574.98547606359659312 9.009497869018204596614 234.38265991805354815
10.009497869018190385759 597.90182775444793606 10.009497869018190385759 242.58205729948221574
11.009497869018190385759 619.11946449675701842 11.009497869018190385759 249.98475860811510074
12.009497869018204596614 638.87224110492707041 12.009497869018204596614 256.75386619518531006
13.009497869018190385759 657.34486329802507498 13.009497869018190385759 262.95934153147345569
14.009497869018204596614 674.68845899781672415 14.009497869018204596614 268.65256345882232836
15.009497869018190385759 691.02494830380999247 15.009497869018190385759 273.89451267274807833
16.009497869018190385759 706.45549104465783330 16.009497869018190385759 278.73822859718944756
17.009497869018204596614 721.06862916329635027 17.009497869018204596614 283.23312136529267491
18.009497869018190385759 734.94100696424459329 18.009497869018190385759 287.43021051322403991
19.009497869018204596614 748.13777191095846320 19.009497869018204596614 291.34259624474560724
20.009497869018190385759 760.71771242051011086 20.009497869018190385759 294.98972635793796826
21.009497869018190385759 772.72899329208235031 21.009497869018190385759 298.38964214297220678
22.009497869018204596614 784.21282970797494727 22.009497869018204596614 301.57196050563851486
23.009497869018190385759 795.20690191157723348 23.009497869018190385759 304.54759857417900548
24.009497869018204596614 805.74604090281252411 24.009497869018204596614 307.34816437610527373
25.009497869018204596614 815.86290402937288491 25.009497869018204596614 309.98838231137870025
26.009497869018190385759 825.58623696589836527 26.009497869018190385759 312.48373210406225553
27.009497869018204596614 834.94226084459637605 27.009497869018204596614 314.85111463080176009
28.009497869018190385759 843.95374895055942943 28.009497869018190385759 317.09612855938803477
29.009497869018190385759 852.64112796347171752 29.009497869018190385759 319.20936630564671077
30.009497869018190385759 861.02335366000124850 30.009497869018190385759 321.23340280489156839
31.009497869018218807469 869.11779027791033059 31.009497869018218807469 323.15372910155275576
32.009497869018190385759 876.94043192423146138 32.009497869018190385759 324.97813109630885720
33.009497869018190385759 884.50608093462926718 33.009497869018190385759 326.70391182090963866
34.009497869018218807469 891.82896985925697209 34.009497869018218807469 328.36693839620852486
35.009497869018190385759 898.92177858905438370 35.009497869018190385759 329.95198546235212689
36.009497869018190385759 905.79622858324523804 36.009497869018190385759 331.47970566649934199
37.009497869018190385759 912.46317792362162891 37.009497869018190385759 332.94872276056463534
38.009497869018218807469 918.93296756918527990 38.009497869018218807469 334.36554391541983478
39.009497869018190385759 925.21505849879554262 39.009497869018190385759 335.74005864077463457
40.009497869018190385759 931.31831036311507432 40.009497869018190385759 337.06796798264508652
41.009497869018218807469 937.25123129306712144 41.009497869018218807469 338.34814944807732218
42.009497869018190385759 943.02161101795502418 42.009497869018190385759 339.57597334638796838
43.009497869018190385759 948.63677077096087942 43.009497869018190385759 340.77700785562387864
44.009497869018218807469 954.10379125281292545 44.009497869018218807469 341.91027872646742480
46.009497869018190385759 964.61981738486974791 46.009497869018190385759 344.08663695090041301
48.009497869018218807469 974.61502835593114469 48.009497869018218807469 346.10521970343836529
50.009497869018190385759 984.12560683423282626 50.009497869018190385759 347.90305829700128015
52.009497869018190385759 993.18751579960292020 52.009497869018190385759 349.53418347929880383
54.009497869018218807469 1001.83490053374509898 54.009497869018218807469 351.02174756047469373
56.009497869018190385759 1010.09480840099854504 56.009497869018190385759 352.38140185342041377
58.009497869018218807469 1017.99081355262353554 58.009497869018218807469 353.66702709149842576
60.009497869018190385759 1025.54617557718916032 60.009497869018190385759 354.96591567108930576
62.009497869018190385759 1032.78048604464515847 62.009497869018190385759 356.23454427585568283
64.009497869018218807469 1039.71418692776364878 64.009497869018218807469 357.47268588023479197
66.009497869018190385759 1046.37458462650602087 66.009497869018190385759 358.80468337927811717
68.009497869018190385759 1052.78527129009626151 68.009497869018190385759 360.16408228262719149
70.009497869018190385759 1058.96049602387415689 70.009497869018190385759 361.33369194662162727
72.009497869018190385759 1064.91506302387642791 72.009497869018190385759 362.29378292762299907
74.009497869018218807469 1070.66268346821448176 74.009497869018218807469 363.20135061404783983
76.009497869018190385759 1076.21437990281560815 76.009497869018190385759 364.05897291932876669
78.009497869018190385759 1081.58426998052209456 78.009497869018190385759 365.02687072757078113
80.009497869018218807469 1086.78111259264778710 80.009497869018218807469 365.74483396895169562
82.009497869018190385759 1091.80485292758794458 82.009497869018190385759 366.56117813646943659
84.009497869018218807469 1096.65793519237786313 84.009497869018218807469 367.27267581980481737
86.009497869018190385759 1101.34436733650341012 86.009497869018190385759 367.67465536110489666
88.009497869018190385759 1105.87543958411538370 88.009497869018190385759 368.16069993277233152
91.009497869018218807469 1112.39122179097876142 91.009497869018218807469 368.73290717209073364
94.009497869018218807469 1118.59223520722184730 94.009497869018218807469 369.55989601162531244
97.009497869018218807469 1124.52094097634972059 97.009497869018218807469 370.84718854436499669
99.504748934509137825444 1129.27543294674046592 99.504748934509137825444 371.11303437197602761
nan nan nan nan

