Time Pressure difference Time.1 Pressure.1 difference.1
(hr) (psi) (hr) (psi)
0.000200000000020850166 0.01196913933230325 0.000200000000020850166 0.00963811585457589
0.000399999999999067768 0.02296241739447476 0.000399999999999067768 0.02208187116137932
0.000600000000019917934 0.03339150787105249 0.000600000000019917934 0.03102293821929907
0.000799999999998135536 0.04339828986214723 0.000799999999998135536 0.03959541859649487
0.001007140329434719206 0.05340203494970140 0.001007140329434719206 0.04812726937551407
0.001267914553977789183 0.06556148625532197 0.001267914553977789183 0.05839093826743725
0.001596209851982166583 0.08029170425670235 0.001596209851982166583 0.07059841046678809
0.002009509145224797066 0.09807272095348236 0.002009509145224797066 0.08504540448268647
0.002529822128153114136 0.11945574965620588 0.002529822128153114136 0.10205410526349597
0.003184857364431081805 0.14506914903267804 0.003184857364431081805 0.12197188652115253
0.004009497869034817086 0.17562403806153362 0.004009497869034817086 0.14516974212872472
0.005047658755856332391 0.21191952852234788 0.005047658755856332391 0.17204080487499449
0.006354625877790454069 0.25484764479958349 0.006354625877790454069 0.20299946543476416
0.008000000000009777068 0.30539813224783025 0.008000000000009777068 0.23848170452701700
0.010071403294361402914 0.36466350400246511 0.010071403294361402914 0.27894728321613216
0.012679145539692626699 0.43384482147820885 0.012679145539692626699 0.32488433360395086
0.015962098519750611558 0.51425880383903955 0.015962098519750611558 0.37681653416949590
0.020095091452091651263 0.60734684049379783 0.020095091452091651263 0.43531244201572700
0.025298221281360611101 0.71468629645176651 0.025298221281360611101 0.50099634661578296
0.031848573644296607199 0.83800438008948774 0.031848573644296607199 0.57456160407458368
0.040094978690191851456 0.97919538787725169 0.040094978690191851456 0.65679063974030960
0.050476587558435426217 1.14034349945397806 0.050476587558435426217 0.74858508475356056
0.063546258777947173257 1.32375349752762683 0.063546258777947173257 0.85099588580619778
0.080000000000012505552 1.53198685828439429 0.080000000000012505552 0.96521769574286087
0.100714032943542974863 1.76788909475357503 0.100714032943542974863 1.09249746363451239
0.126791455396883634421 2.03458268713589652 0.126791455396883634421 1.23393025213533170
0.159620985197506115583 2.33539903221184852 0.159620985197506115583 1.39018438266087729
0.200950914520774404082 2.67374311277736343 0.200950914520774404082 1.56126537929985432
0.252982212813464002465 3.05291468098547947 0.252982212813464002465 1.74645650528417740
0.318485736442809752589 3.47594294745664678 0.318485736442809752589 1.94439321473004356
0.400949786901833249431 3.94543879424849697 0.400949786901833249431 2.15353473529498274
0.504765875584169521062 4.46364177552873542 0.504765875584169521062 2.37244034331862830
0.635462587779443310865 5.03239350912818395 0.635462587779443310865 2.60011620101806429
0.800000000000011368684 5.65333537727232027 0.800000000000011368684 2.83647931432480593
1.007140329435344483500 6.32808288250266848 1.007140329435344483500 3.08293456511894792
1.267914553968907398485 7.05866883379734933 1.267914553968907398485 3.34012649903096781
1.596209851975117999245 7.84667248869782963 1.596209851975117999245 3.61246927172923282
2.009509145207687197399 8.69568193381417665 2.009509145207687197399 3.90235936294566876
2.529822128134725289783 9.60777309034288152 2.529822128134725289783 4.21485203730679903
3.184857364427983839050 10.58798799372164368 3.184857364427983839050 4.55682369035169987
4.009497869018204596614 11.64040852189824449 4.009497869018204596614 4.93083495048819032
5.009497869018190385759 12.73133006333224770 5.009497869018190385759 5.32565513859705497
6.009497869018190385759 13.67898068436367254 6.009497869018190385759 5.67253543492150314
7.009497869018204596614 14.52063588324167220 7.009497869018204596614 5.98190687442956825
8.009497869018190385759 15.27965872796620594 8.009497869018190385759 6.25956662775282968
9.009497869018204596614 15.97181877954435159 9.009497869018204596614 6.51062944216815342
10.009497869018190385759 16.60838410429022005 10.009497869018190385759 6.73839048054117296
11.009497869018190385759 17.19776290268769614 11.009497869018190385759 6.94402107244764100
12.009497869018204596614 17.74645114180353289 12.009497869018204596614 7.13205183875514681
13.009497869018190385759 18.25957953605625050 13.009497869018190385759 7.30442615365204162
14.009497869018204596614 18.74134608327268836 14.009497869018204596614 7.46257120718950784
15.009497869018190385759 19.19513745288361051 15.009497869018190385759 7.60818090757633669
16.009497869018190385759 19.62376364012938623 16.009497869018190385759 7.74272857214415211
17.009497869018204596614 20.02968414342490178 17.009497869018204596614 7.86758670459146359
18.009497869018190385759 20.41502797122901924 18.009497869018190385759 7.98417251425622343
19.009497869018204596614 20.78160477530440176 19.009497869018204596614 8.09284989568737778
20.009497869018190385759 21.13104756723639355 20.009497869018190385759 8.19415906549827788
21.009497869018190385759 21.46469425811340059 21.009497869018190385759 8.28860117063811686
22.009497869018204596614 21.78368971411041244 22.009497869018204596614 8.37699890293440319
23.009497869018190385759 22.08908060865492473 23.009497869018190385759 8.45965551594941623
24.009497869018204596614 22.38183446952256972 24.009497869018204596614 8.53744901044736970
25.009497869018204596614 22.66285844526035831 25.009497869018204596614 8.61078839753829683
26.009497869018190385759 22.93295102683050857 26.009497869018190385759 8.68010366955728507
27.009497869018204596614 23.19284057901656482 27.009497869018204596614 8.74586429530004850
28.009497869018190385759 23.44315969307109881 28.009497869018190385759 8.80822579331633371
29.009497869018190385759 23.68447577676310090 29.009497869018190385759 8.86692684182352053
30.009497869018190385759 23.91731537944448149 30.009497869018190385759 8.92315007791365389
31.009497869018218807469 24.14216084105306237 31.009497869018218807469 8.97649247504313230
32.009497869018190385759 24.35945644233976282 32.009497869018190385759 9.02717030823080080
33.009497869018190385759 24.56961335929525703 33.009497869018190385759 9.07510866169193520
34.009497869018218807469 24.77302694053491550 34.009497869018218807469 9.12130384433912589
35.009497869018190385759 24.97004940525151184 35.009497869018190385759 9.16533292950978051
36.009497869018190385759 25.16100634953458837 36.009497869018190385759 9.20776960184720394
37.009497869018190385759 25.34619938676727102 37.009497869018190385759 9.24857563223790713
38.009497869018218807469 25.52591576581070498 38.009497869018218807469 9.28793177542832815
39.009497869018190385759 25.70041829163320912 39.009497869018190385759 9.32611274002151802
40.009497869018190385759 25.86995306564208263 40.009497869018190385759 9.36299911062902979
41.009497869018218807469 26.03475642480741925 41.009497869018218807469 9.39855970689103692
42.009497869018190385759 26.19504475049874870 42.009497869018190385759 9.43266592628855349
43.009497869018190385759 26.35102141030446887 43.009497869018190385759 9.46602799598955258
44.009497869018218807469 26.50288309035591539 44.009497869018218807469 9.49750774240187390
46.009497869018190385759 26.79499492735749300 46.009497869018190385759 9.55796213752501167
48.009497869018218807469 27.07263967655364212 48.009497869018218807469 9.61403388065106590
50.009497869018190385759 27.33682241206202335 50.009497869018190385759 9.66397384158336870
52.009497869018190385759 27.58854210554452635 52.009497869018190385759 9.70928287442496618
54.009497869018218807469 27.82874723704847497 54.009497869018218807469 9.75060409890207680
56.009497869018190385759 28.05818912224995998 56.009497869018190385759 9.78837227370612339
58.009497869018218807469 28.27752259868399065 58.009497869018218807469 9.82408408587495607
60.009497869018190385759 28.48739376603302631 60.009497869018190385759 9.86016432419692457
62.009497869018190385759 28.68834683457347623 62.009497869018190385759 9.89540400766265726
64.009497869018218807469 28.88094963688232397 64.009497869018218807469 9.92979683000652180
66.009497869018190385759 29.06596068406961209 66.009497869018190385759 9.96679676053550345
68.009497869018190385759 29.24403531361378583 68.009497869018190385759 10.00455784118408786
70.009497869018190385759 29.41556933399650831 70.009497869018190385759 10.03704699851726723
72.009497869018190385759 29.58097397288545238 72.009497869018190385759 10.06371619243397220
74.009497869018218807469 29.74063009633929511 74.009497869018218807469 10.08892640594577372
76.009497869018190385759 29.89484388618932442 76.009497869018190385759 10.11274924775913142
78.009497869018190385759 30.04400749945894944 78.009497869018190385759 10.13963529798807706
80.009497869018218807469 30.18836423868465957 80.009497869018218807469 10.15957872135976992
82.009497869018190385759 30.32791258132188617 82.009497869018190385759 10.18225494823526134
84.009497869018218807469 30.46272042201049501 84.009497869018218807469 10.20201877277235702
86.009497869018190385759 30.59289909268064989 86.009497869018190385759 10.21318487114180229
88.009497869018190385759 30.71876221066986901 88.009497869018190385759 10.22668610924367627
91.009497869018218807469 30.89975616086052312 91.009497869018218807469 10.24258075478029895
94.009497869018218807469 31.07200653353393704 94.009497869018218807469 10.26555266698959024
97.009497869018218807469 31.23669280489860611 97.009497869018218807469 10.30131079289902729
99.504748934509137825444 31.36876202629834864 99.504748934509137825444 10.30869539922155553
nan nan nan nan

