Time Pressure difference Time.1 Pressure.1 difference.1
(hr) (psi) (hr) (psi)
0.000200000000020850166 0.74283470981107058 0.000200000000020850166 0.59816556522461628
0.000399999999999067768 1.42510502954459017 0.000399999999999067768 1.37045612895310409
0.000600000000019917934 2.07236045724719542 0.000600000000019917934 1.92536110323524867
0.000799999999998135536 2.69340636456951232 0.000799999999998135536 2.45739066664496253
0.001007140329434719206 3.31426379406584370 0.001007140329434719206 2.98689865561784185
0.001267914553977789183 4.06890974072091982 0.001267914553977789183 3.62388760622282424
0.001596209851982166583 4.98310389543158916 0.001596209851982166583 4.38151384959503609
0.002009509145224797066 6.08663824417550003 0.002009509145224797066 5.27813041570672947
0.002529822128153114136 7.41372246303827698 0.002529822128153114136 6.33373290791571897
0.003184857364431081805 9.00335406184058051 0.003184857364431081805 7.56988020721902899
0.004009497869034817086 10.89966686219393210 0.004009497869034817086 9.00959712086397779
0.005047658755856332391 13.15225573891821398 0.005047658755856332391 10.67728245255434594
0.006354625877790454069 15.81648195537414914 0.006354625877790454069 12.59865432354505188
0.008000000000009777068 18.95377158263096717 0.008000000000009777068 14.80077078720799300
0.010071403294361402914 22.63192871715299148 0.010071403294361402914 17.31216576460120038
0.012679145539692626699 26.92549423299133693 0.012679145539692626699 20.16313395429520128
0.015962098519750611558 31.91618701326039087 0.015962098519750611558 23.38617615189433607
0.020095091452091651263 37.69346328814632585 0.020095091452091651263 27.01657843260105807
0.025298221281360611101 44.35521827353775848 0.025298221281360611101 31.09308576184202622
0.031848573644296607199 52.00864683930382881 0.031848573644296607199 35.65872955287885304
0.040094978690191851456 60.77131376013193886 0.040094978690191851456 40.76206907888295916
0.050476587558435426217 70.77256843486252080 0.050476587558435426217 46.45906182251785310
0.063546258777947173257 82.15545144030834024 0.063546258777947173257 52.81493216284714265
0.080000000000012505552 95.07893439227521526 0.080000000000012505552 59.90382324204130526
0.100714032943542974863 109.71961694314374824 0.100714032943542974863 67.80312383681692268
0.126791455396883634421 126.27128802037159971 0.126791455396883634421 76.58079627314903348
0.159620985197506115583 144.94070243664785380 0.159620985197506115583 86.27831824889069878
0.200950914520774404082 165.93918193674511485 0.200950914520774404082 96.89603260279720587
0.252982212813464002465 189.47151738866131154 0.252982212813464002465 108.38945685919927087
0.318485736442809752589 215.72570917652811318 0.318485736442809752589 120.67390388918333599
0.400949786901833249431 244.86379516804731793 0.400949786901833249431 133.65374950924484665
0.504765875584169521062 277.02476769375215326 0.504765875584169521062 147.23957880721235369
0.635462587779443310865 312.32292216026792175 0.635462587779443310865 161.36971172568362931
0.800000000000011368684 350.86012685196340044 0.800000000000011368684 176.03899744528328597
1.007140329435344483500 392.73664389532183350 1.007140329435344483500 191.33462644769471694
1.267914553968907398485 438.07863449754796648 1.267914553968907398485 207.29660084610944182
1.596209851975117999245 486.98411132980902494 1.596209851975117999245 224.19887417669551155
2.009509145207687197399 539.67576001734244073 2.009509145207687197399 242.19017796281556798
2.529822128134725289783 596.28241741940507836 2.529822128134725289783 261.58425456535320563
3.184857364427983839050 657.11700486034953883 3.184857364427983839050 282.80787028245237025
4.009497869018204596614 722.43285389030972965 4.009497869018204596614 306.01994411467336477
5.009497869018190385759 790.13817205555767487 5.009497869018190385759 330.52347203917969409
6.009497869018190385759 848.95173872332043175 6.009497869018190385759 352.05173042981579101
7.009497869018204596614 901.18696450368622664 7.009497869018204596614 371.25209539428504968
8.009497869018190385759 948.29381980440257394 8.009497869018190385759 388.48435383490999584
9.009497869018204596614 991.25100300547137522 9.009497869018204596614 404.06593975456104317
10.009497869018190385759 1030.75783847251182124 10.009497869018190385759 418.20135919858654461
11.009497869018190385759 1067.33616014805534178 11.009497869018190385759 430.96330780878167843
12.009497869018204596614 1101.38912398818183647 12.009497869018204596614 442.63296724274130156
13.009497869018190385759 1133.23515495649098739 13.009497869018190385759 453.33094816102982350
14.009497869018204596614 1163.13479129311122051 14.009497869018204596614 463.14582554619886423
15.009497869018190385759 1191.29821816958906311 15.009497869018190385759 472.18272757645638649
16.009497869018190385759 1217.89983091553017402 16.009497869018190385759 480.53309200869642837
17.009497869018204596614 1243.09227215130795230 17.009497869018204596614 488.28209985370773438
18.009497869018190385759 1267.00767346440102301 18.009497869018190385759 495.51770666602686788
19.009497869018204596614 1289.75834636732952276 19.009497869018204596614 502.26249665109787657
20.009497869018190385759 1311.44563964160852265 20.009497869018190385759 508.54999700248686167
21.009497869018190385759 1332.15258739416299250 21.009497869018190385759 514.41131015272810600
22.009497869018204596614 1351.95024288197737405 22.009497869018204596614 519.89749441336641667
23.009497869018190385759 1370.90356527464609826 23.009497869018190385759 525.02737045861067600
24.009497869018204596614 1389.07260176474437685 24.009497869018204596614 529.85542921088983803
25.009497869018204596614 1406.51365225897097844 25.009497869018204596614 534.40705492222048179
26.009497869018190385759 1423.27627310266848326 26.009497869018190385759 538.70893399189890260
27.009497869018204596614 1439.40566843521560259 27.009497869018204596614 542.79020282705926093
28.009497869018190385759 1454.94109845122511615 28.009497869018190385759 546.66051329769493350
29.009497869018190385759 1469.91777789535990451 29.009497869018190385759 550.30364712067216715
30.009497869018190385759 1484.36838573677300701 30.009497869018190385759 553.79300171051613688
31.009497869018218807469 1498.32285719785568290 31.009497869018218807469 557.10356423236430601
32.009497869018190385759 1511.80876545271144096 32.009497869018190385759 560.24875725457411590
33.009497869018190385759 1524.85162911126190011 33.009497869018190385759 563.22393131625574370
34.009497869018218807469 1537.47598449694805822 34.009497869018218807469 566.09091983929693015
35.009497869018190385759 1549.70369121342196195 35.009497869018190385759 568.82347493770078017
36.009497869018190385759 1561.55495656799052995 36.009497869018190385759 571.45720091464204415
37.009497869018190385759 1573.04849944124362082 37.009497869018190385759 573.98972517576510199
38.009497869018218807469 1584.20214721562683735 38.009497869018218807469 576.43226581252065444
39.009497869018190385759 1595.03221022448610711 39.009497869018190385759 578.80187192758535275
40.009497869018190385759 1605.55396213641188297 40.009497869018190385759 581.09113230341415601
41.009497869018218807469 1615.78207061461057492 41.009497869018218807469 583.29811180892500033
42.009497869018190385759 1625.72996482782878047 42.009497869018190385759 585.41482905028328787
43.009497869018190385759 1635.41026627702103724 43.009497869018190385759 587.48536250110157653
44.009497869018218807469 1644.83518179521411184 44.009497869018218807469 589.43907426281623430
46.009497869018190385759 1662.96437267912438074 46.009497869018190385759 593.19102516014595494
48.009497869018218807469 1680.19569992611036469 48.009497869018218807469 596.67097771790679417
50.009497869018190385759 1696.59154094859945872 50.009497869018190385759 599.77037654326784377
52.009497869018190385759 1712.21389442535723902 52.009497869018190385759 602.58236839399944529
54.009497869018218807469 1727.12162539932091931 54.009497869018218807469 605.14686688811013937
56.009497869018190385759 1741.36136239963821026 56.009497869018190385759 607.49085423688632090
58.009497869018218807469 1754.97374628082502568 58.009497869018218807469 609.70721857961439127
60.009497869018190385759 1767.99887560442471113 60.009497869018190385759 611.94644837047167130
62.009497869018190385759 1780.47052542071651260 62.009497869018190385759 614.13351122556366590
64.009497869018218807469 1792.42393683900922952 64.009497869018218807469 616.26801576227978785
66.009497869018190385759 1803.90618495507010266 66.009497869018190385759 618.56432395073466068
68.009497869018190385759 1814.95794165115535179 68.009497869018190385759 620.90787101848741258
70.009497869018190385759 1825.60377179115835133 70.009497869018190385759 622.92422934547789737
72.009497869018190385759 1835.86919719220350089 72.009497869018190385759 624.57938619293338434
74.009497869018218807469 1845.77785535405746487 74.009497869018218807469 626.14399506900963388
76.009497869018190385759 1855.34874868662495828 76.009497869018190385759 627.62250018905115212
78.009497869018190385759 1864.60621543517095233 78.009497869018190385759 629.29111568138500843
80.009497869018218807469 1873.56535556336666559 80.009497869018218807469 630.52885439439069160
82.009497869018190385759 1882.22607457828939914 82.009497869018190385759 631.93619772485101294
84.009497869018218807469 1890.59258619102638477 84.009497869018218807469 633.16279008518438332
86.009497869018190385759 1898.67179993949298478 86.009497869018190385759 633.85578606523813505
88.009497869018190385759 1906.48317969969866681 88.009497869018190385759 634.69370665493568140
91.009497869018218807469 1917.71611673340635207 91.009497869018218807469 635.68016809355231089
94.009497869018218807469 1928.40640548745000160 94.009497869018218807469 637.10586239504152672
97.009497869018218807469 1938.62724720401979539 97.009497869018218807469 639.32510108429585216
99.504748934509137825444 1946.82379325714123297 99.504748934509137825444 639.78340821418782980
nan nan nan nan

