Time Pressure difference Time.1 Pressure.1 difference.1
(hr) (psi) (hr) (psi)
0.000200000000020850166 0.49896349591539174 0.000200000000020850166 0.40178895468763248
0.000399999999999067768 0.95724577513216658 0.000399999999999067768 0.92053800404000030
0.000600000000019917934 1.39200848437450064 0.000600000000019917934 1.29326873701702993
0.000799999999998135536 1.80916620862826250 0.000799999999998135536 1.65063401274137989
0.001007140329434719206 2.22619733196567715 0.001007140329434719206 2.00630554209174283
0.001267914553977789183 2.73309445826873443 0.001267914553977789183 2.43417223902379032
0.001596209851982166583 3.34716042120127888 0.001596209851982166583 2.94307123633422885
0.002009509145224797066 4.08840655474829617 0.002009509145224797066 3.54533029937199196
0.002529822128153114136 4.97981156379308310 0.002529822128153114136 4.25438051317198784
0.003184857364431081805 6.04757015029976586 0.003184857364431081805 5.08470301935054625
0.004009497869034817086 7.32132708669018317 0.004009497869034817086 6.05176362499121101
0.005047658755856332391 8.83439534527537695 0.005047658755856332391 7.17195105322633264
0.006354625877790454069 10.62396119258263738 0.006354625877790454069 8.46254021531173173
0.008000000000009777068 12.73128463808142463 0.008000000000009777068 9.94170605747002156
0.010071403294361402914 15.20190982310276517 0.010071403294361402914 11.62861486907250885
0.012679145539692626699 18.08590599537283339 0.012679145539692626699 13.54361565711470128
0.015962098519750611558 21.43816388503996251 0.015962098519750611558 15.70853926819085977
0.020095091452091651263 25.31877141308519796 0.020095091452091651263 18.14708742653061790
0.025298221281360611101 29.79348498333301620 0.025298221281360611101 20.88528519954545004
0.031848573644296607199 34.93430759498051685 0.031848573644296607199 23.95203686985921010
0.040094978690191851456 40.82020773213292841 0.040094978690191851456 27.37995979417415882
0.050476587558435426217 47.53806963348771575 0.050476587558435426217 31.20664072066405481
0.063546258777947173257 55.18397392818294378 0.063546258777947173257 35.47589098954586717
0.080000000000012505552 63.86470215473068635 0.080000000000012505552 40.23751269128051433
0.100714032943542974863 73.69887663753966933 0.100714032943542974863 45.54348801526373336
0.126791455396883634421 84.81666576997768914 0.126791455396883634421 51.43946738589164624
0.159620985197506115583 97.35694715533142585 0.159620985197506115583 57.95331145217532054
0.200950914520774404082 111.46166601390632422 0.200950914520774404082 65.08525049956267594
0.252982212813464002465 127.26838076358215801 0.252982212813464002465 72.80540556403414598
0.318485736442809752589 144.90337162209897315 0.318485736442809752589 81.05689213905870361
0.400949786901833249431 164.47547973523421661 0.400949786901833249431 89.77547927760957691
0.504765875584169521062 186.07806651735415926 0.504765875584169521062 98.90110681209532117
0.635462587779443310865 209.78790441178119863 0.635462587779443310865 108.39234412994055390
0.800000000000011368684 235.67341854003984736 0.800000000000011368684 118.24573141591534409
1.007140329435344483500 263.80195516432996783 1.007140329435344483500 128.51983468339614092
1.267914553968907398485 294.25825700892704617 1.267914553968907398485 139.24152342835347440
1.596209851975117999245 327.10815937259076236 1.596209851975117999245 150.59481276521239579
2.009509145207687197399 362.50124061587848701 2.009509145207687197399 162.67960594279756492
2.529822128134725289783 400.52404070366890210 2.529822128134725289783 175.70664430522720068
3.184857364427983839050 441.38674948827105027 3.184857364427983839050 189.96258759153647588
4.009497869018204596614 485.25953025663307017 4.009497869018204596614 205.55418199847645155
5.009497869018190385759 530.73732201516304485 5.009497869018190385759 222.01324859026473746
6.009497869018190385759 570.24250727941068817 6.009497869018190385759 236.47382094329017832
7.009497869018204596614 605.32900838263719834 7.009497869018204596614 249.37074282778263523
8.009497869018190385759 636.97077322209122485 8.009497869018190385759 260.94568379444604034
9.009497869018204596614 665.82519537225527984 9.009497869018204596614 271.41186487038493169
10.009497869018190385759 692.36201234759857925 10.009497869018190385759 280.90665315756012888
11.009497869018190385759 716.93174100579335573 11.009497869018190385759 289.47887845766098280
12.009497869018204596614 739.80518197393485025 12.009497869018204596614 297.31741102810514121
13.009497869018190385759 761.19622190934501305 13.009497869018190385759 304.50326528036947593
14.009497869018204596614 781.27986484643020049 14.009497869018204596614 311.09593719971257997
15.009497869018190385759 800.19729256708558296 15.009497869018190385759 317.16604158458852680
16.009497869018190385759 818.06564674789376568 16.009497869018190385759 322.77499735125934421
17.009497869018204596614 834.98745772902555018 17.009497869018204596614 327.98002074765668112
18.009497869018190385759 851.05147855060977236 18.009497869018190385759 332.84019168805633626
19.009497869018204596614 866.33314907050225884 19.009497869018204596614 337.37068002646759624
20.009497869018190385759 880.90054545916700590 20.009497869018190385759 341.59400604295939274
21.009497869018190385759 894.80944188510238746 21.009497869018190385759 345.53106130097654614
22.009497869018204596614 908.10756495697773971 22.009497869018204596614 349.21614176607795343
23.009497869018190385759 920.83854787330210456 23.009497869018190385759 352.66188932114124555
24.009497869018204596614 933.04272444822197485 24.009497869018204596614 355.90490562302471744
25.009497869018204596614 944.75791143679111883 25.009497869018204596614 358.96224132237773574
26.009497869018190385759 956.01739593099682679 26.009497869018190385759 361.85182172466932116
27.009497869018204596614 966.85154163775314373 27.009497869018204596614 364.59321781032076615
28.009497869018190385759 977.28671970490142940 28.009497869018190385759 367.19291275887462689
29.009497869018190385759 987.34658394381187918 29.009497869018190385759 369.64001271851799402
30.009497869018190385759 997.05308488059176852 30.009497869018190385759 371.98381887302548421
31.009497869018218807469 1006.42633006139965346 31.009497869018218807469 374.20753005336058550
32.009497869018190385759 1015.48484044003896543 32.009497869018190385759 376.32016222437152919
33.009497869018190385759 1024.24575691562108659 33.009497869018190385759 378.31859233428252764
34.009497869018218807469 1032.72556058354916786 34.009497869018218807469 380.24435401088732078
35.009497869018190385759 1040.93893458142247255 35.009497869018190385759 382.07981649893901022
36.009497869018190385759 1048.89945219622336481 36.009497869018190385759 383.84889527700528333
37.009497869018190385759 1056.61968693586049994 37.009497869018190385759 385.54999666891774268
38.009497869018218807469 1064.11161348723362607 38.009497869018218807469 387.19065588816846457
39.009497869018190385759 1071.38618753245941662 39.009497869018190385759 388.78232484964701143
40.009497869018190385759 1078.45366842395446838 40.009497869018190385759 390.32002542434770476
41.009497869018218807469 1085.32390845915938371 41.009497869018218807469 391.80245778102010945
42.009497869018190385759 1092.00592803641666251 42.009497869018190385759 393.22426080215410593
43.009497869018190385759 1098.50820504206762962 43.009497869018190385759 394.61504208281445472
44.009497869018218807469 1104.83893882921233853 44.009497869018218807469 395.92735401137809959
46.009497869018190385759 1117.01635103421540407 46.009497869018190385759 398.44754660807393520
48.009497869018218807469 1128.59066651632997491 48.009497869018218807469 400.78503739964122587
50.009497869018190385759 1139.60378430283572015 50.009497869018190385759 402.86690952100667573
52.009497869018190385759 1150.09734902488730768 52.009497869018190385759 404.75572982759075558
54.009497869018218807469 1160.11090044445836611 54.009497869018218807469 406.47830837298027973
56.009497869018190385759 1169.67575903379520241 56.009497869018190385759 408.05276916012400079
58.009497869018218807469 1178.81922333263878500 58.009497869018218807469 409.54150532991224054
60.009497869018190385759 1187.56822762150181916 60.009497869018190385759 411.04560026495931879
62.009497869018190385759 1195.94545866628186559 62.009497869018190385759 412.51465456943702748
64.009497869018218807469 1203.97458798753200426 64.009497869018218807469 413.94840535089684863
66.009497869018190385759 1211.68723601715191762 66.009497869018190385759 415.49083995482379805
68.009497869018190385759 1219.11072213627448946 68.009497869018190385759 417.06500500436169432
70.009497869018190385759 1226.26154661097939425 70.009497869018190385759 418.41939675068857696
72.009497869018190385759 1233.15685249466218920 72.009497869018190385759 419.53116877209117774
74.009497869018218807469 1239.81251714114432616 74.009497869018218807469 420.58211954786440856
76.009497869018190385759 1246.24130450551751892 76.009497869018190385759 421.57523426595884075
78.009497869018190385759 1252.45956263369498629 78.009497869018190385759 422.69604648487796794
80.009497869018218807469 1258.47743420016649907 80.009497869018218807469 423.52743794668538158
82.009497869018190385759 1264.29485573385613861 82.009497869018190385759 424.47275315455743794
84.009497869018218807469 1269.91465759256243473 84.009497869018218807469 425.29665758994764246
86.009497869018190385759 1275.34148092612463188 86.009497869018190385759 425.76214431572390140
88.009497869018190385759 1280.58839965729998767 88.009497869018190385759 426.32497717909575385
91.009497869018218807469 1288.13358495587294783 91.009497869018218807469 426.98758521490373141
94.009497869018218807469 1295.31427236669605918 94.009497869018218807469 427.94522680512858415
97.009497869018218807469 1302.17963130421048845 97.009497869018218807469 429.43589367897817510
99.504748934509137825444 1307.68526697131233050 99.504748934509137825444 429.74373945504862604
nan nan nan nan

