Time Pressure difference Time.1 Pressure.1 difference.1
(hr) (psi) (hr) (psi)
0.000200000000020850166 0.14886617044552169 0.000200000000020850166 0.11987406594128766
0.000399999999999067768 0.28559506634377985 0.000399999999999067768 0.27464327256965526
0.000600000000019917934 0.41530687914621539 0.000600000000019917934 0.38584779410253217
0.000799999999998135536 0.53976623016045611 0.000799999999998135536 0.49246801879390495
0.001007140329434719206 0.66418780968691116 0.001007140329434719206 0.59858291285795628
0.001267914553977789183 0.81542098530056695 0.001267914553977789183 0.72623729470125076
0.001596209851982166583 0.99862807169273538 0.001596209851982166583 0.87806773018067685
0.002009509145224797066 1.21977946685893701 0.002009509145224797066 1.05775221825341292
0.002529822128153114136 1.48573088634906059 0.002529822128153114136 1.26929793421473125
0.003184857364431081805 1.80429754109393303 0.003184857364431081805 1.51702533860683442
0.004009497869034817086 2.18432397339032436 0.004009497869034817086 1.80554866772601352
0.005047658755856332391 2.63574913599670158 0.005047658755856332391 2.13975751063274355
0.006354625877790454069 3.16966758219481948 0.006354625877790454069 2.52480585134487923
0.008000000000009777068 3.79838926983238867 0.008000000000009777068 2.96611620005477405
0.010071403294361402914 4.53550233103065992 0.010071403294361402914 3.46940683500064306
0.012679145539692626699 5.39594496713522176 0.012679145539692626699 4.04074889919913893
0.015962098519750611558 6.39609387274805385 0.015962098519750611558 4.68665564373310417
0.020095091452091651263 7.55387632864161063 0.020095091452091651263 5.41419849757060412
0.025298221281360611101 8.88891081211884604 0.025298221281360611101 6.23114206103380042
0.031848573644296607199 10.42267947736300293 0.031848573644296607199 7.14610995067763533
0.040094978690191851456 12.17874263672331736 0.040094978690191851456 8.16883358177010166
0.050476587558435426217 14.18302227445885144 0.050476587558435426217 9.31052699162241026
0.063546258777947173257 16.46418412549985533 0.063546258777947173257 10.58426132971458422
0.080000000000012505552 19.05408654991215300 0.080000000000012505552 12.00489509080183126
0.100714032943542974863 21.98812061599759105 0.100714032943542974863 13.58793720395424565
0.126791455396883634421 25.30512217125271235 0.126791455396883634421 15.34700751093318871
0.159620985197506115583 29.04652546313486638 0.159620985197506115583 17.29041825934466203
0.200950914520774404082 33.25467996516845659 0.200950914520774404082 19.41823815504193718
0.252982212813464002465 37.97062634475690146 0.252982212813464002465 21.72155278447195670
0.318485736442809752589 43.23204040899204159 0.318485736442809752589 24.18339060820491682
0.400949786901833249431 49.07139500346568184 0.400949786901833249431 26.78458827023134603
0.504765875584169521062 55.51654458313864637 0.504765875584169521062 29.50722677002544003
0.635462587779443310865 62.59039426978178255 0.635462587779443310865 32.33894525016217614
0.800000000000011368684 70.31335875482449183 0.800000000000011368684 35.27871147191477519
1.007140329435344483500 78.70553085112693736 1.007140329435344483500 38.34399865366691529
1.267914553968907398485 87.79219362035453855 1.267914553968907398485 41.54282333169766162
1.596209851975117999245 97.59298907817925794 1.596209851975117999245 44.93008656713233506
2.009509145207687197399 108.15254405181381969 2.009509145207687197399 48.53559457663675403
2.529822128134725289783 119.49667781113959109 2.529822128134725289783 52.42222221400331961
3.184857364427983839050 131.68810067191296298 3.184857364427983839050 56.67549464874927168
4.009497869018204596614 144.77758099110943135 4.009497869018204596614 61.32725969669686350
5.009497869018190385759 158.34591766269483060 5.009497869018190385759 66.23783578630086311
6.009497869018190385759 170.13232226177319717 6.009497869018190385759 70.55215947183620528
7.009497869018204596614 180.60040879781831791 7.009497869018204596614 74.39996675071775201
8.009497869018190385759 190.04075542907969520 8.009497869018190385759 77.85335993267581500
9.009497869018204596614 198.64949607058289871 9.009497869018204596614 80.97595368696640605
10.009497869018190385759 206.56677729710963831 10.009497869018190385759 83.80873160173084102
11.009497869018190385759 213.89717610217823562 11.009497869018190385759 86.36626208856753806
12.009497869018204596614 220.72148607618143501 12.009497869018204596614 88.70489474451713363
13.009497869018190385759 227.10352047969962541 13.009497869018190385759 90.84880028604726476
14.009497869018204596614 233.09549191070405527 14.009497869018204596614 92.81572938941950213
15.009497869018190385759 238.73952207023992855 15.009497869018190385759 94.62675003798068474
16.009497869018190385759 244.07056027410925481 16.009497869018190385759 96.30018661604289321
17.009497869018204596614 249.11919653384723006 17.009497869018204596614 97.85310963835632947
18.009497869018190385759 253.91191039216090530 18.009497869018190385759 99.30314564606177896
19.009497869018204596614 258.47120939284849328 19.009497869018204596614 100.65482057761177259
20.009497869018190385759 262.81740411750263320 20.009497869018190385759 101.91485337713481840
21.009497869018190385759 266.96713483528537836 21.009497869018190385759 103.08947705981158549
22.009497869018204596614 270.93464081924827269 22.009497869018204596614 104.18892385524664235
23.009497869018190385759 274.73294007014555973 23.009497869018190385759 105.21696547962085333
24.009497869018204596614 278.37406621468693402 24.009497869018204596614 106.18452206743914701
25.009497869018204596614 281.86930191292572090 25.009497869018204596614 107.09668069438257021
26.009497869018190385759 285.22857839620445475 26.009497869018190385759 107.95878939011873854
27.009497869018204596614 288.46095470151851714 27.009497869018204596614 108.77668717279435384
28.009497869018190385759 291.57429868257179351 28.009497869018190385759 109.55230830437189127
29.009497869018190385759 294.57566747349113712 29.009497869018190385759 110.28240259518003086
30.009497869018190385759 297.47161003184066885 30.009497869018190385759 110.98167909405107423
31.009497869018218807469 300.26812546059750275 31.009497869018218807469 111.64512515834896078
32.009497869018190385759 302.97073950160080358 32.009497869018190385759 112.27543070862058983
33.009497869018190385759 305.58456615623481412 33.009497869018190385759 112.87166397979343913
34.009497869018218807469 308.11452257290301304 34.009497869018218807469 113.44621656396788012
35.009497869018190385759 310.56498947781562947 35.009497869018190385759 113.99382831077790001
36.009497869018190385759 312.94001647233642416 36.009497869018190385759 114.52163442297459994
37.009497869018190385759 315.24335487291790514 37.009497869018190385759 115.02915942595898002
38.009497869018218807469 317.47857733727062168 38.009497869018218807469 115.51865145688982750
39.009497869018190385759 319.64895250218808087 39.009497869018190385759 115.99352720401762440
40.009497869018190385759 321.75754125392336391 40.009497869018190385759 116.45230143844855775
41.009497869018218807469 323.80728303354231912 41.009497869018218807469 116.89458635445727452
42.009497869018190385759 325.80086908432821247 42.009497869018190385759 117.31878245821388873
43.009497869018190385759 327.74082879066185114 43.009497869018190385759 117.73372320012003911
44.009497869018218807469 329.62960843630173713 44.009497869018218807469 118.12525254612329206
46.009497869018190385759 333.26274940900879074 46.009497869018190385759 118.87715408546732476
48.009497869018218807469 336.71595597713593406 48.009497869018218807469 119.57454639059761803
50.009497869018190385759 340.00172875002147066 50.009497869018190385759 120.19567465469313561
52.009497869018190385759 343.13249243771002739 52.009497869018190385759 120.75920575066051299
54.009497869018218807469 346.12004376079039503 54.009497869018218807469 121.27313848009455910
56.009497869018190385759 348.97372720798387036 56.009497869018190385759 121.74288015421988973
58.009497869018218807469 351.70168732113211263 58.009497869018218807469 122.18704581806976250
60.009497869018190385759 354.31195996503578272 60.009497869018190385759 122.63579378219925786
62.009497869018190385759 356.81131375500763170 62.009497869018190385759 123.07408734530429228
64.009497869018218807469 359.20681110872385489 64.009497869018218807469 123.50184807320611924
66.009497869018190385759 361.50788600811574725 66.009497869018190385759 123.96203470916033496
68.009497869018190385759 363.72268921307147593 68.009497869018190385759 124.43168814972709413
70.009497869018190385759 365.85614359158159914 70.009497869018190385759 124.83577204405850125
72.009497869018190385759 367.91336378776281890 72.009497869018190385759 125.16747014339750876
74.009497869018218807469 369.89908682321998867 74.009497869018218807469 125.48102217395056357
76.009497869018190385759 371.81712083447973782 76.009497869018190385759 125.77731876900421071
78.009497869018190385759 373.67234327452069920 78.009497869018190385759 126.11171401872671538
80.009497869018218807469 375.46778021864042785 80.009497869018218807469 126.35976034691212533
82.009497869018190385759 377.20341273019096207 82.009497869018190385759 126.64179591867608110
84.009497869018218807469 378.88008524875550620 84.009497869018218807469 126.88760848635619993
86.009497869018190385759 380.49918246521554011 86.009497869018190385759 127.02648683482618708
88.009497869018190385759 382.06460499520648000 88.009497869018190385759 127.19440848371822028
91.009497869018218807469 384.31571725070273260 91.009497869018218807469 127.39209813757996415
94.009497869018218807469 386.45808126082835088 94.009497869018218807469 127.67781129568304266
97.009497869018218807469 388.50636676092642574 97.009497869018218807469 128.12255298668165437
99.504748934509137825444 390.14897770208574457 99.504748934509137825444 128.21439902781810360
nan nan nan nan

