Time Pressure difference Time.1 Pressure.1 difference.1
(hr) (psi) (hr) (psi)
0.000200000000020850166 0.24312314268740978 0.000200000000020850166 0.19577422829607283
0.000399999999999067768 0.46642410332526862 0.000399999999999067768 0.44853800796551740
0.000600000000019917934 0.67826500363075382 0.000600000000019917934 0.63015343257951240
0.000799999999998135536 0.88152776282486556 0.000799999999998135536 0.80428194024130206
0.001007140329434719206 1.08472883491580974 0.001007140329434719206 0.97758515919012967
0.001267914553977789183 1.33171768956122749 0.001267914553977789183 1.18606593355731915
0.001596209851982166583 1.63092524271426620 0.001596209851982166583 1.43403021260663310
0.002009509145224797066 1.99210214436761057 0.002009509145224797066 1.72748477855456883
0.002529822128153114136 2.42644491489168201 0.002529822128153114136 2.07297401316476204
0.003184857364431081805 2.94671708972627222 0.003184857364431081805 2.47755394496091075
0.004009497869034817086 3.56736327312490165 0.004009497869034817086 2.94876038698972076
0.005047658755856332391 4.30461542311019141 0.005047658755856332391 3.49457884902332561
0.006354625877790454069 5.17659278499153963 0.006354625877790454069 4.12342664164364692
0.008000000000009777068 6.20339956128405223 0.008000000000009777068 4.84415962320503279
0.010071403294361402914 7.40722742505007226 0.010071403294361402914 5.66611669032768450
0.012679145539692626699 8.81247293627611761 0.012679145539692626699 6.59921302633025153
0.015962098519750611558 10.44588195298048916 0.015962098519750611558 7.65408585031788480
0.020095091452091651263 12.33673269753026958 0.020095091452091651263 8.84228397844445446
0.025298221281360611101 14.51706539667650553 0.025298221281360611101 10.17648829063309179
0.031848573644296607199 17.02196397056771815 0.031848573644296607199 11.67078258276498204
0.040094978690191851456 19.88990631625667760 0.040094978690191851456 13.34105986972503821
0.050476587558435426217 23.16322733265893064 0.050476587558435426217 15.20563453405669918
0.063546258777947173257 26.88874291852991760 0.063546258777947173257 17.28585393043839247
0.080000000000012505552 31.11848305890176292 0.080000000000012505552 19.60598444477686186
0.100714032943542974863 35.91024723718199141 0.100714032943542974863 22.19135473007603210
0.126791455396883634421 41.32746083244789759 0.126791455396883634421 25.06420824649892864
0.159620985197506115583 47.43779284180316580 0.159620985197506115583 28.23812027279907255
0.200950914520774404082 54.31040697829019592 0.200950914520774404082 31.71320301702829525
0.252982212813464002465 62.01232945751754499 0.252982212813464002465 35.47489776358484903
0.318485736442809752589 70.60509112021313172 0.318485736442809752589 39.49548717420401545
0.400949786901833249431 80.14172550817258411 0.400949786901833249431 43.74367431067933154
0.504765875584169521062 90.66772356542743694 0.504765875584169521062 48.19019447365963060
0.635462587779443310865 102.22049315416623472 0.635462587779443310865 52.81486033317943196
0.800000000000011368684 114.83337485084400953 0.800000000000011368684 57.61598607222262558
1.007140329435344483500 128.53918355083544611 1.007140329435344483500 62.62210835397862496
1.267914553968907398485 143.37921068650865664 1.267914553968907398485 67.84631951156653429
1.596209851975117999245 159.38553492667466571 1.596209851975117999245 73.37828208200005520
2.009509145207687197399 176.63103928060047565 2.009509145207687197399 79.26667455983388777
2.529822128134725289783 195.15789089758979458 2.529822128134725289783 85.61418200779436916
3.184857364427983839050 215.06850612247089316 3.184857364427983839050 92.56048121026890385
4.009497869018204596614 236.44579810105810225 4.009497869018204596614 100.15758493179137645
5.009497869018190385759 258.60514191143630569 5.009497869018190385759 108.17737000275268144
6.009497869018190385759 277.85429515113713705 6.009497869018190385759 115.22337602184303762
7.009497869018204596614 294.95041637834646053 7.009497869018204596614 121.50748338685060901
8.009497869018190385759 310.36806791181356857 8.009497869018190385759 127.14744712622933775
9.009497869018204596614 324.42756895949469254 9.009497869018204596614 132.24716054404061083
10.009497869018190385759 337.35780211839511367 10.009497869018190385759 136.87355663599257127
11.009497869018190385759 349.32955896084382630 11.009497869018190385759 141.05042803409270391
12.009497869018204596614 360.47478881788424587 12.009497869018204596614 144.86980297471393442
13.009497869018190385759 370.89770932614260346 13.009497869018190385759 148.37115624605706898
14.009497869018204596614 380.68359231647644947 14.009497869018204596614 151.58347764603686869
15.009497869018190385759 389.90122951169837506 15.009497869018190385759 154.54117468514434108
16.009497869018190385759 398.60769894012815939 16.009497869018190385759 157.27417412167807242
17.009497869018204596614 406.85295916331824628 17.009497869018204596614 159.81035493701412520
18.009497869018190385759 414.68025566558941364 18.009497869018190385759 162.17850419582956079
19.009497869018204596614 422.12634699837065000 19.009497869018204596614 164.38601350614987950
20.009497869018190385759 429.22440370948919508 20.009497869018190385759 166.44385601793374008
21.009497869018190385759 436.00160211792842802 21.009497869018190385759 168.36221127858675572
22.009497869018204596614 442.48119731786778175 22.009497869018204596614 170.15779021585507280
23.009497869018190385759 448.68444986330314350 23.009497869018190385759 171.83675266772249302
24.009497869018204596614 454.63101266217717011 24.009497869018204596614 173.41693302471219340
25.009497869018204596614 460.33931216935104658 25.009497869018204596614 174.90663932499666089
26.009497869018190385759 465.82556773249473281 26.009497869018190385759 176.31460578788235694
27.009497869018204596614 471.10457426127402414 27.009497869018204596614 177.65036849828223353
28.009497869018190385759 476.18918126550670422 28.009497869018190385759 178.91708642673802387
29.009497869018190385759 481.09091421550050427 29.009497869018190385759 180.10945147454023640
30.009497869018190385759 485.82046864496595617 30.009497869018190385759 181.25148595762109949
31.009497869018218807469 490.38764208389039823 31.009497869018218807469 182.33500339931362078
32.009497869018190385759 494.80145898502649970 32.009497869018190385759 183.36439688593816300
33.009497869018190385759 499.07027136068489881 33.009497869018190385759 184.33814469061741192
34.009497869018218807469 503.20210972961547213 34.009497869018218807469 185.27648433813848783
35.009497869018190385759 507.20412854417128301 35.009497869018190385759 186.17082513066742422
36.009497869018190385759 511.08294147492131287 36.009497869018190385759 187.03282003752133278
37.009497869018190385759 514.84467504371014002 37.009497869018190385759 187.86169252983250999
38.009497869018218807469 518.49516399302990521 38.009497869018218807469 188.66111418838792702
39.009497869018190385759 522.03974654879959871 39.009497869018190385759 189.43666503168708459
40.009497869018190385759 525.48342164585483260 40.009497869018190385759 190.18591943465216332
41.009497869018218807469 528.83098987890070930 41.009497869018218807469 190.90824404622418342
42.009497869018190385759 532.08684649450583493 42.009497869018190385759 191.60102662773627458
43.009497869018190385759 535.25512239680949733 43.009497869018190385759 192.27869366853778388
44.009497869018218807469 538.33981277285465694 44.009497869018218807469 192.91812601753804302
46.009497869018190385759 544.27333446194916178 46.009497869018190385759 194.14610591847679189
48.009497869018218807469 549.91299342999593591 48.009497869018218807469 195.28506320072474978
50.009497869018190385759 555.27920524500984811 50.009497869018190385759 196.29946865716217985
52.009497869018190385759 560.39226151887328342 52.009497869018190385759 197.21980838675713699
54.009497869018218807469 565.27142825254713898 54.009497869018218807469 198.05914575894843210
56.009497869018190385759 569.93196654570226656 56.009497869018190385759 198.82631180965560702
58.009497869018218807469 574.38717778576847195 58.009497869018218807469 199.55170799433503248
60.009497869018190385759 578.65018587254587601 60.009497869018190385759 200.28458783525002218
62.009497869018190385759 582.73204507727371038 62.009497869018190385759 201.00039390564771224
64.009497869018218807469 586.64428949917225964 64.009497869018218807469 201.69899810950744268
66.009497869018190385759 590.40232639516398194 66.009497869018190385759 202.45055919837744796
68.009497869018190385759 594.01946730777990524 68.009497869018190385759 203.21758114905179582
70.009497869018190385759 597.50375209680407806 70.009497869018190385759 203.87751715738198754
72.009497869018190385759 600.86353382423578751 72.009497869018190385759 204.41923515881504159
74.009497869018218807469 604.10654883189192788 74.009497869018218807469 204.93131762077354097
76.009497869018190385759 607.23901643822057395 76.009497869018190385759 205.41521909510737487
78.009497869018190385759 610.26890233275992159 78.009497869018190385759 205.96134199038280599
80.009497869018218807469 613.20114859828208864 80.009497869018218807469 206.36644277762030697
82.009497869018190385759 616.03572430810083915 82.009497869018190385759 206.82705363602875082
84.009497869018218807469 618.77400857208806428 84.009497869018218807469 207.22850632193851084
86.009497869018190385759 621.41826282007571081 86.009497869018190385759 207.45531769506786191
88.009497869018190385759 623.97485740423167044 88.009497869018190385759 207.72956159401215359
91.009497869018218807469 627.65129701747935087 91.009497869018218807469 208.05242158147481746
94.009497869018218807469 631.15013271240809445 94.009497869018218807469 208.51903854822609219
97.009497869018218807469 634.49532259950296975 97.009497869018218807469 209.24537548076148141
99.504748934509137825444 637.17797865918521438 99.504748934509137825444 209.39537529668788807
nan nan nan nan

