Time Pressure difference Time.1 Pressure.1 difference.1
(hr) (psi) (hr) (psi)
0.000200000000020850166 0.16382759461090074 0.000200000000020850166 0.13192171075950754
0.000399999999999067768 0.31429808808687332 0.000399999999999067768 0.30224561152137941
0.000600000000019917934 0.45704626398503101 0.000600000000019917934 0.42462646687665606
0.000799999999998135536 0.59401409248814019 0.000799999999998135536 0.54196229203952351
0.001007140329434719206 0.73094035337403795 0.001007140329434719206 0.65874199957734880
0.001267914553977789183 0.89737284311971943 0.001267914553977789183 0.79922596753554742
0.001596209851982166583 1.09899270201361321 0.001596209851982166583 0.96631574326416214
0.002009509145224797066 1.34237036805079013 0.002009509145224797066 1.16405897385677104
0.002529822128153114136 1.63505057341931792 0.002529822128153114136 1.39686556579410115
0.003184857364431081805 1.98563397738478042 0.003184857364431081805 1.66949019675827515
0.004009497869034817086 2.40385402096724166 0.004009497869034817086 1.98701084538691974
0.005047658755856332391 2.90064854664963656 0.005047658755856332391 2.35480851672648672
0.006354625877790454069 3.48822713819429930 0.006354625877790454069 2.77855518313833416
0.008000000000009777068 4.18013693514217710 0.008000000000009777068 3.26421833071354550
0.010071403294361402914 4.99133171103374096 0.010071403294361402914 3.81809093902080887
0.012679145539692626699 5.93825099398298306 0.012679145539692626699 4.44685431620407723
0.015962098519750611558 7.03891737754685298 0.015962098519750611558 5.15767631144497507
0.020095091452091651263 8.31305987925885859 0.020095091452091651263 5.95833905009026310
0.025298221281360611101 9.78226868268355432 0.025298221281360611101 6.85738749430352890
0.031848573644296607199 11.47018495247486136 0.031848573644296607199 7.86431195577086495
0.040094978690191851456 13.40273687156988380 0.040094978690191851456 8.98982188144548822
0.050476587558435426217 15.60845164877632563 0.050476587558435426217 10.24625834756436049
0.063546258777947173257 18.11887599740939336 0.063546258777947173257 11.64800618697233148
0.080000000000012505552 20.96907012276764704 0.080000000000012505552 13.21141721048040729
0.100714032943542974863 24.19798198443955783 0.100714032943542974863 14.95355903349738824
0.126791455396883634421 27.84835053017258488 0.126791455396883634421 16.88942032610235344
0.159620985197506115583 31.96577425339967604 0.159620985197506115583 19.02814873767075809
0.200950914520774404082 36.59685885614016598 0.200950914520774404082 21.36981987916675862
0.252982212813464002465 41.78676969598874535 0.252982212813464002465 23.90462341607717889
0.318485736442809752589 47.57696909331285440 0.318485736442809752589 26.61388212661747232
0.400949786901833249431 54.00319349627630316 0.400949786901833249431 29.47650668935007445
0.504765875584169521062 61.09609680254957453 0.504765875584169521062 32.47277719917372707
0.635462587779443310865 68.88088615619201960 0.635462587779443310865 35.58909050143476094
0.800000000000011368684 77.38002797641489394 0.800000000000011368684 38.82431061482078860
1.007140329435344483500 86.61563445425527163 1.007140329435344483500 42.19766686006559553
1.267914553968907398485 96.61552966260121877 1.267914553968907398485 45.71798145548637393
1.596209851975117999245 107.40132968905153632 1.596209851975117999245 49.44567315679387320
2.009509145207687197399 119.02214646908154805 2.009509145207687197399 53.41354378031883954
2.529822128134725289783 131.50639417406819121 2.529822128134725289783 57.69078726063681728
3.184857364427983839050 144.92308566406501313 3.184857364427983839050 62.37152426168889718
4.009497869018204596614 159.32809164348222453 4.009497869018204596614 67.49080338480710850
5.009497869018190385759 174.26008024186015177 5.009497869018190385759 72.89490470954719115
6.009497869018190385759 187.23104811722780028 6.009497869018190385759 77.64282876548807621
7.009497869018204596614 198.75120365187038374 7.009497869018204596614 81.87735034375471344
8.009497869018190385759 209.14032883903746551 8.009497869018190385759 85.67781821736686254
9.009497869018204596614 218.61426954501331466 9.009497869018204596614 89.11424048967660383
10.009497869018190385759 227.32725742747243203 10.009497869018190385759 92.23171970240730388
11.009497869018190385759 235.39437973053782116 11.009497869018190385759 95.04628842912708819
12.009497869018204596614 242.90455000343587244 12.009497869018204596614 97.61995954296106959
13.009497869018190385759 249.92799489976994209 13.009497869018190385759 99.97933297811232478
14.009497869018204596614 256.52217451479492638 14.009497869018204596614 102.14394339840639248
15.009497869018190385759 262.73344388634444613 15.009497869018190385759 104.13697617245109939
16.009497869018190385759 268.60026482427099381 16.009497869018190385759 105.97859733122308512
17.009497869018204596614 274.15630171312830043 17.009497869018204596614 107.68759301909565806
18.009497869018190385759 279.43069535619719090 18.009497869018190385759 109.28336128888206247
19.009497869018204596614 284.44821536197900969 19.009497869018204596614 110.77088294722099704
20.009497869018190385759 289.23121357654810026 20.009497869018190385759 112.15755220900767597
21.009497869018190385759 293.79800265792715663 21.009497869018190385759 113.45022852310923156
22.009497869018204596614 298.16425296188629090 22.009497869018204596614 114.66017248391464989
23.009497869018190385759 302.34429083096426893 23.009497869018190385759 115.79153487455762672
24.009497869018204596614 306.35135930159015061 24.009497869018204596614 116.85633333049835869
25.009497869018204596614 310.19787496950112882 25.009497869018204596614 117.86016619130545280
26.009497869018190385759 313.89476717974264375 26.009497869018190385759 118.80891897706533200
27.009497869018204596614 317.45200542528925780 27.009497869018204596614 119.70901754191942246
28.009497869018190385759 320.87824829891064837 28.009497869018190385759 120.56259054601731862
29.009497869018190385759 324.18126219444496883 29.009497869018190385759 121.36606114745941909
30.009497869018190385759 327.36825425614631513 30.009497869018190385759 122.13561669144314692
31.009497869018218807469 330.44582651191376499 31.009497869018218807469 122.86574075215285973
32.009497869018190385759 333.42006005452549289 32.009497869018190385759 123.55939359390909260
33.009497869018190385759 336.29658285535384721 33.009497869018190385759 124.21554980690837056
34.009497869018218807469 339.08080624857160501 34.009497869018218807469 124.84784636939177460
35.009497869018190385759 341.77755123438009832 35.009497869018190385759 125.45049447266512743
36.009497869018190385759 344.39127440925472001 36.009497869018190385759 126.03134642528360132
37.009497869018190385759 346.92610410637701079 37.009497869018190385759 126.58987896625635017
38.009497869018218807469 349.38597204453401446 38.009497869018218807469 127.12856617617524080
39.009497869018190385759 351.77447536672957540 39.009497869018190385759 127.65116812904452104
40.009497869018190385759 354.09498258597602671 40.009497869018190385759 128.15605032673482810
41.009497869018218807469 356.35072856455155943 41.009497869018218807469 128.64278598807106846
42.009497869018190385759 358.54467502245159949 42.009497869018190385759 129.10961486607456550
43.009497869018190385759 360.67960555354244434 43.009497869018190385759 129.56625819510699671
44.009497869018218807469 362.75821229924662248 44.009497869018218807469 129.99713722412565176
46.009497869018190385759 366.75649306820571383 46.009497869018190385759 130.82460675737360134
48.009497869018218807469 370.55675557282802401 48.009497869018218807469 131.59208874141145884
50.009497869018190385759 374.17275676509893856 50.009497869018190385759 132.27564195667235936
52.009497869018190385759 377.61817006964071197 52.009497869018190385759 132.89580934369172383
54.009497869018218807469 380.90597780710095321 54.009497869018218807469 133.46139360372217197
56.009497869018190385759 384.04646361079630879 56.009497869018190385759 133.97834549635257417
58.009497869018218807469 387.04859056948714624 58.009497869018218807469 134.46715092541347758
60.009497869018190385759 389.92120217257706827 60.009497869018190385759 134.96099918744542379
62.009497869018190385759 392.67174729822448853 62.009497869018190385759 135.44334235488261697
64.009497869018218807469 395.30799815482680515 64.009497869018218807469 135.91409411071424529
66.009497869018190385759 397.84033686320276502 66.009497869018190385759 136.42053065982972271
68.009497869018190385759 400.27773335508862829 68.009497869018190385759 136.93738545120720573
70.009497869018190385759 402.62560525907719011 70.009497869018190385759 137.38208079220507329
72.009497869018190385759 404.88958125386966458 72.009497869018190385759 137.74711538393998467
74.009497869018218807469 407.07487444364409157 74.009497869018218807469 138.09218018138275852
76.009497869018190385759 409.18567569221636404 76.009497869018190385759 138.41825532870311122
78.009497869018190385759 411.22735264884431672 78.009497869018190385759 138.78625814121178905
80.009497869018218807469 413.20323551699624431 80.009497869018218807469 139.05923374861183106
82.009497869018190385759 415.11330345684331178 82.009497869018190385759 139.36961460397014889
84.009497869018218807469 416.95848577626861697 84.009497869018218807469 139.64013195232163866
86.009497869018190385759 418.74030633106639243 86.009497869018190385759 139.79296792375342307
88.009497869018190385759 420.46305775854386866 88.009497869018190385759 139.97776612027283250
91.009497869018218807469 422.94041245177839983 91.009497869018218807469 140.19532408105533250
94.009497869018218807469 425.29808942774576508 94.009497869018218807469 140.50975212942000780
97.009497869018218807469 427.55223276704964519 97.009497869018218807469 140.99919147780545359
99.504748934509137825444 429.35993023495865373 99.504748934509137825444 141.10026827684507111
nan nan nan nan

