Time Pressure difference Time.1 Pressure.1 difference.1
(hr) (psi) (hr) (psi)
0.000200000000020850166 0.44734658254483400 0.000200000000020850166 0.36022458006477398
0.000399999999999067768 0.85822035011849429 0.000399999999999067768 0.82530993465655200
0.000600000000019917934 1.24800760668058697 0.000600000000019917934 1.15948231594630280
0.000799999999998135536 1.62201108359775259 0.000799999999998135536 1.47987877004399571
0.001007140329434719206 1.99590105624509029 0.001007140329434719206 1.79875669290983842
0.001267914553977789183 2.45036054879265874 0.001267914553977789183 2.18236131774546704
0.001596209851982166583 3.00090244659424998 0.001596209851982166583 2.63861559119620503
0.002009509145224797066 3.66546794563640388 0.002009509145224797066 3.17857199254040701
0.002529822128153114136 4.46465864340069540 0.002529822128153114136 3.81427218422316194
0.003184857364431081805 5.42195944509634131 0.003184857364431081805 4.55869925872807524
0.004009497869034817086 6.56394842254981903 0.004009497869034817086 5.42571911206108570
0.005047658755856332391 7.92049237852275123 0.005047658755856332391 6.43002508220291880
0.006354625877790454069 9.52493072438443278 0.006354625877790454069 7.58710502062431136
0.008000000000009777068 11.41425519276265632 0.008000000000009777068 8.91325370669725991
0.010071403294361402914 13.62929846209213203 0.010071403294361402914 10.42565471020293799
0.012679145539692626699 16.21495020274805654 0.012679145539692626699 12.14255196844766438
0.015962098519750611558 19.22042279348410432 0.015962098519750611558 14.08351796458490846
0.020095091452091651263 22.69958816345569375 0.020095091452091651263 16.26980252033779806
0.025298221281360611101 26.71140032988477131 0.025298221281360611101 18.72473845476488563
0.031848573644296607199 31.32041370584460438 0.031848573644296607199 21.47423995228756510
0.040094978690191851456 36.59742762191228138 0.040094978690191851456 24.54755016029407244
0.050476587558435426217 42.62033829209243407 0.050476587558435426217 27.97836754266432635
0.063546258777947173257 49.47528697009504839 0.063546258777947173257 31.80597123200664100
0.080000000000012505552 57.25800882837923211 0.080000000000012505552 36.07501137838942640
0.100714032943542974863 66.07485491641486419 0.100714032943542974863 40.83209270333990304
0.126791455396883634421 76.04252793170412872 0.126791455396883634421 46.11814317355802473
0.159620985197506115583 87.28553882891783644 0.159620985197506115583 51.95814130195029179
0.200950914520774404082 99.93114884005395027 0.200950914520774404082 58.35229355133206042
0.252982212813464002465 114.10268620183228450 0.252982212813464002465 65.27381188499613529
0.318485736442809752589 129.91336766119215440 0.318485736442809752589 72.67169640053538160
0.400949786901833249431 147.46077493503756273 0.400949786901833249431 80.48836073164997629
0.504765875584169521062 166.82861136038650329 0.504765875584169521062 88.66995783153373623
0.635462587779443310865 188.08570740366587870 0.635462587779443310865 97.17934301305015765
0.800000000000011368684 211.29340972555297640 0.800000000000011368684 106.01341437288962766
1.007140329435344483500 236.51209773353724586 1.007140329435344483500 115.22467937132067561
1.267914553968907398485 263.81774766317590775 1.267914553968907398485 124.83722790128241797
1.596209851975117999245 293.26938426508138491 1.596209851975117999245 135.01603903088007996
2.009509145207687197399 325.00111227630486610 2.009509145207687197399 145.85068119009437737
2.529822128134725289783 359.09051925156524021 2.529822128134725289783 157.53009489434163015
3.184857364427983839050 395.72605126534642750 3.184857364427983839050 170.31128542689478422
4.009497869018204596614 435.06026850594685129 4.009497869018204596614 184.28995627449614858
5.009497869018190385759 475.83346111704275927 5.009497869018190385759 199.04636080506494977
6.009497869018190385759 511.25190307809225487 6.009497869018190385759 212.01101188019120514
7.009497869018204596614 542.70876613615746464 7.009497869018204596614 223.57376943180511830
8.009497869018190385759 571.07724495773697981 8.009497869018190385759 233.95130271226202012
9.009497869018204596614 596.94672688547018424 9.009497869018204596614 243.33477540103476144
10.009497869018190385759 620.73835589784698641 10.009497869018190385759 251.84734421022633910
11.009497869018190385759 642.76638848795266767 11.009497869018190385759 259.53278758273057747
12.009497869018204596614 663.27361142490701695 12.009497869018204596614 266.56043747347359840
13.009497869018190385759 682.45178516010241765 13.009497869018190385759 273.00292749274507287
14.009497869018204596614 700.45780986231670795 14.009497869018204596614 278.91359886870787932
15.009497869018190385759 717.41826230152503285 15.009497869018190385759 284.35576142066554439
16.009497869018190385759 733.43816604983589968 16.009497869018190385759 289.38448038388770556
17.009497869018204596614 748.60944486050561864 17.009497869018204596614 294.05105308410594489
18.009497869018190385759 763.01167042468455293 18.009497869018190385759 298.40844772032636456
19.009497869018204596614 776.71247847700192324 19.009497869018204596614 302.47026485131573281
20.009497869018190385759 789.77290282546016442 20.009497869018190385759 306.25669507299812722
21.009497869018190385759 802.24294789698831210 21.009497869018190385759 309.78646875259966009
22.009497869018204596614 814.16540306487672751 22.009497869018204596614 313.09033399717333168
23.009497869018190385759 825.57938774847775676 23.009497869018190385759 316.17962490860946900
24.009497869018204596614 836.52106329840592025 24.009497869018204596614 319.08715676547041085
25.009497869018204596614 847.02433439160586204 25.009497869018204596614 321.82821635799388105
26.009497869018190385759 857.11904462779023106 26.009497869018190385759 324.41887464970352539
27.009497869018204596614 866.83241664074409982 27.009497869018204596614 326.87667803683928014
28.009497869018190385759 876.18809352853224937 28.009497869018190385759 329.20743902519797075
29.009497869018190385759 885.20728215652093240 29.009497869018190385759 331.40139071315405772
30.009497869018190385759 893.90966230673745940 30.009497869018190385759 333.50273416202287535
31.009497869018218807469 902.31326143435819631 31.009497869018218807469 335.49640625473705313
32.009497869018190385759 910.43468453244861394 32.009497869018190385759 337.39049027012617898
33.009497869018190385759 918.28929930366030021 33.009497869018190385759 339.18218623073602203
34.009497869018218807469 925.89188190249240051 34.009497869018218807469 340.90873118217484716
35.009497869018190385759 933.25559652127526533 35.009497869018190385759 342.55431824042807420
36.009497869018190385759 940.39261231385523843 36.009497869018190385759 344.14038886903927050
37.009497869018190385759 947.31420208042663944 37.009497869018190385759 345.66551425489177518
38.009497869018218807469 954.03110174717505743 38.009497869018218807469 347.13645010663378798
39.009497869018190385759 960.55313364979122071 39.009497869018190385759 348.56346365830421519
40.009497869018190385759 966.88949582837290109 40.009497869018190385759 349.94209175975998960
41.009497869018218807469 973.04902137717726873 41.009497869018218807469 351.27116904505248840
42.009497869018190385759 979.03979754989074991 42.009497869018190385759 352.54588899503471566
43.009497869018190385759 984.86942521012952056 43.009497869018190385759 353.79279635010954053
44.009497869018218807469 990.54525550205232776 44.009497869018218807469 354.96935187227001052
46.009497869018190385759 1001.46293540998635763 46.009497869018190385759 357.22883488999730162
48.009497869018218807469 1011.83990791119242658 48.009497869018218807469 359.32451628933358734
50.009497869018190385759 1021.71373765081818874 50.009497869018190385759 361.19102232917839501
52.009497869018190385759 1031.12176119472678693 52.009497869018190385759 362.88444743163307749
54.009497869018218807469 1040.09942798468659930 54.009497869018218807469 364.42882819646507642
56.009497869018190385759 1048.67481844409235237 56.009497869018190385759 365.84041372976633966
58.009497869018218807469 1056.87240712581433399 58.009497869018218807469 367.17514270957650524
60.009497869018190385759 1064.71634200548442095 60.009497869018190385759 368.52364161686006128
62.009497869018190385759 1072.22696294218371804 62.009497869018190385759 369.84072478639177461
64.009497869018218807469 1079.42549267847675765 64.009497869018218807469 371.12615652149378320
66.009497869018190385759 1086.34028056710167220 66.009497869018190385759 372.50902892501443375
68.009497869018190385759 1092.99581984631527121 68.009497869018190385759 373.92034931425530431
70.009497869018190385759 1099.40690385811967644 70.009497869018190385759 375.13463156958289346
72.009497869018190385759 1105.58890223659386720 72.009497869018190385759 376.13139269221966288
74.009497869018218807469 1111.55604985068112001 74.009497869018218807469 377.07362442222330401
76.009497869018190385759 1117.31979024632596520 76.009497869018190385759 377.96400313499754020
78.009497869018190385759 1122.89478029227802836 78.009497869018190385759 378.96886926230439485
80.009497869018218807469 1128.29011342083890668 80.009497869018218807469 379.71425471082136482
82.009497869018190385759 1133.50573272690553495 82.009497869018190385759 380.56177869029289695
84.009497869018218807469 1138.54417577264234751 84.009497869018218807469 381.30045163236684402
86.009497869018190385759 1143.40960358893926241 86.009497869018190385759 381.71778455892490456
88.009497869018190385759 1148.11373762378639185 88.009497869018190385759 382.22239333298239217
91.009497869018218807469 1154.87838651216202379 91.009497869018218807469 382.81645570991366867
94.009497869018218807469 1161.31624419083095745 94.009497869018218807469 383.67503092873596415
97.009497869018218807469 1167.47139358308550072 97.009497869018218807469 385.01149088460118719
99.504748934509137825444 1172.40748073290092179 99.504748934509137825444 385.28749054590565493
nan nan nan nan

