Time Pressure difference Time.1 Pressure.1 difference.1
(hr) (psi) (hr) (psi)
0.000200000000020850166 0.77649791418317338 0.000200000000020850166 0.62527276606561111
0.000399999999999067768 1.48968682846655032 0.000399999999999067768 1.43256139159448326
0.000600000000019917934 2.16627407313453091 0.000600000000019917934 2.01261311697702716
0.000799999999998135536 2.81546405480680129 0.000799999999998135536 2.56875278144760477
0.001007140329434719206 3.46445701736187850 0.001007140329434719206 3.12225660073647537
0.001267914553977789183 4.25330142081401252 0.001267914553977789183 3.78811212009999165
0.001596209851982166583 5.20892431365356412 0.001596209851982166583 4.58007187903287782
0.002009509145224797066 6.36246777185716894 0.002009509145224797066 5.51732061581428379
0.002529822128153114136 7.74969175894635676 0.002529822128153114136 6.62076007896930108
0.003184857364431081805 9.41136104349498659 0.003184857364431081805 7.91292613805977041
0.004009497869034817086 11.39360946924199425 0.004009497869034817086 9.41788702060101457
0.005047658755856332391 13.74827941288731914 0.005047658755856332391 11.16114721626526674
0.006354625877790454069 16.53324095637297830 0.006354625877790454069 13.16959032008032437
0.008000000000009777068 19.81270382957799114 0.008000000000009777068 15.47150058119023086
0.010071403294361402914 23.65754482215992383 0.010071403294361402914 18.09670499864656890
0.012679145539692626699 28.14568279339879808 0.012679145539692626699 21.07687114255631400
0.015962098519750611558 33.36253989905768691 0.015962098519750611558 24.44597265424604515
0.020095091452091651263 39.40162627703513465 0.020095091452091651263 28.24089467577028501
0.025298221281360611101 46.36527348230834633 0.025298221281360611101 32.50213798669891929
0.031848573644296607199 54.36553415830550762 0.031848573644296607199 37.27468406433861503
0.040094978690191851456 63.52530078853671114 0.040094978690191851456 42.60929275315258735
0.050476587558435426217 73.97978452707683061 0.050476587558435426217 48.56445737338724911
0.063546258777947173257 85.87850815210478572 0.063546258777947173257 55.20835809167707708
0.080000000000012505552 99.38764743120007950 0.080000000000012505552 62.61849801131809556
0.100714032943542974863 114.69180502213816908 0.100714032943542974863 70.87577295328898686
0.126791455396883634421 131.99355182794130315 0.126791455396883634421 80.05122510727964880
0.159620985197506115583 151.50901221474364888 0.159620985197506115583 90.18821182512442647
0.200950914520774404082 173.45908444143142901 0.200950914520774404082 101.28709148207805413
0.252982212813464002465 198.05783992893296386 0.252982212813464002465 113.30136578031101635
0.318485736442809752589 225.50179871624993666 0.318485736442809752589 126.14250980561159565
0.400949786901833249431 255.96034177687121769 0.400949786901833249431 139.71056595226198738
0.504765875584169521062 289.57876018742672386 0.504765875584169521062 153.91206727279600841
0.635462587779443310865 326.47652890469095155 0.635462587779443310865 168.68253854104693801
0.800000000000011368684 366.76013260054179455 0.800000000000011368684 184.01659551682180904
1.007140329435344483500 410.53437700236059982 1.007140329435344483500 200.00537991209176880
1.267914553968907398485 457.93114059260301474 1.267914553968907398485 216.69070662463406052
1.596209851975117999245 509.05287770427162286 1.596209851975117999245 234.35894400343400434
2.009509145207687197399 564.13236545619474782 2.009509145207687197399 253.16556367110024439
2.529822128134725289783 623.30427923599449969 2.529822128134725289783 273.43852592027860737
3.184857364427983839050 686.89572109269170141 3.184857364427983839050 295.62393691156654540
4.009497869018204596614 755.17150285814864219 4.009497869018204596614 319.88791741292141069
5.009497869018190385759 825.94503785867959778 5.009497869018190385759 345.50187711648391087
6.009497869018190385759 887.42387189809335268 6.009497869018190385759 368.00573634053250771
7.009497869018204596614 942.02625292530342449 7.009497869018204596614 388.07620847861824132
8.009497869018190385759 991.26785997680769924 8.009497869018190385759 406.08938497546483859
9.009497869018204596614 1036.17174332293984662 9.009497869018204596614 422.37708506065899883
10.009497869018190385759 1077.46891876582799341 10.009497869018190385759 437.15308242510860737
11.009497869018190385759 1115.70486831186417476 11.009497869018190385759 450.49336707504068045
12.009497869018204596614 1151.30101782450424253 12.009497869018204596614 462.69186303924010417
13.009497869018190385759 1184.59022240164927098 13.009497869018190385759 473.87464671817616590
14.009497869018204596614 1215.84482715231570182 14.009497869018204596614 484.13430706641935330
15.009497869018190385759 1245.28454225582436266 15.009497869018190385759 493.58073637901486563
16.009497869018190385759 1273.09166615339381678 16.009497869018190385759 502.30951611785189925
17.009497869018204596614 1299.42575880469053118 17.009497869018204596614 510.40968746037117398
18.009497869018190385759 1324.42493963348238140 18.009497869018190385759 517.97319186237245958
19.009497869018204596614 1348.20660979787317046 19.009497869018204596614 525.02363698271869907
20.009497869018190385759 1370.87671092446089460 20.009497869018190385759 531.59606937420073791
21.009497869018190385759 1392.52203999510675203 21.009497869018190385759 537.72300094514787361
22.009497869018204596614 1413.21687020291301451 22.009497869018204596614 543.45780382786949758
23.009497869018190385759 1433.02910448648822239 23.009497869018190385759 548.82015159721834152
24.009497869018204596614 1452.02151121027645786 24.009497869018204596614 553.86700455277309629
25.009497869018204596614 1470.25294163626585942 25.009497869018204596614 558.62489729029698537
26.009497869018190385759 1487.77519786562925219 26.009497869018190385759 563.12172556252880895
27.009497869018204596614 1504.63553256369982591 27.009497869018204596614 567.38794615759059070
28.009497869018190385759 1520.87498508798739749 28.009497869018190385759 571.43364834139708819
29.009497869018190385759 1536.53036601750613954 29.009497869018190385759 575.24187886330082620
30.009497869018190385759 1551.63583524146065429 30.009497869018190385759 578.88936130464833241
31.009497869018218807469 1566.22268456331767084 31.009497869018218807469 582.34994931842322785
32.009497869018190385759 1580.31973669679223349 32.009497869018190385759 585.63767374647329689
33.009497869018190385759 1593.95366668427982404 33.009497869018190385759 588.74767442726431455
34.009497869018218807469 1607.15012276720267437 34.009497869018218807469 591.74458690150083839
35.009497869018190385759 1619.93195516569176107 35.009497869018190385759 594.60097380194702055
36.009497869018190385759 1632.32028692605649667 36.009497869018190385759 597.35405291983727238
37.009497869018190385759 1644.33468521652662275 37.009497869018190385759 600.00134414143428785
38.009497869018218807469 1655.99378530696935741 38.009497869018218807469 602.55457393091285212
39.009497869018190385759 1667.31463666970444137 39.009497869018190385759 605.03156400889599809
40.009497869018190385759 1678.31320513353011847 40.009497869018190385759 607.42456730205822169
41.009497869018218807469 1689.00482305938157879 41.009497869018218807469 609.73156098455604024
42.009497869018190385759 1699.40352818860651496 42.009497869018190385759 611.94420196796988876
43.009497869018190385759 1709.52251399350234351 43.009497869018190385759 614.10856623982226665
44.009497869018218807469 1719.37454048684026020 44.009497869018218807469 616.15081478832144057
46.009497869018190385759 1738.32529591231741506 46.009497869018190385759 620.07279367193507369
48.009497869018218807469 1756.33749901641749602 48.009497869018218807469 623.71044800723780099
50.009497869018190385759 1773.47635398252373307 50.009497869018190385759 626.95030297272103326
52.009497869018190385759 1789.80666909720116564 52.009497869018190385759 629.88972647831974427
54.009497869018218807469 1805.38997700351978892 54.009497869018218807469 632.57044091627221860
56.009497869018190385759 1820.27501930596622515 56.009497869018190385759 635.02065125668468681
58.009497869018218807469 1834.50427858962393657 58.009497869018218807469 637.33745507113781059
60.009497869018190385759 1848.11967057139258941 60.009497869018190385759 639.67816053227545581
62.009497869018190385759 1861.15650089295422731 62.009497869018190385759 641.96433499711486093
64.009497869018218807469 1873.65160769274075392 64.009497869018218807469 644.19556934667309633
66.009497869018190385759 1885.65419937901606318 66.009497869018190385759 646.59593983974082221
68.009497869018190385759 1897.20679097069432828 68.009497869018190385759 649.04568994681767435
70.009497869018190385759 1908.33506054302347366 70.009497869018190385759 651.15342402880764894
72.009497869018190385759 1919.06568649094378998 72.009497869018190385759 652.88358798415390538
74.009497869018218807469 1929.42337750001183849 74.009497869018218807469 654.51910058573207607
76.009497869018190385759 1939.42799711653242412 76.009497869018190385759 656.06460744837374932
78.009497869018190385759 1949.10498652739920544 78.009497869018190385759 657.80883995697649880
80.009497869018218807469 1958.47012998466721001 80.009497869018218807469 659.10266954821508989
82.009497869018190385759 1967.52332871325734232 82.009497869018190385759 660.57378976676261573
84.009497869018218807469 1976.26898737793089822 84.009497869018218807469 661.85596788360669507
86.009497869018190385759 1984.71432863765699040 86.009497869018190385759 662.58036851532449418
88.009497869018190385759 1992.87969841720769182 88.009497869018190385759 663.45626133718349138
91.009497869018218807469 2004.62168093582613437 91.009497869018218807469 664.48742646637197140
94.009497869018218807469 2015.79642386301429724 94.009497869018218807469 665.97772927094968054
97.009497869018218807469 2026.48044571779678336 97.009497869018218807469 668.29753768932448565
99.504748934509137825444 2035.04843645610549174 99.504748934509137825444 668.77661402449837169
nan nan nan nan

