Time Pressure difference Time.1 Pressure.1 difference.1
(hr) (psi) (hr) (psi)
0.000200000000020850166 0.67401215865032682 0.000200000000020850166 0.54274639906080491
0.000399999999999067768 1.29307112952636016 0.000399999999999067768 1.24348536977517288
0.000600000000019917934 1.88035928698864341 0.000600000000019917934 1.74697920847427879
0.000799999999998135536 2.44386619786216608 0.000799999999998135536 2.22971700971511710
0.001007140329434719206 3.00720209310506048 0.001007140329434719206 2.71016685670863611
0.001267914553977789183 3.69193119475281861 0.001267914553977789183 3.28813971118506032
0.001596209851982166583 4.52142659595555063 0.001596209851982166583 3.97557298941100434
0.002009509145224797066 5.52272009869297609 0.002009509145224797066 4.78911933993128169
0.002529822128153114136 6.72685190251509368 0.002529822128153114136 5.74692180265061658
0.003184857364431081805 8.16920645490268171 0.003184857364431081805 6.86854185972240217
0.004009497869034817086 9.88982864334011147 0.004009497869034817086 8.17487110362381131
0.005047658755856332391 11.93371844991471420 0.005047658755856332391 9.68804782452312807
0.006354625877790454069 14.35110799777654478 0.006354625877790454069 11.43140739729515687
0.008000000000009777068 17.19773232220594394 0.008000000000009777068 13.42950098617764532
0.010071403294361402914 20.53511356913881514 0.010071403294361402914 15.70821888610844042
0.012679145539692626699 24.43088650949163565 0.012679145539692626699 18.29504903607248423
0.015962098519750611558 28.95919889118591328 0.015962098519750611558 21.21948108041973668
0.020095091452091651263 34.20121895530699163 0.020095091452091651263 24.51353189101062569
0.025298221281360611101 40.24577206894009862 0.025298221281360611101 28.21235676880127841
0.031848573644296607199 47.19012165378927648 0.031848573644296607199 32.35500032944999305
0.040094978690191851456 55.14094027983774282 0.040094978690191851456 36.98552290037618206
0.050476587558435426217 64.21559331300214524 0.050476587558435426217 42.15469758518487708
0.063546258777947173257 74.54386882952448445 0.063546258777947173257 47.92170581946151486
0.080000000000012505552 86.27000995713996190 0.080000000000012505552 54.35382149151985232
0.100714032943542974863 99.55425464831068894 0.100714032943542974863 61.52126342091847988
0.126791455396883634421 114.57243756934018108 0.126791455396883634421 69.48569732337087146
0.159620985197506115583 131.51215800142972512 0.159620985197506115583 78.28475804859066045
0.200950914520774404082 150.56515903827528291 0.200950914520774404082 87.91875667182304710
0.252982212813464002465 171.91725797299480405 0.252982212813464002465 98.34733195381524240
0.318485736442809752589 195.73903722865239274 0.318485736442809752589 109.49364290448558279
0.400949786901833249431 222.17752210111848399 0.400949786901833249431 121.27092478129870301
0.504765875584169521062 251.35882748446192636 0.504765875584169521062 133.59804683313026885
0.635462587779443310865 283.38665948278088536 0.635462587779443310865 146.41904356982976765
0.800000000000011368684 318.35344843264755355 0.800000000000011368684 159.72924138791566406
1.007140329435344483500 356.35016732093151859 1.007140329435344483500 173.60775269826078215
1.267914553968907398485 397.49128870321322893 1.267914553968907398485 188.09087347668139500
1.596209851975117999245 441.86574451979652167 1.596209851975117999245 203.42717586425243326
2.009509145207687197399 489.67558889791081356 2.009509145207687197399 219.75161162587795616
2.529822128134725289783 541.03772214993352918 2.529822128134725289783 237.34885535083915897
3.184857364427983839050 596.23607389645007970 3.184857364427983839050 256.60613406293009575
4.009497869018204596614 655.50050488939496063 4.009497869018204596614 277.66764314936619940
5.009497869018190385759 716.93302419139718040 5.009497869018190385759 299.90095499224668174
6.009497869018190385759 770.29759978822937683 6.009497869018190385759 319.43465167901717905
7.009497869018204596614 817.69330817504669540 7.009497869018204596614 336.85613086631508395
8.009497869018190385759 860.43578211859698968 8.009497869018190385759 352.49184572533124538
9.009497869018204596614 899.41304502309128566 9.009497869018204596614 366.62982046209418741
10.009497869018190385759 935.25962987284310657 10.009497869018190385759 379.45561393547484386
11.009497869018190385759 968.44902345760090157 11.009497869018190385759 391.03518664220774781
12.009497869018204596614 999.34702992281142997 12.009497869018204596614 401.62366916989918764
13.009497869018190385759 1028.24257262416767844 13.009497869018190385759 411.33049777753058152
14.009497869018204596614 1055.37205131429323046 14.009497869018204596614 420.23604110485916863
15.009497869018190385759 1080.92617781550825384 15.009497869018190385759 428.43568735789244784
16.009497869018190385759 1105.06318998478604954 16.009497869018190385759 436.01240271886757682
17.009497869018204596614 1127.92158832661471024 17.009497869018204596614 443.04347630230682853
18.009497869018190385759 1149.62126262983429115 18.009497869018190385759 449.60871470905362912
19.009497869018204596614 1170.26411890932922688 19.009497869018204596614 455.72860975089548674
20.009497869018190385759 1189.94211612999947647 20.009497869018190385759 461.43358237587170834
21.009497869018190385759 1208.73059541001089201 21.009497869018190385759 466.75185342155901935
22.009497869018204596614 1226.69402702584261533 22.009497869018204596614 471.72975072149358766
23.009497869018190385759 1243.89135177488037698 23.009497869018190385759 476.38435124190147008
24.009497869018204596614 1260.37705356498963738 24.009497869018204596614 480.76509740081746713
25.009497869018204596614 1276.20221619872404517 25.009497869018204596614 484.89502163637536114
26.009497869018190385759 1291.41180469839309808 26.009497869018190385759 488.79833789194464089
27.009497869018204596614 1306.04683510587028650 27.009497869018204596614 492.50148312908402204
28.009497869018190385759 1320.14293021606636103 28.009497869018190385759 496.01321498612600180
29.009497869018190385759 1333.73204217897205126 29.009497869018190385759 499.31881778018691875
30.009497869018190385759 1346.84382230496726152 30.009497869018190385759 502.48488876251263946
31.009497869018218807469 1359.50543236180078566 31.009497869018218807469 505.48873250086637654
32.009497869018190385759 1371.74189090925779055 32.009497869018190385759 508.34252798224702019
33.009497869018190385759 1383.57635229531410914 33.009497869018190385759 511.04205651152705059
34.009497869018218807469 1395.03107958887221685 34.009497869018218807469 513.64342273434692743
35.009497869018190385759 1406.12590713322583724 35.009497869018190385759 516.12281059301949426
36.009497869018190385759 1416.87917005816666460 36.009497869018190385759 518.51252570402073161
37.009497869018190385759 1427.30785296733188261 37.009497869018190385759 520.81041529039714533
38.009497869018218807469 1437.42813156221518511 38.009497869018218807469 523.02665810380779021
39.009497869018190385759 1447.25480504759502765 39.009497869018190385759 525.17672367246166232
40.009497869018190385759 1456.80173200896979324 40.009497869018190385759 527.25388741729716457
41.009497869018218807469 1466.08222117196783074 41.009497869018218807469 529.25639349430150560
42.009497869018190385759 1475.10845751246097279 42.009497869018190385759 531.17699997412421453
43.009497869018190385759 1483.89189316777014938 43.009497869018190385759 533.05570152416169094
44.009497869018218807469 1492.44360402566758239 44.009497869018218807469 534.82840474400541098
46.009497869018190385759 1508.89315184681890969 46.009497869018190385759 538.23274286937726174
48.009497869018218807469 1524.52802178592719429 48.009497869018218807469 541.39028290416308664
50.009497869018190385759 1539.40481207924267437 50.009497869018190385759 544.20252695416343158
52.009497869018190385759 1553.57977731847608993 52.009497869018190385759 546.75399186605591240
54.009497869018218807469 1567.10632878629212428 54.009497869018218807469 549.08089331942323952
56.009497869018190385759 1580.02677494670092528 56.009497869018190385759 551.20771366307599237
58.009497869018218807469 1592.37799133839212118 58.009497869018218807469 553.21873508583348666
60.009497869018190385759 1604.19636144973492264 60.009497869018190385759 555.25050350633932794
62.009497869018190385759 1615.51253112191898254 62.009497869018190385759 557.23493818150336665
64.009497869018218807469 1626.35847642693579473 64.009497869018218807469 559.17168398974229149
66.009497869018190385759 1636.77691102166977544 66.009497869018190385759 561.25524257765550828
68.009497869018190385759 1646.80473859787616675 68.009497869018190385759 563.38166343167893046
70.009497869018190385759 1656.46424812067834864 70.009497869018190385759 565.21120910400361481
72.009497869018190385759 1665.77859684811210172 72.009497869018190385759 566.71301808643806908
74.009497869018218807469 1674.76923230010652333 74.009497869018218807469 568.13266823482138079
76.009497869018190385759 1683.45339634103629578 76.009497869018190385759 569.47419201443619841
78.009497869018190385759 1691.85317231328212983 78.009497869018190385759 570.98821271795361554
80.009497869018218807469 1699.98226119092964836 80.009497869018218807469 572.11127674657200259
82.009497869018190385759 1707.84057723568867004 82.009497869018190385759 573.38823177249810215
84.009497869018218807469 1715.43194376446604110 84.009497869018218807469 574.50118214174335662
86.009497869018190385759 1722.76263015657923461 86.009497869018190385759 575.12997305617273014
88.009497869018190385759 1729.85029698834705414 88.009497869018190385759 575.89026152678445669
91.009497869018218807469 1740.04251880845822598 91.009497869018218807469 576.78532875356563636
94.009497869018218807469 1749.74236791962994175 94.009497869018218807469 578.07893455985129094
97.009497869018218807469 1759.01626357585269034 97.009497869018218807469 580.09256402512653494
99.504748934509137825444 1766.45341160592579399 99.504748934509137825444 580.50840966866383042
nan nan nan nan

