Time Pressure difference Time.1 Pressure.1 difference.1
(hr) (psi) (hr) (psi)
0.000200000000020850166 0.38450860105024193 0.000200000000020850166 0.30962447182825054
0.000399999999999067768 0.73766765879750185 0.000399999999999067768 0.70938011105931054
0.000600000000019917934 1.07270219035756131 0.000600000000019917934 0.99661189029498276
0.000799999999998135536 1.39417006182147962 0.000799999999998135536 1.27200282241239759
0.001007140329434719206 1.71554037275915761 0.001007140329434719206 1.54608852868838942
0.001267914553977789183 2.10616274595221853 0.001267914553977789183 1.87580889184142174
0.001596209851982166583 2.57937099924656277 0.001596209851982166583 2.26797393624556776
0.002009509145224797066 3.15058616063062136 0.002009509145224797066 2.73208361900630248
0.002529822128153114136 3.83751595770561371 0.002529822128153114136 3.27848813158980779
0.003184857364431081805 4.66034641267478200 0.003184857364431081805 3.91834685449202524
0.004009497869034817086 5.64192222272676780 0.004009497869034817086 4.66357796588528117
0.005047658755856332391 6.80791485378042527 0.005047658755856332391 5.52681085660919802
0.006354625877790454069 8.18698058918661964 0.006354625877790454069 6.52135782709179868
0.008000000000009777068 9.81091499846154669 0.008000000000009777068 7.66122475793042046
0.010071403294361402914 11.71481506607919165 0.010071403294361402914 8.96118147331824488
0.012679145539692626699 13.93726488998745872 0.012679145539692626699 10.43690921702692265
0.015962098519750611558 16.52056407332914389 0.015962098519750611558 12.10523116019505530
0.020095091452091651263 19.51101725086325445 0.020095091452091651263 13.98441219975522820
0.025298221281360611101 22.95929727351299832 0.025298221281360611101 16.09450763503202708
0.031848573644296607199 26.92089071037479187 0.031848573644296607199 18.45779153089600300
0.040094978690191851456 31.45665183555671263 0.040094978690191851456 21.09939930165744926
0.050476587558435426217 36.63353491995904676 0.050476587558435426217 24.04829584770813611
0.063546258777947173257 42.52558110807500924 0.063546258777947173257 27.33824283152410217
0.080000000000012505552 49.21507782238617068 0.080000000000012505552 31.00761847573940599
0.100714032943542974863 56.79343716895859728 0.100714032943542974863 35.09648101925871089
0.126791455396883634421 65.36096882424068610 0.126791455396883634421 39.64000934984753144
0.159620985197506115583 75.02469390980562025 0.159620985197506115583 44.65967329298068478
0.200950914520774404082 85.89399749797279071 0.200950914520774404082 50.15565031000782170
0.252982212813464002465 98.07488412665853161 0.252982212813464002465 56.10491523225419996
0.318485736442809752589 111.66466718704477046 0.318485736442809752589 62.46363202320264918
0.400949786901833249431 126.74722126523295174 0.400949786901833249431 69.18230337135132402
0.504765875584169521062 143.39449203886061923 0.504765875584169521062 76.21464602911092356
0.635462587779443310865 161.66564148074292007 0.635462587779443310865 83.52873295770531570
0.800000000000011368684 181.61339899487330740 0.800000000000011368684 91.12189797268439406
1.007140329435344483500 203.28966260039820213 1.007140329435344483500 99.03927290444620724
1.267914553968907398485 226.75973628573984797 1.267914553968907398485 107.30156378136985040
1.596209851975117999245 252.07435369941777026 1.596209851975117999245 116.05057535430161408
2.009509145207687197399 279.34878212378043827 2.009509145207687197399 125.36329453462960259
2.529822128134725289783 308.64971052726508560 2.529822128134725289783 135.40212169848095414
3.184857364427983839050 340.13911429830784527 3.184857364427983839050 146.38796105254834856
4.009497869018204596614 373.94812376598110859 4.009497869018204596614 158.40307278443313521
5.009497869018190385759 408.99397828454846149 5.009497869018190385759 171.08667132743039474
6.009497869018190385759 439.43725448518301846 6.009497869018190385759 182.23020084685330744
7.009497869018204596614 466.47542774913870289 7.009497869018204596614 192.16875834104988030
8.009497869018190385759 490.85903663591437862 8.009497869018190385759 201.08857791655964320
9.009497869018204596614 513.09467829286234064 9.009497869018204596614 209.15397082965193931
10.009497869018190385759 533.54433935032341196 10.009497869018190385759 216.47079418738516665
11.009497869018190385759 552.47813324884225494 11.009497869018190385759 223.07667695238046690
12.009497869018204596614 570.10474293043841953 12.009497869018204596614 229.11716532000906454
13.009497869018190385759 586.58899259580709895 13.009497869018190385759 234.65469018607183216
14.009497869018204596614 602.06574292513505497 14.009497869018204596614 239.73510003096293985
15.009497869018190385759 616.64379067388597377 15.009497869018190385759 244.41281165588981139
16.009497869018190385759 630.41340693915651627 16.009497869018190385759 248.73515538013091941
17.009497869018204596614 643.45360310752482746 17.009497869018204596614 252.74622288500077616
18.009497869018190385759 655.83277357573228983 18.009497869018190385759 256.49154202048117668
19.009497869018204596614 667.60905340665385665 19.009497869018204596614 259.98280289895706119
20.009497869018190385759 678.83490309746912317 20.009497869018190385759 263.23735997913217943
21.009497869018190385759 689.55330304189305934 21.009497869018190385759 266.27131260674951818
22.009497869018204596614 699.80103206579701691 22.009497869018204596614 269.11108975676773980
23.009497869018190385759 709.61171455303940547 23.009497869018190385759 271.76643344987502360
24.009497869018204596614 719.01643233341246741 24.009497869018204596614 274.26554946062174167
25.009497869018204596614 728.04432755398897825 25.009497869018204596614 276.62157727091783954
26.009497869018190385759 736.72105173693012148 26.009497869018190385759 278.84833038452779874
27.009497869018204596614 745.07000360090717095 27.009497869018204596614 280.96089048651407438
28.009497869018190385759 753.11150513990901345 28.009497869018190385759 282.96425361028724410
29.009497869018190385759 760.86378432851461184 29.009497869018190385759 284.85002479358058736
30.009497869018190385759 768.34375656465397242 30.009497869018190385759 286.65619625297614448
31.009497869018218807469 775.56691701882971302 31.009497869018218807469 288.36982076076060366
32.009497869018190385759 782.54753821016493021 32.009497869018190385759 289.99784615191452986
33.009497869018190385759 789.29882916736016796 33.009497869018190385759 291.53786575685342086
34.009497869018218807469 795.83349046468413235 34.009497869018218807469 293.02188599939438518
35.009497869018190385759 802.16283714370479174 35.009497869018190385759 294.43632036050172474
36.009497869018190385759 808.29732897879875964 36.009497869018190385759 295.79959845934143914
37.009497869018190385759 814.24665529989852075 37.009497869018190385759 297.11049218564278362
38.009497869018218807469 820.02004397666883051 38.009497869018218807469 298.37480828563508339
39.009497869018190385759 825.62593761871687548 39.009497869018190385759 299.60137177319126067
40.009497869018190385759 831.07224223375192196 40.009497869018190385759 300.78634642895758589
41.009497869018218807469 836.36655014693837984 41.009497869018218807469 301.92873058387453966
42.009497869018190385759 841.51581260977229704 42.009497869018190385759 303.02439288201981071
43.009497869018190385759 846.52656280603093819 43.009497869018190385759 304.09614937116435840
44.009497869018218807469 851.40511927768375244 44.009497869018218807469 305.10743622466014813
46.009497869018190385759 860.78921204135940570 46.009497869018190385759 307.04953366799099967
48.009497869018218807469 869.70854960928579658 48.009497869018218807469 308.85083841591546161
50.009497869018190385759 878.19541998749252798 50.009497869018190385759 310.45515966086571780
52.009497869018190385759 886.28191514061791167 52.009497869018190385759 311.91071234090208009
54.009497869018218807469 893.99850499018225491 54.009497869018218807469 313.23815667722919898
56.009497869018190385759 901.36932555228008823 56.009497869018190385759 314.45145929280920427
58.009497869018218807469 908.41541348272312462 58.009497869018218807469 315.59870125873300140
60.009497869018190385759 915.15752473381098753 60.009497869018190385759 316.75777891482618998
62.009497869018190385759 921.61314206067299892 62.009497869018190385759 317.88985374616288482
64.009497869018218807469 927.80050708484463939 64.009497869018218807469 318.99472316395946336
66.009497869018190385759 933.74398697573622030 66.009497869018190385759 320.18334593220311035
68.009497869018190385759 939.46463444984283342 68.009497869018190385759 321.39642064803882704
70.009497869018190385759 944.97516485463791014 70.009497869018190385759 322.44013482736721699
72.009497869018190385759 950.28878887894518357 72.009497869018190385759 323.29688268194132661
74.009497869018218807469 955.41774184489986510 74.009497869018218807469 324.10676079100795732
76.009497869018190385759 960.37185984383199866 76.009497869018190385759 324.87206958426213532
78.009497869018190385759 965.16374092011869834 78.009497869018190385759 325.73578394786699164
80.009497869018218807469 969.80120116774457983 80.009497869018218807469 326.37646642368258654
82.009497869018190385759 974.28419167496554110 82.009497869018190385759 327.10494021205778381
84.009497869018218807469 978.61489355708704352 84.009497869018218807469 327.73985307531199851
86.009497869018190385759 982.79688335236585317 86.009497869018190385759 328.09856398543041678
88.009497869018190385759 986.84023601776959822 88.009497869018190385759 328.53229125945307487
91.009497869018218807469 992.65466666764439196 91.009497869018218807469 329.04290674731709032
94.009497869018218807469 998.18820988977779507 94.009497869018218807469 329.78087942704058833
97.009497869018218807469 1003.47875635736772892 97.009497869018218807469 330.92960922188126460
99.504748934509137825444 1007.72148009483441911 99.504748934509137825444 331.16683969999246528
nan nan nan nan

