Time Pressure difference Time.1 Pressure.1 difference.1
(hr) (psi) (hr) (psi)
0.000200000000020850166 0.78697091109893869 0.000200000000020850166 0.63370611743836491
0.000399999999999067768 1.50977894368671572 0.000399999999999067768 1.45188302886069009
0.000600000000019917934 2.19549164252170126 0.000600000000019917934 2.03975818791891372
0.000799999999998135536 2.85343755843617997 0.000799999999998135536 2.60339877271953757
0.001007140329434719206 3.51118379794286728 0.001007140329434719206 3.16436796144005017
0.001267914553977789183 4.31066772128741871 0.001267914553977789183 3.83920419108399935
0.001596209851982166583 5.27917955487817814 0.001596209851982166583 4.64184548819131759
0.002009509145224797066 6.44828140269146566 0.002009509145224797066 5.59173534473663558
0.002529822128153114136 7.85421553989553711 0.002529822128153114136 6.71005742107486025
0.003184857364431081805 9.53829654889858070 0.003184857364431081805 8.01965153876577830
0.004009497869034817086 11.54728050254583493 0.004009497869034817086 9.54491054496365088
0.005047658755856332391 13.93370900034437199 0.005047658755856332391 11.31168292053088642
0.006354625877790454069 16.75623264557261294 0.006354625877790454069 13.34721485233574256
0.008000000000009777068 20.07992719529483949 0.008000000000009777068 15.68017207265136825
0.010071403294361402914 23.97662538816208055 0.010071403294361402914 18.34078387146068678
0.012679145539692626699 28.52529701219222957 0.012679145539692626699 21.36114493445976947
0.015962098519750611558 33.81251635241684994 0.015962098519750611558 24.77568712164435283
0.020095091452091651263 39.93305476246720787 0.020095091452091651263 28.62179306253404931
0.025298221281360611101 46.99062399170365012 0.025298221281360611101 32.94050978998772905
0.031848573644296607199 55.09878799088381385 0.031848573644296607199 37.77742546790387479
0.040094978690191851456 64.38209675292930001 0.040094978690191851456 43.18398456292536025
0.050476587558435426217 74.97758508909906539 0.050476587558435426217 49.21946932254660823
0.063546258777947173257 87.03679246244145418 0.063546258777947173257 55.95297949175750318
0.080000000000012505552 100.72813593219892425 0.080000000000012505552 63.46306349509310962
0.100714032943542974863 116.23870798004756466 0.100714032943542974863 71.83170823396918081
0.126791455396883634421 133.77381167918520077 0.126791455396883634421 81.13091407789805487
0.159620985197506115583 153.55248636792902062 0.159620985197506115583 91.40462315995269194
0.200950914520774404082 175.79860966511162701 0.200950914520774404082 102.65319868896543198
0.252982212813464002465 200.72914027479527022 0.252982212813464002465 114.82951522243466513
0.318485736442809752589 228.54324879527453618 0.318485736442809752589 127.84385386850036070
0.400949786901833249431 259.41260072183865759 0.400949786901833249431 141.59490884564510793
0.504765875584169521062 293.48444674101432383 0.504765875584169521062 155.98795257319980578
0.635462587779443310865 330.87987322517807343 0.635462587779443310865 170.95764021693773316
0.800000000000011368684 371.70680105565509166 0.800000000000011368684 186.49851491685600990
1.007140329435344483500 416.07144952455041675 1.007140329435344483500 202.70294765657081371
1.267914553968907398485 464.10747582217572926 1.267914553968907398485 219.61331731128615274
1.596209851975117999245 515.91871613188232004 1.596209851975117999245 237.51985461619707962
2.009509145207687197399 571.74108714828219036 2.009509145207687197399 256.58012811367768791
2.529822128134725289783 631.71108069004446861 2.529822128134725289783 277.12652145292202022
3.184857364427983839050 696.16021058719809389 3.184857364427983839050 299.61115764062424205
4.009497869018204596614 765.35686031480952352 4.009497869018204596614 324.20239799459852748
5.009497869018190385759 837.08495166409534249 5.009497869018190385759 350.16182536275636039
6.009497869018190385759 899.39297999691154928 6.009497869018190385759 372.96920484608887136
7.009497869018204596614 954.73180932313994163 7.009497869018204596614 393.31037699374411432
8.009497869018190385759 1004.63756136377799066 8.009497869018190385759 411.56650577474852071
9.009497869018204596614 1050.14708475504107810 9.009497869018204596614 428.07388582255606480
10.009497869018190385759 1092.00125485708213091 10.009497869018190385759 443.04917409558214558
11.009497869018190385759 1130.75291085171602390 11.009497869018190385759 456.56938551343239396
12.009497869018204596614 1166.82916257358215262 12.009497869018204596614 468.93240839815086929
13.009497869018190385759 1200.56735449569850971 13.009497869018190385759 480.26601960262166813
14.009497869018204596614 1232.24350497517934855 14.009497869018204596614 490.66405687271014813
15.009497869018190385759 1262.08028752709742548 15.009497869018190385759 500.23789467314418289
16.009497869018190385759 1290.26245933850714209 16.009497869018190385759 509.08440361847806344
17.009497869018204596614 1316.95173243018712128 17.009497869018204596614 517.29382582688879211
18.009497869018190385759 1342.28808910830798595 18.009497869018190385759 524.95934281234679020
19.009497869018204596614 1366.39051397626440121 19.009497869018204596614 532.10488064144510645
20.009497869018190385759 1389.36637754579282955 20.009497869018190385759 538.76595855651169131
21.009497869018190385759 1411.30364747095609346 21.009497869018190385759 544.97552696945626849
22.009497869018204596614 1432.27759870275963294 22.009497869018204596614 550.78767786793707728
23.009497869018190385759 1452.35705001906103462 23.009497869018190385759 556.22235017367415821
24.009497869018204596614 1471.60561637110890842 24.009497869018204596614 561.33727243691441799
25.009497869018204596614 1490.08294277586855969 25.009497869018204596614 566.15933713814297334
26.009497869018190385759 1507.84153001410595607 26.009497869018190385759 570.71681627339148690
27.009497869018204596614 1524.92926807033927616 27.009497869018204596614 575.04057741597819131
28.009497869018190385759 1541.38774981942447084 28.009497869018190385759 579.14084591054893281
29.009497869018190385759 1557.25428232217382174 29.009497869018190385759 583.00043984989645196
30.009497869018190385759 1572.56348619847449299 30.009497869018190385759 586.69711762282270229
31.009497869018218807469 1587.34707529923889524 31.009497869018218807469 590.20438023408587469
32.009497869018190385759 1601.63426108383941937 32.009497869018190385759 593.53644776617522894
33.009497869018190385759 1615.45207837366342574 33.009497869018190385759 596.68839450624466281
34.009497869018218807469 1628.82652134017052958 34.009497869018218807469 599.72572776529750627
35.009497869018190385759 1641.78074839528676421 35.009497869018190385759 602.62064011526808827
36.009497869018190385759 1654.33616748189933787 36.009497869018190385759 605.41085132145371972
37.009497869018190385759 1666.51260967994812745 37.009497869018190385759 608.09384781964240574
38.009497869018218807469 1678.32896160205382330 38.009497869018218807469 610.68151423441258885
39.009497869018190385759 1689.80250267488349891 39.009497869018190385759 613.19191265641472910
40.009497869018190385759 1700.94941406596694833 40.009497869018190385759 615.61719152385876441
41.009497869018218807469 1711.78523493108787079 41.009497869018218807469 617.95530072808560362
42.009497869018190385759 1722.32419234529288588 42.009497869018190385759 620.19778465347246765
43.009497869018190385759 1732.57965772751867917 43.009497869018190385759 622.39134073631305455
44.009497869018218807469 1742.56456319090148099 44.009497869018218807469 624.46113406292306536
46.009497869018190385759 1761.77091647375505090 46.009497869018190385759 628.43601054226951419
48.009497869018218807469 1780.02605873340212383 48.009497869018218807469 632.12272765280749809
50.009497869018190385759 1797.39607359307819934 50.009497869018190385759 635.40628008410646999
52.009497869018190385759 1813.94664343955264485 52.009497869018190385759 638.38534899344153928
54.009497869018218807469 1829.74013083593717965 54.009497869018218807469 641.10221950281152203
56.009497869018190385759 1844.82593478793501163 56.009497869018190385759 643.58547699617759008
58.009497869018218807469 1859.24711086347224409 58.009497869018218807469 645.93352864627843246
60.009497869018190385759 1873.04614011667149498 60.009497869018190385759 648.30580431594773927
62.009497869018190385759 1886.25880437320620331 62.009497869018190385759 650.62281350381977063
64.009497869018218807469 1898.92243862501277363 64.009497869018218807469 652.88414157292879736
66.009497869018190385759 1911.08691497757672551 66.009497869018190385759 655.31688700520942348
68.009497869018190385759 1922.79532187010636335 68.009497869018190385759 657.79967805785372548
70.009497869018190385759 1934.07368371027041576 70.009497869018190385759 659.93584015251030905
72.009497869018190385759 1944.94903871721840005 72.009497869018190385759 661.68933965253370388
74.009497869018218807469 1955.44642883430901747 74.009497869018218807469 663.34691119093463385
76.009497869018190385759 1965.58598551694831258 76.009497869018190385759 664.91326304016297399
78.009497869018190385759 1975.39349308942564676 78.009497869018190385759 666.68102084271606600
80.009497869018218807469 1984.88494869351643501 80.009497869018218807469 667.99230092940490522
82.009497869018190385759 1994.06025222191397006 82.009497869018190385759 669.48326284646839213
84.009497869018218807469 2002.92386774718966080 84.009497869018218807469 670.78273430978254055
86.009497869018190385759 2011.48311534375261544 86.009497869018190385759 671.51690527757352811
88.009497869018190385759 2019.75861535154376725 88.009497869018190385759 672.40461168277170145
91.009497869018218807469 2031.65896757657947092 91.009497869018218807469 673.44968462680458288
94.009497869018218807469 2042.98442957985639623 94.009497869018218807469 674.96008785456569967
97.009497869018218807469 2053.81255192208345761 97.009497869018218807469 677.31118463311099731
99.504748934509137825444 2062.49610322911621552 99.504748934509137825444 677.79672249881730295
nan nan nan nan

