Time Pressure difference Time.1 Pressure.1 difference.1
(hr) (psi) (hr) (psi)
0.000200000000020850166 0.25209999718663723 0.000200000000020850166 0.20300281518700475
0.000399999999999067768 0.48364591637112464 0.000399999999999067768 0.46509941133655192
0.000600000000019917934 0.70330863453404313 0.000600000000019917934 0.65342063624398661
0.000799999999998135536 0.91407648022147592 0.000799999999998135536 0.83397850418867325
0.001007140329434719206 1.12478036112808577 0.001007140329434719206 1.01368061122176512
0.001267914553977789183 1.38088880425271898 0.001267914553977789183 1.22985913725789708
0.001596209851982166583 1.69114402090679294 0.001596209851982166583 1.48697902045672414
0.002009509145224797066 2.06565668508272271 0.002009509145224797066 1.79126883191658370
0.002529822128153114136 2.51603672713383641 0.002529822128153114136 2.14951459211238394
0.003184857364431081805 3.05551895150078101 0.003184857364431081805 2.56903285985177510
0.004009497869034817086 3.69908130167105176 0.004009497869034817086 3.05763769358626458
0.005047658755856332391 4.46355506950195213 0.005047658755856332391 3.62360945267957124
0.006354625877790454069 5.36772851859122735 0.006354625877790454069 4.27567624071971952
0.008000000000009777068 6.43244816046992529 0.008000000000009777068 5.02302090160029557
0.010071403294361402914 7.68072505305192177 0.010071403294361402914 5.87532715273978301
0.012679145539692626699 9.13785655238477368 0.012679145539692626699 6.84287627653321540
0.015962098519750611558 10.83157605585977024 0.015962098519750611558 7.93669825094500592
0.020095091452091651263 12.79224282790061729 0.020095091452091651263 9.16876830995624914
0.025298221281360611101 15.05308011901533050 0.025298221281360611101 10.55223555059492924
0.031848573644296607199 17.65046725563483321 0.031848573644296607199 12.10170378582091999
0.040094978690191851456 20.62430285716461498 0.040094978690191851456 13.83365284953027086
0.050476587558435426217 24.01848495724941657 0.050476587558435426217 15.76707334762186896
0.063546258777947173257 27.88155804167563900 0.063546258777947173257 17.92410084479304189
0.080000000000012505552 32.26747320261505791 0.080000000000012505552 20.32989771658400713
0.100714032943542974863 37.23616405824716935 0.100714032943542974863 23.01072782780191517
0.126791455396883634421 42.85339784779982608 0.126791455396883634421 25.98965593560042464
0.159620985197506115583 49.18934211596205586 0.159620985197506115583 29.28075855979473019
0.200950914520774404082 56.31571431287321161 0.200950914520774404082 32.88415205150318599
0.252982212813464002465 64.30201546825666981 0.252982212813464002465 36.78474014254798874
0.318485736442809752589 73.21204833080562935 0.318485736442809752589 40.95378208525153951
0.400949786901833249431 83.10080460385896117 0.400949786901833249431 45.35882536215057570
0.504765875584169521062 94.01545489707399383 0.504765875584169521062 49.96952473114860283
0.635462587779443310865 105.99478828601237979 0.635462587779443310865 54.76494748394298284
0.800000000000011368684 119.07337638379824796 0.800000000000011368684 59.74334555796622226
1.007140329435344483500 133.28524571271245236 1.007140329435344483500 64.93430927781784590
1.267914553968907398485 148.67321231185667330 1.267914553968907398485 70.35141438583976026
1.596209851975117999245 165.27053929319802705 1.596209851975117999245 76.08763403579696671
2.009509145207687197399 183.15280073096110414 2.009509145207687197399 82.19344408204314334
2.529822128134725289783 202.36372071534694328 2.529822128134725289783 88.77532103577445355
3.184857364427983839050 223.00949711776215167 3.184857364427983839050 95.97809897803267631
4.009497869018204596614 245.17610449248178384 4.009497869018204596614 103.85571114465750497
5.009497869018190385759 268.15363945893545861 5.009497869018190385759 112.17161135670046690
6.009497869018190385759 288.11353066440989323 6.009497869018190385759 119.47777759803416586
7.009497869018204596614 305.84089329077772845 7.009497869018204596614 125.99391354267278587
8.009497869018190385759 321.82781195778824213 8.009497869018190385759 131.84212209704398333
9.009497869018204596614 336.40643304415289094 9.009497869018204596614 137.13013262566673234
10.009497869018190385759 349.81409019661276716 10.009497869018190385759 141.92734949639844899
11.009497869018190385759 362.22788113785958330 11.009497869018190385759 146.25844383842846241
12.009497869018204596614 373.78462717423690265 12.009497869018204596614 150.21884185378027610
13.009497869018190385759 384.59239397818481621 13.009497869018190385759 153.84947586129609931
14.009497869018204596614 394.73960187893101192 14.009497869018204596614 157.18040605142900290
15.009497869018190385759 404.29758260136105719 15.009497869018190385759 160.24731036582656429
16.009497869018190385759 413.32552167022521417 16.009497869018190385759 163.08122055078618473
17.009497869018204596614 421.87522227088692262 17.009497869018204596614 165.71104496545768825
18.009497869018190385759 429.99152664401117363 18.009497869018190385759 168.16663358152172236
19.009497869018204596614 437.71255057984893710 19.009497869018204596614 170.45565092791542838
20.009497869018190385759 445.07268938491654353 20.009497869018190385759 172.58947531705746314
21.009497869018190385759 452.10012281151347224 21.009497869018190385759 174.57866215656534337
22.009497869018204596614 458.81896460345058131 22.009497869018204596614 176.44053939305587164
23.009497869018190385759 465.25126031979431218 23.009497869018190385759 178.18149430468454852
24.009497869018204596614 471.41738851431910007 24.009497869018204596614 179.82001978254768915
25.009497869018204596614 477.33645600329629133 25.009497869018204596614 181.36473062315036486
26.009497869018190385759 483.02528100261764621 26.009497869018190385759 182.82468354005033007
27.009497869018204596614 488.49920469553637759 27.009497869018204596614 184.20976671975725480
28.009497869018190385759 493.77155103530998304 28.009497869018190385759 185.52325577172527460
29.009497869018190385759 498.85427104807286014 29.009497869018190385759 186.75964660590787503
30.009497869018190385759 503.75845517954934394 30.009497869018190385759 187.94384851605636300
31.009497869018218807469 508.49426271468013283 31.009497869018218807469 189.06737275559595446
32.009497869018190385759 513.07105131678133603 32.009497869018190385759 190.13477461711124761
33.009497869018190385759 517.49748138015638688 33.009497869018190385759 191.14447618688637931
34.009497869018218807469 521.78187993501660458 34.009497869018218807469 192.11746222139282736
35.009497869018190385759 525.93166559811004390 35.009497869018190385759 193.04482482779977204
36.009497869018190385759 529.95369623707233586 36.009497869018190385759 193.93864723890672508
37.009497869018190385759 533.85432458378568299 37.009497869018190385759 194.79812425401092923
38.009497869018218807469 537.63960081738787267 38.009497869018218807469 195.62706301995916647
39.009497869018190385759 541.31506026752447269 39.009497869018190385759 196.43124958670321689
40.009497869018190385759 544.88588644508638481 40.009497869018190385759 197.20816876762393122
41.009497869018218807469 548.35705719750637854 41.009497869018218807469 197.95716382639244557
42.009497869018190385759 551.73313005737998083 42.009497869018190385759 198.67552607245266927
43.009497869018190385759 555.01838845453778504 43.009497869018190385759 199.37821466552992433
44.009497869018218807469 558.21697509062141762 44.009497869018218807469 200.04125682433945599
46.009497869018190385759 564.36958065746716784 46.009497869018190385759 201.31457752162054931
48.009497869018218807469 570.21747318741108757 48.009497869018218807469 202.49558861121303721
50.009497869018190385759 575.78182205405641980 50.009497869018190385759 203.54744903834969705
52.009497869018190385759 581.08366809803158048 52.009497869018190385759 204.50177054257585496
54.009497869018218807469 586.14298868033347389 54.009497869018218807469 205.37209883312496572
56.009497869018190385759 590.97560838738979783 56.009497869018190385759 206.16759101493519779
58.009497869018218807469 595.59531973478146938 58.009497869018218807469 206.91977105874127574
60.009497869018190385759 600.01573119707063597 60.009497869018190385759 207.67971107839773026
62.009497869018190385759 604.24830520320381311 62.009497869018190385759 208.42194691139471274
64.009497869018218807469 608.30500172683400706 64.009497869018218807469 209.14634573201237799
66.009497869018190385759 612.20179690821612439 66.009497869018190385759 209.92565676877904934
68.009497869018190385759 615.95249379299036718 68.009497869018190385759 210.72099952993985994
70.009497869018190385759 619.56542909730148949 70.009497869018190385759 211.40530240626992509
72.009497869018190385759 623.04926430389991765 72.009497869018190385759 211.96702230314053850
74.009497869018218807469 626.41202140414634414 74.009497869018218807469 212.49801242523287215
76.009497869018190385759 629.66014935286273158 76.009497869018190385759 212.99978103092672654
78.009497869018190385759 632.80190795735404663 78.009497869018190385759 213.56606846387384735
80.009497869018218807469 635.84242177729561263 80.009497869018218807469 213.98612681864014462
82.009497869018190385759 638.78165874409216940 82.009497869018190385759 214.46374484720519149
84.009497869018218807469 641.62104888859596485 84.009497869018218807469 214.88002040151775418
86.009497869018190385759 644.36293713958616536 86.009497869018190385759 215.11520634842420918
88.009497869018190385759 647.01392906223406953 88.009497869018190385759 215.39957617594492945
91.009497869018218807469 650.82611413812469436 91.009497869018218807469 215.73435714756001857
94.009497869018218807469 654.45413761255861118 94.009497869018218807469 216.21820304846826843
97.009497869018218807469 657.92284220317685595 97.009497869018218807469 216.97135857543577231
99.504748934509137825444 660.70455017890901672 99.504748934509137825444 217.12689684610404584
nan nan nan nan

