Time Pressure difference Time.1 Pressure.1 difference.1
(hr) (psi) (hr) (psi)
0.000200000000020850166 0.47352907483424733 0.000200000000020850166 0.38130795849665872
0.000399999999999067768 0.90845063816890792 0.000399999999999067768 0.87361402782206932
0.000600000000019917934 1.32105153014851440 0.000600000000019917934 1.22734499330101943
0.000799999999998135536 1.71694484267119973 0.000799999999998135536 1.56649374822382814
0.001007140329434719206 2.11271800769756180 0.001007140329434719206 1.90403509466877519
0.001267914553977789183 2.59377629997617554 0.001267914553977789183 2.31009149520548629
0.001596209851982166583 3.17654054965578636 0.001596209851982166583 2.79304961409230401
0.002009509145224797066 3.88000202272214656 0.002009509145224797066 3.36460881484628338
0.002529822128153114136 4.72596809577364585 0.002529822128153114136 4.03751553948705943
0.003184857364431081805 5.73929820860532480 0.003184857364431081805 4.82551276049309674
0.004009497869034817086 6.94812600580942341 0.004009497869034817086 5.74327792296767203
0.005047658755856332391 8.38406634716538868 0.005047658755856332391 6.80636434286696979
0.006354625877790454069 10.08240994738352114 0.006354625877790454069 8.03116635126285772
0.008000000000009777068 12.08231360705478430 0.008000000000009777068 9.43493243535010961
0.010071403294361402914 14.42699987709752563 0.010071403294361402914 11.03585189223822738
0.012679145539692626699 17.16398574973163704 0.012679145539692626699 12.85323644820630662
0.015962098519750611558 20.34536392688200124 0.015962098519750611558 14.90780413308068120
0.020095091452091651263 24.02815937703587679 0.020095091452091651263 17.22204848724719994
0.025298221281360611101 28.27477660337300946 0.025298221281360611101 19.82066796298691358
0.031848573644296607199 33.15354828729035574 0.031848573644296607199 22.73109346120071805
0.040094978690191851456 38.73941753289377488 0.040094978690191851456 25.98427968472599758
0.050476587558435426217 45.11483969714800679 0.050476587558435426217 29.61589741556274191
0.063546258777947173257 52.37099774593673374 0.063546258777947173257 33.66752473220769559
0.080000000000012505552 60.60923008087635111 0.080000000000012505552 38.18642508782693312
0.100714032943542974863 69.94211231118831051 0.100714032943542974863 43.22193090504039503
0.126791455396883634421 80.49317755981390121 0.126791455396883634421 48.81736560010406123
0.159620985197506115583 92.39422421188125156 0.159620985197506115583 54.99916963902096256
0.200950914520774404082 105.77996189925443105 0.200950914520774404082 61.76756156855048374
0.252982212813464002465 120.78093706648802197 0.252982212813464002465 69.09418549030526435
0.318485736442809752589 137.51699285875358214 0.318485736442809752589 76.92505655775735818
0.400949786901833249431 156.09142229745617669 0.400949786901833249431 85.19921796510774925
0.504765875584169521062 176.59282774435558849 0.504765875584169521062 93.85967108254321545
0.635462587779443310865 199.09406820488379708 0.635462587779443310865 102.86709720277718816
0.800000000000011368684 223.66008086333619076 0.800000000000011368684 112.21821287297514402
1.007140329435344483500 250.35477903901181662 1.007140329435344483500 121.96859873251838735
1.267914553968907398485 279.25858573710763721 1.267914553968907398485 132.14375461791266275
1.596209851975117999245 310.43398033410784365 1.596209851975117999245 142.91831556278779658
2.009509145207687197399 344.02291650652335875 2.009509145207687197399 154.38709229653801458
2.529822128134725289783 380.10752288669027621 2.529822128134725289783 166.75008372595024753
3.184857364427983839050 418.88727500161257922 3.184857364427983839050 180.27933724953911110
4.009497869018204596614 460.52366214759928198 4.009497869018204596614 195.07615772868902582
5.009497869018190385759 503.68324563058200738 5.009497869018190385759 210.69623142074598832
6.009497869018190385759 541.17467332513786005 6.009497869018190385759 224.41968314408197216
7.009497869018204596614 574.47265713074864379 7.009497869018204596614 236.65919071961980080
8.009497869018190385759 604.50149842516304943 8.009497869018190385759 247.64410471047131068
9.009497869018204596614 631.88508046572349031 9.009497869018204596614 257.57677730577756847
10.009497869018190385759 657.06919612598198910 10.009497869018190385759 266.58757338641015622
11.009497869018190385759 680.38649483758194947 11.009497869018190385759 274.72283367870983284
12.009497869018204596614 702.09397329760224693 12.009497869018204596614 282.16180087075048277
13.009497869018190385759 722.39461539522551448 13.009497869018190385759 288.98135970385885685
14.009497869018204596614 741.45450441947571107 14.009497869018204596614 295.23797338443495164
15.009497869018190385759 759.40762547970791729 15.009497869018190385759 300.99865715598878069
16.009497869018190385759 776.36514901261887189 16.009497869018190385759 306.32169913545300233
17.009497869018204596614 792.42437892424754864 17.009497869018204596614 311.26139900039976283
18.009497869018190385759 807.66954411174799588 18.009497869018190385759 315.87382509526185004
19.009497869018204596614 822.17223892298045484 19.009497869018204596614 320.17337399813186494
20.009497869018190385759 835.99706937878977442 20.009497869018190385759 324.18141802877562441
21.009497869018190385759 849.19696658661143829 21.009497869018190385759 327.91778381337053361
22.009497869018204596614 861.81722431449327360 22.009497869018204596614 331.41501909734233777
23.009497869018190385759 873.89925157991046945 23.009497869018190385759 334.68512134974872652
24.009497869018204596614 885.48132620048659192 24.009497869018204596614 337.76282647582405616
25.009497869018204596614 896.59933724061295379 25.009497869018204596614 340.66431597760890782
26.009497869018190385759 907.28487499898199076 26.009497869018190385759 343.40660142686010659
27.009497869018204596614 917.56675540734295282 27.009497869018204596614 346.00825618280816798
28.009497869018190385759 927.47000535712538749 28.009497869018190385759 348.47543294807746861
29.009497869018190385759 937.01707291819025158 29.009497869018190385759 350.79779317964300844
30.009497869018190385759 946.22878969927228354 30.009497869018190385759 353.02212495745897058
31.009497869018218807469 955.12423827416182576 31.009497869018218807469 355.13248354389389760
32.009497869018190385759 963.72099550006691970 32.009497869018190385759 357.13742531938106595
33.009497869018190385759 972.03532852711873602 33.009497869018190385759 359.03398642818717690
34.009497869018218807469 980.08287833491249330 34.009497869018218807469 360.86158334166663053
35.009497869018190385759 987.87757959526277318 35.009497869018190385759 362.60348402373074350
36.009497869018190385759 995.43231370346211406 36.009497869018190385759 364.28238487307999094
37.009497869018190385759 1002.75901323898017381 37.009497869018190385759 365.89677345041218359
38.009497869018218807469 1009.86904248488588109 38.009497869018218807469 367.45380086538324349
39.009497869018190385759 1016.77279866273875086 39.009497869018190385759 368.96433527710127009
40.009497869018190385759 1023.48001815946497572 40.009497869018190385759 370.42365231426100536
41.009497869018218807469 1030.00005105644368086 41.009497869018218807469 371.83051840387662423
42.009497869018190385759 1036.34145794160690457 42.009497869018190385759 373.17984570879087869
43.009497869018190385759 1042.51228454517058708 43.009497869018190385759 374.49973259133662395
44.009497869018218807469 1048.52031226220606186 44.009497869018218807469 375.74515005877407248
46.009497869018190385759 1060.07698681358078829 46.009497869018190385759 378.13687706583328918
48.009497869018218807469 1071.06130720365354136 48.009497869018218807469 380.35521540325777323
50.009497869018190385759 1081.51303667720389967 50.009497869018190385759 382.33096510764204368
52.009497869018190385759 1091.47169705060537126 52.009497869018190385759 384.12350371943773553
54.009497869018218807469 1100.97481256573018982 54.009497869018218807469 385.75827466281339184
56.009497869018190385759 1110.05210714901409119 56.009497869018190385759 387.25247807849848414
58.009497869018218807469 1118.72948781043555755 58.009497869018218807469 388.66532664742794623
60.009497869018190385759 1127.03251586868168488 60.009497869018190385759 390.09275107604082677
62.009497869018190385759 1134.98272164281320329 62.009497869018190385759 391.48692105315387835
64.009497869018218807469 1142.60257000915703429 64.009497869018218807469 392.84758708713297892
66.009497869018190385759 1149.92206956350401015 66.009497869018190385759 394.31139683868588008
68.009497869018190385759 1156.96714709484535888 68.009497869018190385759 395.80531959184548896
70.009497869018190385759 1163.75346177623691801 70.009497869018190385759 397.09067187883937322
72.009497869018190385759 1170.29728280228073345 72.009497869018190385759 398.14577186316898860
74.009497869018218807469 1176.61367818642338534 74.009497869018218807469 399.14315093522964162
76.009497869018190385759 1182.71476124736523161 76.009497869018190385759 400.08564211447065873
78.009497869018190385759 1188.61604669734447270 78.009497869018190385759 401.14932147665331286
80.009497869018218807469 1194.32716019296185550 80.009497869018218807469 401.93833316379590315
82.009497869018190385759 1199.84804149854699062 82.009497869018190385759 402.83546138955756533
84.009497869018218807469 1205.18137669579004978 84.009497869018218807469 403.61736769780640088
86.009497869018190385759 1210.33157035417821135 86.009497869018190385759 404.05912646454760306
88.009497869018190385759 1215.31102995962669411 88.009497869018190385759 404.59326919695291735
91.009497869018218807469 1222.47160311404422828 91.009497869018218807469 405.22210111099559526
94.009497869018218807469 1229.28625848293654599 94.009497869018218807469 406.13092738777567092
97.009497869018218807469 1235.80165909380116318 97.009497869018218807469 407.54560824406775055
99.504748934509137825444 1241.02664766542829966 99.504748934509137825444 407.83776173170281254
nan nan nan nan

