Time Pressure difference Time.1 Pressure.1 difference.1
(hr) (psi) (hr) (psi)
0.000200000000020850166 0.53187862907922567 0.000200000000020850166 0.42829377328771623
0.000399999999999067768 1.02039242296697230 0.000399999999999067768 0.98126314973379347
0.000600000000019917934 1.48383513101989517 0.000600000000019917934 1.37858181712010253
0.000799999999998135536 1.92851150574916708 0.000799999999998135536 1.75952141388174055
0.001007140329434719206 2.37305292807735624 0.001007140329434719206 2.13865553287440679
0.001267914553977789183 2.91338854547087012 0.001267914553977789183 2.59474731925924251
0.001596209851982166583 3.56796260790721043 0.001596209851982166583 3.13721686511789599
0.002009509145224797066 4.35810653737037335 0.002009509145224797066 3.77920516169937981
0.002529822128153114136 5.30831487534764879 0.002529822128153114136 4.53502930264660176
0.003184857364431081805 6.44651031013963038 0.003184857364431081805 5.42012570728371568
0.004009497869034817086 7.80429319135939981 0.004009497869034817086 6.45098041584520487
0.005047658755856332391 9.41717404871183383 0.005047658755856332391 7.64506326663256708
0.006354625877790454069 11.32479221578149087 0.006354625877790454069 9.02078874525733099
0.008000000000009777068 13.57112950176295740 0.008000000000009777068 10.59753074491931990
0.010071403294361402914 16.20473445910954524 0.010071403294361402914 12.39571989791687123
0.012679145539692626699 19.27897925443790328 0.012679145539692626699 14.43704757452556819
0.015962098519750611558 22.85237559559731935 0.015962098519750611558 16.74478473715697291
0.020095091452091651263 26.98897522444314134 0.020095091452091651263 19.34419664207386802
0.025298221281360611101 31.75887229857537619 0.025298221281360611101 22.26302515273885518
0.031848573644296607199 37.23881964022660895 0.031848573644296607199 25.53208128106431474
0.040094978690191851456 43.51299504879537494 0.040094978690191851456 29.18613405346000889
0.050476587558435426217 50.67401425698614759 0.050476587558435426217 33.26524970373634460
0.063546258777947173257 58.82429604638391396 0.063546258777947173257 37.81612967551291149
0.080000000000012505552 68.07766601501278103 0.080000000000012505552 42.89186135457338622
0.100714032943542974863 78.56057164811198845 0.100714032943542974863 48.54785604025864387
0.126791455396883634421 90.41176815960140800 0.126791455396883634421 54.83277557926381007
0.159620985197506115583 103.77929449391400851 0.159620985197506115583 61.77631850449273543
0.200950914520774404082 118.81445957404409342 0.200950914520774404082 69.37873029263728597
0.252982212813464002465 135.66389613629223732 0.252982212813464002465 77.60816095356562982
0.318485736442809752589 154.46221472760473148 0.318485736442809752589 86.40397347956631791
0.400949786901833249431 175.32543641941757073 0.400949786901833249431 95.69769979967078655
0.504765875584169521062 198.35308140005818700 0.504765875584169521062 105.42531775622154555
0.635462587779443310865 223.62698656188368318 0.635462587779443310865 115.54266368274024046
0.800000000000011368684 251.22009082753874054 0.800000000000011368684 126.04604953030857928
1.007140329435344483500 281.20418309121231459 1.007140329435344483500 136.99790473747324882
1.267914553968907398485 313.66959630186971708 1.267914553968907398485 148.42687130068864576
1.596209851975117999245 348.68650871650976342 1.596209851975117999245 160.52910326246777117
2.009509145207687197399 386.41436593386754339 2.009509145207687197399 173.41109419089815447
2.529822128134725289783 426.94541670211185647 2.529822128134725289783 187.29748740782090977
3.184857364427983839050 470.50371647100558903 3.184857364427983839050 202.49385274000368895
4.009497869018204596614 517.27065369185322652 4.009497869018204596614 219.11397811231896071
5.009497869018190385759 565.74847968932681397 5.009497869018190385759 236.65880022140663641
6.009497869018190385759 607.85970416141071837 6.009497869018190385759 252.07329338932430574
7.009497869018204596614 645.26075706155188527 7.009497869018204596614 265.82098673246395037
8.009497869018190385759 678.98983472399822858 8.009497869018190385759 278.15949202076637903
9.009497869018204596614 709.74769701600212102 9.009497869018204596614 289.31609583634730143
10.009497869018190385759 738.03506863439667995 10.009497869018190385759 299.43722697904837560
11.009497869018190385759 764.22558898818454054 11.009497869018190385759 308.57493640689204994
12.009497869018204596614 788.60792261389440228 12.009497869018204596614 316.93055358468183158
13.009497869018190385759 811.41006563349958469 13.009497869018190385759 324.59043720291253976
14.009497869018204596614 832.81856657543005440 14.009497869018204596614 331.61800801948379558
15.009497869018190385759 852.98392056251543636 15.009497869018190385759 338.08853908042345893
16.009497869018190385759 872.03099675824955739 16.009497869018190385759 344.06750092465574653
17.009497869018204596614 890.06908912344397322 17.009497869018204596614 349.61588418528316424
18.009497869018190385759 907.19280547148957794 18.009497869018190385759 354.79666610226092871
19.009497869018204596614 923.48256220258929261 19.009497869018204596614 359.62601723960784739
20.009497869018190385759 939.01092626906711303 20.009497869018190385759 364.12794347307965381
21.009497869018190385759 953.83735109491419735 21.009497869018190385759 368.32471452023139591
22.009497869018204596614 968.01271167078141389 22.009497869018204596614 372.25288874914753023
23.009497869018190385759 981.58351954710326481 23.009497869018190385759 375.92594199000217259
24.009497869018204596614 994.59276923940910820 24.009497869018204596614 379.38289040175493483
25.009497869018204596614 1007.08077216125718678 25.009497869018204596614 382.64190941560809733
26.009497869018190385759 1019.08301125478078575 26.009497869018190385759 385.72210681595186088
27.009497869018204596614 1030.63185323004859129 27.009497869018204596614 388.64434462239591994
28.009497869018190385759 1041.75540886084695558 28.009497869018190385759 391.41553369049455569
29.009497869018190385759 1052.47889232991042263 29.009497869018190385759 394.02406153353263107
30.009497869018190385759 1062.82570217406419033 30.009497869018190385759 396.52248158728798444
31.009497869018218807469 1072.81727237429549859 31.009497869018218807469 398.89288435972918023
32.009497869018190385759 1082.47334565647338422 32.009497869018190385759 401.14488057200622961
33.009497869018190385759 1091.81219365368292529 33.009497869018190385759 403.27514115393535121
34.009497869018218807469 1100.85138467002025209 34.009497869018218807469 405.32793958281985169
35.009497869018190385759 1109.60657044586400843 35.009497869018190385759 407.28448205509090485
36.009497869018190385759 1118.09221965744336558 36.009497869018190385759 409.17026168208514036
37.009497869018190385759 1126.32173524947052101 37.009497869018190385759 410.98357965757202237
38.009497869018218807469 1134.30788184321318113 38.009497869018218807469 412.73246827059637099
39.009497869018190385759 1142.06233783445077279 39.009497869018190385759 414.42913488470617267
40.009497869018190385759 1149.59603935447012191 40.009497869018190385759 416.06827297857751091
41.009497869018218807469 1156.91948862737967829 41.009497869018218807469 417.64849697497044190
42.009497869018190385759 1164.04230110028811396 42.009497869018190385759 419.16409209944760050
43.009497869018190385759 1170.97351392040468454 43.009497869018190385759 420.64661907178572164
44.009497869018218807469 1177.72186732769114315 44.009497869018218807469 422.04550030298321417
46.009497869018190385759 1190.70258708444862350 46.009497869018190385759 424.73194248626771241
48.009497869018218807469 1203.04042562685253870 48.009497869018218807469 427.22363057143172682
50.009497869018190385759 1214.78004593600621774 50.009497869018190385759 429.44283758536090545
52.009497869018190385759 1225.96583981513504114 52.009497869018190385759 431.45625773225941657
54.009497869018218807469 1236.63995534634159412 54.009497869018218807469 433.29246964496104511
56.009497869018190385759 1246.83577911998258969 56.009497869018190385759 434.97079291281585256
58.009497869018218807469 1256.58241047901992715 58.009497869018218807469 436.55773656606834265
60.009497869018190385759 1265.90856047809279517 60.009497869018190385759 438.16105215650082982
62.009497869018190385759 1274.83841246135898473 62.009497869018190385759 439.72701559050932474
64.009497869018218807469 1283.39719948895822199 64.009497869018218807469 441.25534663341477426
66.009497869018190385759 1291.61862789834322029 66.009497869018190385759 442.89953104629643121
68.009497869018190385759 1299.53181924871250885 68.009497869018190385759 444.57753906761791995
70.009497869018190385759 1307.15436227946997860 70.009497869018190385759 446.02127599661105251
72.009497869018190385759 1314.50453092009729517 72.009497869018190385759 447.20638830128461905
74.009497869018218807469 1321.59924990607737527 74.009497869018218807469 448.32666716421533692
76.009497869018190385759 1328.45212519253823302 76.009497869018190385759 449.38529469729644461
78.009497869018190385759 1335.08058325720708126 78.009497869018190385759 450.58004355434513855
80.009497869018218807469 1341.49543585654964772 80.009497869018218807469 451.46627943042471998
82.009497869018190385759 1347.69661533249109198 82.009497869018190385759 452.47395426220441550
84.009497869018218807469 1353.68713875309140349 84.009497869018218807469 453.35220921507163894
86.009497869018190385759 1359.47195343099656384 86.009497869018190385759 453.84840271136386036
88.009497869018190385759 1365.06499573664245872 88.009497869018190385759 454.44836397951587514
91.009497869018218807469 1373.10791439823924520 91.009497869018218807469 455.15468229054954463
94.009497869018218807469 1380.76229033391450685 94.009497869018218807469 456.17549663934994442
97.009497869018218807469 1388.08053651768182135 97.009497869018218807469 457.76449835945049927
99.504748934509137825444 1393.94936254363301487 99.504748934509137825444 458.09265180290788066
nan nan nan nan

