Time Pressure difference Time.1 Pressure.1 difference.1
(hr) (psi) (hr) (psi)
0.000200000000020850166 0.54758812445287364 0.000200000000020850166 0.44094380034684710
0.000399999999999067768 1.05053059579722063 0.000399999999999067768 1.01024560563310373
0.000600000000019917934 1.52766148510065158 0.000600000000019917934 1.41929942353293259
0.000799999999998135536 1.98547176119323554 0.000799999999998135536 1.81149040078964019
0.001007140329434719206 2.44314309894883941 0.001007140329434719206 2.20182257392976855
0.001267914553977789183 2.99943799618097984 0.001267914553977789183 2.67138542573525406
0.001596209851982166583 3.67334546974413234 0.001596209851982166583 3.22987727885555520
0.002009509145224797066 4.48682698362181842 0.002009509145224797066 3.89082725508290572
0.002529822128153114136 5.46510054677141976 0.002529822128153114136 4.66897531580494007
0.003184857364431081805 6.63691356824502066 0.003184857364431081805 5.58021380834272840
0.004009497869034817086 8.03479974131516350 0.004009497869034817086 6.64151570238915578
0.005047658755856332391 9.69531842989741577 0.005047658755856332391 7.87086682303099749
0.006354625877790454069 11.65927974958094460 0.006354625877790454069 9.28722554364046005
0.008000000000009777068 13.97196455033823526 0.008000000000009777068 10.91053798211102688
0.010071403294361402914 16.68335530811278034 0.010071403294361402914 12.76183820713804629
0.012679145539692626699 19.84840058262805229 0.012679145539692626699 14.86345826238075318
0.015962098519750611558 23.52734027563606034 0.015962098519750611558 17.23935643825443620
0.020095091452091651263 27.78611795259125117 0.020095091452091651263 19.91554422221950915
0.025298221281360611101 32.69689806266831056 0.025298221281360611101 22.92058285767206982
0.031848573644296607199 38.33870038909406475 0.031848573644296607199 26.28619338641220793
0.040094978690191851456 44.79818899538426535 0.040094978690191851456 30.04817176811916468
0.050476587558435426217 52.17071510001949264 0.050476587558435426217 34.24776762747539749
0.063546258777947173257 60.56172251188892375 0.063546258777947173257 38.93306177563354709
0.080000000000012505552 70.08839876651103395 0.080000000000012505552 44.15870958023588599
0.100714032943542974863 80.88092608497606761 0.100714032943542974863 49.98175896127894191
0.126791455396883634421 93.08215793646728287 0.126791455396883634421 56.45230903519142629
0.159620985197506115583 106.84450572369206611 0.159620985197506115583 63.60093550673514784
0.200950914520774404082 122.32374740956436199 0.200950914520774404082 71.42789110296833144
0.252982212813464002465 139.67084665508568264 0.252982212813464002465 79.90038511675112431
0.318485736442809752589 159.02438984614155970 0.318485736442809752589 88.95598957389950101
0.400949786901833249431 180.50382483686874480 0.400949786901833249431 98.52421413974545317
0.504765875584169521062 204.21161123043964380 0.504765875584169521062 108.53914570682724161
0.635462587779443310865 230.23200304261445126 0.635462587779443310865 118.95531619657644740
0.800000000000011368684 258.64009351020865779 0.800000000000011368684 129.76892863035988057
1.007140329435344483500 289.50979187449706842 1.007140329435344483500 141.04425635419187302
1.267914553968907398485 322.93409914622878887 1.267914553968907398485 152.81078733066678410
1.596209851975117999245 358.98526635792569550 1.596209851975117999245 165.27046918161241251
2.009509145207687197399 397.82744847199865035 2.009509145207687197399 178.53294085476434816
2.529822128134725289783 439.55561888318686670 2.529822128134725289783 192.82948070678608588
3.184857364427983839050 484.40045071276523458 3.184857364427983839050 208.47468383359029076
4.009497869018204596614 532.54868987684471904 4.009497869018204596614 225.58569898483472116
5.009497869018190385759 582.45835039745031736 5.009497869018190385759 243.64872259081528227
6.009497869018190385759 625.81336630963801326 6.009497869018190385759 259.51849614765882279
7.009497869018204596614 664.31909165830643360 7.009497869018204596614 273.67223950515273145
8.009497869018190385759 699.04438680445400678 8.009497869018190385759 286.37517321969198747
9.009497869018204596614 730.71070916415408192 9.009497869018204596614 297.86129697919301407
10.009497869018190385759 759.83357277127765883 10.009497869018190385759 308.28136448475862608
11.009497869018190385759 786.79765279796208688 11.009497869018190385759 317.68896406447959180
12.009497869018204596614 811.90013973751149479 12.009497869018204596614 326.29137162304795083
13.009497869018190385759 835.37576377457355647 13.009497869018190385759 334.17749652958087836
14.009497869018204596614 857.41658330972541080 14.009497869018204596614 341.41263272892001623
15.009497869018190385759 878.17753846942525797 15.009497869018190385759 348.07427652161743481
16.009497869018190385759 897.78718653591943166 16.009497869018190385759 354.22983217559493596
17.009497869018204596614 916.35804956168919944 17.009497869018204596614 359.94209173505947774
18.009497869018190385759 933.98752968372764371 18.009497869018190385759 365.27589252722225410
19.009497869018204596614 950.75841847017636610 19.009497869018204596614 370.24788272769751529
20.009497869018190385759 966.74542620106501545 20.009497869018190385759 374.88277724654619760
21.009497869018190385759 982.00976230868820949 21.009497869018190385759 379.20350355669387454
22.009497869018204596614 996.60380442055134154 22.009497869018204596614 383.24769980924895663
23.009497869018190385759 1010.57543784596271053 23.009497869018190385759 387.02923985468578394
24.009497869018204596614 1023.96892698065755667 24.009497869018204596614 390.58829222796708791
25.009497869018204596614 1036.82577387066157826 25.009497869018204596614 393.94356918737707929
26.009497869018190385759 1049.18250947749584157 26.009497869018190385759 397.11474288224576412
27.009497869018204596614 1061.07245649000788035 27.009497869018204596614 400.12329150997720717
28.009497869018190385759 1072.52455595800279298 28.009497869018190385759 402.97633004422226577
29.009497869018190385759 1083.56476678691183224 29.009497869018190385759 405.66190301342601288
30.009497869018190385759 1094.21717860958506208 30.009497869018190385759 408.23411606454965295
31.009497869018218807469 1104.50385847817756257 31.009497869018218807469 410.67453073322332102
32.009497869018190385759 1114.44513223704416305 32.009497869018190385759 412.99304160155918453
33.009497869018190385759 1124.05981118775798677 33.009497869018190385759 415.18622127240598729
34.009497869018218807469 1133.36598252947237597 34.009497869018218807469 417.29965087851502403
35.009497869018190385759 1142.37976029025662683 35.009497869018190385759 419.31398152507244959
36.009497869018190385759 1151.11604049120751370 36.009497869018190385759 421.25545928450958399
37.009497869018190385759 1159.58862194460266437 37.009497869018190385759 423.12233517488431289
38.009497869018218807469 1167.81064628583976628 38.009497869018218807469 424.92287872584603292
39.009497869018190385759 1175.79413684221935910 39.009497869018190385759 426.66965785598438288
40.009497869018190385759 1183.55035275312548038 40.009497869018190385759 428.35720931127809763
41.009497869018218807469 1191.09010643493934367 41.009497869018218807469 429.98410659026495750
42.009497869018190385759 1198.42329733531778402 42.009497869018190385759 431.54446612770129832
43.009497869018190385759 1205.55922952142941540 43.009497869018190385759 433.07078081652196033
44.009497869018218807469 1212.50690138378331540 44.009497869018218807469 434.51097921488570819
46.009497869018190385759 1225.87101792660519095 46.009497869018190385759 437.27676779176925947
48.009497869018218807469 1238.57326520232913936 48.009497869018218807469 439.84205003978621562
50.009497869018190385759 1250.65962535183780346 50.009497869018190385759 442.12680325243906054
52.009497869018190385759 1262.17580132866214626 52.009497869018190385759 444.19969150494222276
54.009497869018218807469 1273.16518609496756653 54.009497869018218807469 446.09013752476994341
56.009497869018190385759 1283.66215234293576941 56.009497869018190385759 447.81803152205509377
58.009497869018218807469 1293.69665888979261581 58.009497869018218807469 449.45184692877921862
60.009497869018190385759 1303.29826479601092615 60.009497869018190385759 451.10251783200931186
62.009497869018190385759 1312.49186768173649398 62.009497869018190385759 452.71473335056657561
64.009497869018218807469 1321.30344588736625155 64.009497869018218807469 454.28820497279832580
66.009497869018190385759 1329.76770129618466854 66.009497869018190385759 455.98095179449933312
68.009497869018190385759 1337.91461559783078883 68.009497869018190385759 457.70852123417205348
70.009497869018190385759 1345.76229703034027807 70.009497869018190385759 459.19490018216492899
72.009497869018190385759 1353.32955925950955134 72.009497869018190385759 460.41501580385420311
74.009497869018218807469 1360.63382690752268900 74.009497869018218807469 461.56838307201911675
76.009497869018190385759 1367.68910779316161097 76.009497869018190385759 462.65827808498028162
78.009497869018190385759 1374.51334310024685692 78.009497869018190385759 463.88831488295454619
80.009497869018218807469 1381.11766391982314417 80.009497869018218807469 464.80072650220944297
82.009497869018190385759 1387.50200059547614728 82.009497869018190385759 465.83816388176325063
84.009497869018218807469 1393.66945930698011580 84.009497869018218807469 466.74235885433535032
86.009497869018190385759 1399.62513349013966035 86.009497869018190385759 467.25320785473752494
88.009497869018190385759 1405.38337113814645818 88.009497869018190385759 467.87088949789819026
91.009497869018218807469 1413.66384435936879527 91.009497869018218807469 468.59806953119863238
94.009497869018218807469 1421.54429890917776902 94.009497869018218807469 469.64903451477380258
97.009497869018218807469 1429.07869582411126430 97.009497869018218807469 471.28496877513049412
99.504748934509137825444 1435.12086270314944159 99.504748934509137825444 471.62281451438622071
nan nan nan nan

