Time Pressure difference Time.1 Pressure.1 difference.1
(hr) (psi) (hr) (psi)
0.000200000000020850166 0.48624628537481956 0.000200000000020850166 0.39154845659214566
0.000399999999999067768 0.93284820665053725 0.000399999999999067768 0.89707601593103481
0.000600000000019917934 1.35653000726150763 0.000600000000019917934 1.26030686515902479
0.000799999999998135536 1.76305552564973111 0.000799999999998135536 1.60856388048260412
0.001007140329434719206 2.16945766983161947 0.001007140329434719206 1.95517031838025934
0.001267914553977789183 2.66343537912245498 0.001267914553977789183 2.37213186711463830
0.001596209851982166583 3.26185048542853240 0.001596209851982166583 2.86806042521326621
0.002009509145224797066 3.98420428873522114 0.002009509145224797066 3.45496955710913767
0.002529822128153114136 4.85288982978336403 0.002529822128153114136 4.14594802632952408
0.003184857364431081805 5.89343417945254444 0.003184857364431081805 4.95510788992182150
0.004009497869034817086 7.13472654624980329 0.004009497869034817086 5.89752077397944152
0.005047658755856332391 8.60923084622038282 0.005047658755856332391 6.98915769804665121
0.006354625877790454069 10.35318556998307926 0.006354625877790454069 8.24685328328729383
0.008000000000009777068 12.40679912256810447 0.008000000000009777068 9.68831924641006559
0.010071403294361402914 14.81445485010014451 0.010071403294361402914 11.33223338065536900
0.012679145539692626699 17.62494587255223522 0.012679145539692626699 13.19842605266050306
0.015962098519750611558 20.89176390596097832 0.015962098519750611558 15.30817170063576960
0.020095091452091651263 24.67346539506053915 0.020095091452091651263 17.68456795688890892
0.025298221281360611101 29.03413079335301106 0.025298221281360611101 20.35297658126618359
0.031848573644296607199 34.04392794113543630 0.031848573644296607199 23.34156516552996408
0.040094978690191851456 39.77981263251335520 0.040094978690191851456 26.68211973945007642
0.050476587558435426217 46.32645466531786127 0.050476587558435426217 30.41126906811339836
0.063546258777947173257 53.77748583705983521 0.063546258777947173257 34.57170786087678493
0.080000000000012505552 62.23696611780352583 0.080000000000012505552 39.21196888955372373
0.100714032943542974863 71.82049447436398282 0.100714032943542974863 44.38270946015206420
0.126791455396883634421 82.65492166489579517 0.126791455396883634421 50.12841649299785729
0.159620985197506115583 94.87558568360633160 0.159620985197506115583 56.47624054559814510
0.200950914520774404082 108.62081395658039185 0.200950914520774404082 63.42640603405659050
0.252982212813464002465 124.02465891503508999 0.252982212813464002465 70.94979552716969806
0.318485736442809752589 141.21018224042626343 0.318485736442809752589 78.99097434840803089
0.400949786901833249431 160.28345101634516823 0.400949786901833249431 87.48734862135866308
0.504765875584169521062 181.33544713085487388 0.504765875584169521062 96.38038894731926121
0.635462587779443310865 204.44098630833246943 0.635462587779443310865 105.62972066635886392
0.800000000000011368684 229.66674970168801906 0.800000000000011368684 115.23197214444525116
1.007140329435344483500 257.07836710167089223 1.007140329435344483500 125.24421670795724992
1.267914553968907398485 286.75842137301731327 1.267914553968907398485 135.69263902313306858
1.596209851975117999245 318.77106985334933142 1.596209851975117999245 146.75656416400011040
2.009509145207687197399 353.26207856120095130 2.009509145207687197399 158.53334911966777554
2.529822128134725289783 390.31578179517958915 2.529822128134725289783 171.22836401558873831
3.184857364427983839050 430.13701224494178632 3.184857364427983839050 185.12096242053780770
4.009497869018204596614 472.89159620211620449 4.009497869018204596614 200.31516986358275290
5.009497869018190385759 517.21028382287261138 5.009497869018190385759 216.35474000550536289
6.009497869018190385759 555.70859030227427411 6.009497869018190385759 230.44675204368607524
7.009497869018204596614 589.90083275669292107 7.009497869018204596614 243.01496677370121802
8.009497869018190385759 620.73613582362713714 8.009497869018190385759 254.29489425245867551
9.009497869018204596614 648.85513791898938507 9.009497869018204596614 264.49432108808122166
10.009497869018190385759 674.71560423679022733 10.009497869018190385759 273.74711327198514255
11.009497869018190385759 698.65911792168765260 11.009497869018190385759 282.10085606818540782
12.009497869018204596614 720.94957763576849175 12.009497869018204596614 289.73960594942786884
13.009497869018190385759 741.79541865228520692 13.009497869018190385759 296.74231249211413797
14.009497869018204596614 761.36718463295289894 14.009497869018204596614 303.16695529207373738
15.009497869018190385759 779.80245902339675013 15.009497869018190385759 309.08234937028868217
16.009497869018190385759 797.21539788025631879 16.009497869018190385759 314.54834824335614485
17.009497869018204596614 813.70591832663649257 17.009497869018204596614 319.62070987402825040
18.009497869018190385759 829.36051133117882728 18.009497869018190385759 324.35700839165912157
19.009497869018204596614 844.25269399674130000 19.009497869018204596614 328.77202701229975901
20.009497869018190385759 858.44880741897839016 20.009497869018190385759 332.88771203586748015
21.009497869018190385759 872.00320423585685603 21.009497869018190385759 336.72442255717351145
22.009497869018204596614 884.96239463573556350 22.009497869018204596614 340.31558043171014560
23.009497869018190385759 897.36889972660628700 23.009497869018190385759 343.67350533544498603
24.009497869018204596614 909.26202532435434023 24.009497869018204596614 346.83386604942438680
25.009497869018204596614 920.67862433870209316 25.009497869018204596614 349.81327864999332178
26.009497869018190385759 931.65113546498946562 26.009497869018190385759 352.62921157576471387
27.009497869018204596614 942.20914852254804828 27.009497869018204596614 355.30073699656446706
28.009497869018190385759 952.37836253101340844 28.009497869018190385759 357.83417285347604775
29.009497869018190385759 962.18182843100100854 29.009497869018190385759 360.21890294908047281
30.009497869018190385759 971.64093728993191235 30.009497869018190385759 362.50297191524219897
31.009497869018218807469 980.77528416778079645 31.009497869018218807469 364.67000679862724155
32.009497869018190385759 989.60291797005299941 32.009497869018190385759 366.72879377187632599
33.009497869018190385759 998.14054272136979762 33.009497869018190385759 368.67628938123482385
34.009497869018218807469 1006.40421945923094427 34.009497869018218807469 370.55296867627697566
35.009497869018190385759 1014.40825708834256602 35.009497869018190385759 372.34165026133484844
36.009497869018190385759 1022.16588294984262575 36.009497869018190385759 374.06564007504266556
37.009497869018190385759 1029.68935008742028003 37.009497869018190385759 375.72338505966501998
38.009497869018218807469 1036.99032798605981043 38.009497869018218807469 377.32222837677585403
39.009497869018190385759 1044.07949309759919743 39.009497869018190385759 378.87333006337416919
40.009497869018190385759 1050.96684329170966521 40.009497869018190385759 380.37183886930432664
41.009497869018218807469 1057.66197975780141860 41.009497869018218807469 381.81648809244836684
42.009497869018190385759 1064.17369298901166985 42.009497869018190385759 383.20205325547254915
43.009497869018190385759 1070.51024479361899466 43.009497869018190385759 384.55738733707556776
44.009497869018218807469 1076.67962554570931388 44.009497869018218807469 385.83625203507608603
46.009497869018190385759 1088.54666892389832356 46.009497869018190385759 388.29221183695358377
48.009497869018218807469 1099.82598685999187182 48.009497869018218807469 390.57012640144949955
50.009497869018190385759 1110.55841049001969623 50.009497869018190385759 392.59893731432435970
52.009497869018190385759 1120.78452303774656684 52.009497869018190385759 394.43961677351427397
54.009497869018218807469 1130.54285650509427796 54.009497869018218807469 396.11829151789686421
56.009497869018190385759 1139.86393309140453312 56.009497869018190385759 397.65262361931121404
58.009497869018218807469 1148.77435557153694390 58.009497869018218807469 399.10341598867006496
60.009497869018190385759 1157.30037174509175202 60.009497869018190385759 400.56917567050004436
62.009497869018190385759 1165.46409015454742075 62.009497869018190385759 402.00078781129542449
64.009497869018218807469 1173.28857899834451928 64.009497869018218807469 403.39799621901488536
66.009497869018190385759 1180.80465279032796388 66.009497869018190385759 404.90111839675489591
68.009497869018190385759 1188.03893461555981048 68.009497869018190385759 406.43516229810359164
70.009497869018190385759 1195.00750419360815613 70.009497869018190385759 407.75503431476397509
72.009497869018190385759 1201.72706764847157501 72.009497869018190385759 408.83847031763008317
74.009497869018218807469 1208.21309766378385575 74.009497869018218807469 409.86263524154708193
76.009497869018190385759 1214.47803287644114789 76.009497869018190385759 410.83043819021474974
78.009497869018190385759 1220.53780466551984318 78.009497869018190385759 411.92268398076561198
80.009497869018218807469 1226.40229719656417728 80.009497869018218807469 412.73288555524061394
82.009497869018190385759 1232.07144861620167831 82.009497869018190385759 413.65410727205750163
84.009497869018218807469 1237.54801714417612857 84.009497869018218807469 414.45701264387702167
86.009497869018190385759 1242.83652564015142161 86.009497869018190385759 414.91063539013572381
88.009497869018190385759 1247.94971480846334089 88.009497869018190385759 415.45912318802430718
91.009497869018218807469 1255.30259403495870174 91.009497869018218807469 416.10484316294963492
94.009497869018218807469 1262.30026542481618890 94.009497869018218807469 417.03807709645218438
97.009497869018218807469 1268.99064519900593950 97.009497869018218807469 418.49075096152296283
99.504748934509137825444 1274.35595731837042877 99.504748934509137825444 418.79075059337577613
nan nan nan nan

