Time Pressure difference Time.1 Pressure.1 difference.1
(hr) (psi) (hr) (psi)
0.000200000000020850166 0.33887625734583576 0.000200000000020850166 0.27287915513267996
0.000399999999999067768 0.65012344248106679 0.000399999999999067768 0.62519297725655198
0.000600000000019917934 0.94539706659917366 0.000600000000019917934 0.87833693833390503
0.000799999999998135536 1.22871408172204344 0.000799999999998135536 1.12104528901326117
0.001007140329434719206 1.51194511451342106 0.001007140329434719206 1.36260331419424219
0.001267914553977789183 1.85620957960380339 0.001267914553977789183 1.65319343969681709
0.001596209851982166583 2.27325887676788518 0.001596209851982166583 1.99881749634093797
0.002009509145224797066 2.77668391199546960 0.002009509145224797066 2.40784801441606078
0.002529822128153114136 3.38209091214132895 0.002529822128153114136 2.88940685527272967
0.003184857364431081805 4.10727028198769695 0.003184857364431081805 3.45332903713013106
0.004009497869034817086 4.97235557761717040 0.004009497869034817086 4.11011832401951871
0.005047658755856332391 5.99997165128897425 0.005047658755856332391 4.87090528802328127
0.006354625877790454069 7.21537394338820803 0.006354625877790454069 5.74742236512176063
0.008000000000009777068 8.64658461926669375 0.008000000000009777068 6.75201325942116881
0.010071403294361402914 10.32453545706979448 0.010071403294361402914 7.89769495605674088
0.012679145539692626699 12.28323150810178710 0.012679145539692626699 9.19828769516185929
0.015962098519750611558 14.55995238369280642 0.015962098519750611558 10.66861812367385198
0.020095091452091651263 17.19550742148064870 0.020095091452091651263 12.32478351457027088
0.025298221281360611101 20.23455576829063673 0.025298221281360611101 14.18445906355935549
0.031848573644296607199 23.72599901128361921 0.031848573644296607199 16.26727541536165234
0.040094978690191851456 27.72346941927468933 0.040094978690191851456 18.59538498764751679
0.050476587558435426217 32.28597532829075334 0.050476587558435426217 21.19431521208518276
0.063546258777947173257 37.47877089875093048 0.063546258777947173257 24.09382101688797562
0.080000000000012505552 43.37437792517690838 0.080000000000012505552 27.32772601071975060
0.100714032943542974863 50.05335999521059165 0.100714032943542974863 30.93133443915213121
0.126791455396883634421 57.60412232953507328 0.126791455396883634421 34.93565026358158576
0.159620985197506115583 66.12098509949795755 0.159620985197506115583 39.35959533408608735
0.200950914520774404082 75.70035188050910335 0.200950914520774404082 44.20332605142713334
0.252982212813464002465 86.43564690540138429 0.252982212813464002465 49.44654980585827531
0.318485736442809752589 98.41263469986630241 0.318485736442809752589 55.05063289204436217
0.400949786901833249431 111.70523586216056344 0.400949786901833249431 60.97195219303919345
0.504765875584169521062 126.37685776965730611 0.504765875584169521062 67.16971722020866764
0.635462587779443310865 142.47964122719170632 0.635462587779443310865 73.61578994132395337
0.800000000000011368684 160.06005786902258592 0.800000000000011368684 80.30782058682108016
1.007140329435344483500 179.16384661085680818 1.007140329435344483500 87.28558487493020834
1.267914553968907398485 199.84856135688747258 1.267914553968907398485 94.56733150381428743
1.596209851975117999245 222.15891483625730984 1.596209851975117999245 102.27803625583391067
2.009509145207687197399 246.19649475111390302 2.009509145207687197399 110.48554946339923788
2.529822128134725289783 272.02007562033281829 2.529822128134725289783 119.33299830624875426
3.184857364427983839050 299.77241007224404257 3.184857364427983839050 129.01507073308249574
4.009497869018204596614 329.56906627624408657 4.009497869018204596614 139.60426453569689897
5.009497869018190385759 360.45578241809425890 5.009497869018190385759 150.78261111152909280
6.009497869018190385759 387.28614062604646051 6.009497869018190385759 160.60365950121507694
7.009497869018204596614 411.11550344427979553 7.009497869018204596614 169.36273838228717636
8.009497869018190385759 432.60533773554323034 8.009497869018190385759 177.22398014825196810
9.009497869018204596614 452.20211919584949101 9.009497869018204596614 184.33219608138585954
10.009497869018190385759 470.22487495271690250 10.009497869018190385759 190.78068048032193360
11.009497869018190385759 486.91166218234542384 11.009497869018190385759 196.60259661367385320
12.009497869018204596614 502.44639795231256585 12.009497869018204596614 201.92621768475510180
13.009497869018190385759 516.97434561459260749 13.009497869018190385759 206.80656547527343037
14.009497869018204596614 530.61436098265789951 14.009497869018204596614 211.28404730355293850
15.009497869018190385759 543.46232913476728754 15.009497869018190385759 215.40662194575503463
16.009497869018190385759 555.59780806116327767 16.009497869018190385759 219.21600269883131773
17.009497869018204596614 567.09043231071746050 17.009497869018204596614 222.75104857374580547
18.009497869018190385759 578.00047943542153916 18.009497869018190385759 226.05188430987934112
19.009497869018204596614 588.37918520080586404 19.009497869018204596614 229.12881267164888754
20.009497869018190385759 598.27278424738028662 20.009497869018190385759 231.99712854191994893
21.009497869018190385759 607.71915618283571803 21.009497869018190385759 234.67102064369171899
22.009497869018204596614 616.75071503075116652 22.009497869018204596614 237.17378143933029833
23.009497869018190385759 625.39709473254242766 23.009497869018190385759 239.51399679531783704
24.009497869018204596614 633.68568841835769945 24.009497869018204596614 241.71652510829113680
25.009497869018204596614 641.64217973143388463 25.009497869018204596614 243.79294650530300714
26.009497869018190385759 649.28917594713880135 26.009497869018190385759 245.75543514434065173
27.009497869018204596614 656.64729889340651425 27.009497869018204596614 247.61728286068262150
28.009497869018190385759 663.73445881007546632 28.009497869018190385759 249.38289277326865090
29.009497869018190385759 670.56672042960531144 29.009497869018190385759 251.04486620912842909
30.009497869018190385759 677.15899168052180812 30.009497869018190385759 252.63668658093035901
31.009497869018218807469 683.52492881231489719 31.009497869018218807469 254.14694319965863656
32.009497869018190385759 689.67711052374454539 32.009497869018190385759 255.58175935178456939
33.009497869018190385759 695.62717823504704029 33.009497869018190385759 256.93901398415289350
34.009497869018218807469 701.38632525389471084 34.009497869018218807469 258.24691509285145230
35.009497869018190385759 706.96452378618334933 35.009497869018190385759 259.49348856674572517
36.009497869018190385759 712.37099227119801981 36.009497869018190385759 260.69497685229896433
37.009497869018190385759 717.61427013784839346 37.009497869018190385759 261.85029758773578124
38.009497869018218807469 722.70249011951557350 38.009497869018218807469 262.96456839181456644
39.009497869018190385759 727.64309288186518643 39.009497869018190385759 264.04556695185920034
40.009497869018190385759 732.44304617099146526 40.009497869018190385759 265.08991231968440161
41.009497869018218807469 737.10904127736012015 41.009497869018218807469 266.09672170135246461
42.009497869018190385759 741.64720449849585293 42.009497869018190385759 267.06235403804470252
43.009497869018190385759 746.06329367924524831 43.009497869018190385759 268.00691763645420451
44.009497869018218807469 750.36287749570192318 44.009497869018218807469 268.89818795675301999
46.009497869018190385759 758.63329388080899207 46.009497869018190385759 270.60980301867687103
48.009497869018218807469 766.49411084242501602 48.009497869018218807469 272.19733424593329119
50.009497869018190385759 773.97378454150612015 50.009497869018190385759 273.61125938982911521
52.009497869018190385759 781.10059836322943738 52.009497869018190385759 274.89407138215688065
54.009497869018218807469 787.90140614893493876 54.009497869018218807469 276.06397855016507492
56.009497869018190385759 794.39747952370191797 56.009497869018190385759 277.13328999930462260
58.009497869018218807469 800.60735857524036874 58.009497869018218807469 278.14438068133466686
60.009497869018190385759 806.54933600081017175 60.009497869018190385759 279.16590242882540451
62.009497869018190385759 812.23881975386154863 62.009497869018190385759 280.16362596694898457
64.009497869018218807469 817.69188659423082299 64.009497869018218807469 281.13737274955963130
66.009497869018190385759 822.93001186772085020 66.009497869018190385759 282.18493328266146136
68.009497869018190385759 827.97174981669024874 68.009497869018190385759 283.25404387852449872
70.009497869018190385759 832.82830676877620135 70.009497869018190385759 284.17389314552008273
72.009497869018190385759 837.51132560731934973 72.009497869018190385759 284.92896469828679074
74.009497869018218807469 842.03158960260634558 74.009497869018218807469 285.64272886833970233
76.009497869018190385759 846.39776752773525459 76.009497869018190385759 286.31721307718044045
78.009497869018190385759 850.62096232843146026 78.009497869018190385759 287.07842437428746507
80.009497869018218807469 854.70806250775945045 80.009497869018218807469 287.64307254849848050
82.009497869018190385759 858.65902495867590005 82.009497869018190385759 288.28509322191081310
84.009497869018218807469 862.47577194817210966 84.009497869018218807469 288.84465650411738125
86.009497869018190385759 866.16145556152082463 86.009497869018190385759 289.16079666420233707
88.009497869018190385759 869.72495508959070776 88.009497869018190385759 289.54305046796156375
91.009497869018218807469 874.84934630436350744 91.009497869018218807469 289.99306761971718061
94.009497869018218807469 879.72618498067959081 94.009497869018218807469 290.64345988414277144
97.009497869018218807469 884.38886503869173339 97.009497869018218807469 291.65586182395372816
99.504748934509137825444 888.12807486957206038 99.504748934509137825444 291.86493849046030391
nan nan nan nan

