Time Pressure difference Time.1 Pressure.1 difference.1
(hr) (psi) (hr) (psi)
0.000200000000020850166 0.44809465375310298 0.000200000000020850166 0.36082696230568495
0.000399999999999067768 0.85965550120564893 0.000399999999999067768 0.82669005160413822
0.000600000000019917934 1.25009457592252771 0.000600000000019917934 1.16142124958500892
0.000799999999998135536 1.62472347671413675 0.000799999999998135536 1.48235348370627662
0.001007140329434719206 1.99923868342944644 0.001007140329434719206 1.80176464724580798
0.001267914553977789183 2.45445814168361620 0.001267914553977789183 2.18601075138718226
0.001596209851982166583 3.00592067811029384 0.001596209851982166583 2.64302799185037918
0.002009509145224797066 3.67159749069599650 0.002009509145224797066 3.18388733032057436
0.002529822128153114136 4.47212462775420772 0.002529822128153114136 3.82065056580213014
0.003184857364431081805 5.43102626691088375 0.003184857364431081805 4.56632250163564812
0.004009497869034817086 6.57492492492866543 0.004009497869034817086 5.43479222094413128
0.005047658755856332391 7.93373734905539862 0.005047658755856332391 6.44077763250760515
0.006354625877790454069 9.54085870218440668 0.006354625877790454069 7.59979248721398370
0.008000000000009777068 11.43334257602814574 0.008000000000009777068 8.92815881323019944
0.010071403294361402914 13.65208993109228786 0.010071403294361402914 10.44308891540394768
0.012679145539692626699 16.24206550409044070 0.012679145539692626699 12.16285723929791196
0.015962098519750611558 19.25256396872404352 0.015962098519750611558 14.10706899797050262
0.020095091452091651263 22.73754734098655561 0.020095091452091651263 16.29700954796377843
0.025298221281360611101 26.75606822341300628 0.025298221281360611101 18.75605072642837357
0.031848573644296607199 31.37278897960019464 0.031848573644296607199 21.51015005254222956
0.040094978690191851456 36.65862733365461423 0.040094978690191851456 24.58859957527783990
0.050476587558435426217 42.69160976080830494 0.050476587558435426217 28.02515411046142546
0.063546258777947173257 49.55802156369053080 0.063546258777947173257 31.85915847486952757
0.080000000000012505552 57.35375800702200877 0.080000000000012505552 36.13533748437335902
0.100714032943542974863 66.18534798483696591 0.100714032943542974863 40.90037379481705671
0.126791455396883634421 76.16968934965012750 0.126791455396883634421 46.19526381431648332
0.159620985197506115583 87.43150126843107728 0.159620985197506115583 52.04502782586659038
0.200950914520774404082 100.09825778460253787 0.200950914520774404082 58.44987263753830575
0.252982212813464002465 114.29349336939388593 0.252982212813464002465 65.38296541657639693
0.318485736442809752589 130.13061409540821955 0.318485736442809752589 72.79322097645601275
0.400949786901833249431 147.70736485967810836 0.400949786901833249431 80.62295665260590738
0.504765875584169521062 167.10758897135704615 0.504765875584169521062 88.81823535299113814
0.635462587779443310865 188.40023199798639553 0.635462587779443310865 97.34185027561379400
0.800000000000011368684 211.64674318663247732 0.800000000000011368684 106.19069433003492975
1.007140329435344483500 236.90760291369363699 1.007140329435344483500 115.41736278164060536
1.267914553968907398485 264.25891446528828510 1.267914553968907398485 125.04598580747185110
1.596209851975117999245 293.75980129562498178 1.596209851975117999245 135.24181836036316895
2.009509145207687197399 325.54459239716828733 2.009509145207687197399 146.09457865027846424
2.529822128134725289783 359.69100506971165032 2.529822128134725289783 157.79352314667332280
3.184857364427983839050 396.38780051495405132 3.184857364427983839050 170.59608690754174631
4.009497869018204596614 435.78779403856555064 4.009497869018204596614 184.59813345890165692
5.009497869018190385759 476.62916924600102675 5.009497869018190385759 199.37921425122723917
6.009497869018190385759 512.10683937086491824 6.009497869018190385759 212.36554534487379442
7.009497869018204596614 543.61630587886008925 7.009497869018204596614 223.94763861145696637
8.009497869018190385759 572.03222362823487401 8.009497869018190385759 234.34252562649658103
9.009497869018204596614 597.94496555919170078 9.009497869018204596614 243.74168974117023367
10.009497869018190385759 621.77637990436517157 10.009497869018190385759 252.26849361526012672
11.009497869018190385759 643.84124866937065690 11.009497869018190385759 259.96678889975856919
12.009497869018204596614 664.38276462126975730 12.009497869018204596614 267.00619071339576749
13.009497869018190385759 683.59300888110590222 13.009497869018190385759 273.45945412734829461
14.009497869018204596614 701.62914399252122166 14.009497869018204596614 279.38000956915720963
15.009497869018190385759 718.61795839233013794 15.009497869018190385759 284.83127272738909141
16.009497869018190385759 734.66465127734386442 16.009497869018190385759 289.86840091964666044
17.009497869018204596614 749.86130011946977447 17.009497869018204596614 294.54277725314290137
18.009497869018190385759 764.28760967288633310 18.009497869018190385759 298.90745850246736381
19.009497869018204596614 778.01132877545853717 19.009497869018204596614 302.97606796979624733
20.009497869018190385759 791.09359329841242925 20.009497869018190385759 306.76883001459179923
21.009497869018190385759 803.58449128812037543 21.009497869018190385759 310.30450632576452108
22.009497869018204596614 815.52688367200858011 22.009497869018204596614 313.61389642860677895
23.009497869018190385759 826.95995528651860695 23.009497869018190385759 316.70835337835626433
24.009497869018204596614 837.91992795275120898 24.009497869018204596614 319.62074732862333803
25.009497869018204596614 848.44076304443467507 25.009497869018204596614 322.36639063284002304
26.009497869018190385759 858.55235406696715472 26.009497869018190385759 324.96138112905089201
27.009497869018204596614 868.28196917693276191 27.009497869018204596614 327.42329455529556981
28.009497869018190385759 877.65329100934911821 28.009497869018190385759 329.75795313728025349
29.009497869018190385759 886.68756189256862399 29.009497869018190385759 331.95557364076802287
30.009497869018190385759 895.40449451795268487 30.009497869018190385759 334.06043104189245696
31.009497869018218807469 903.82214648692411174 31.009497869018218807469 336.05743703442720971
32.009497869018190385759 911.95715056009487398 32.009497869018190385759 337.95468841439060270
33.009497869018190385759 919.82490013861627176 33.009497869018190385759 339.74938052209182615
34.009497869018218807469 927.44019608627581874 34.009497869018218807469 341.47881267244599712
35.009497869018190385759 934.81622460910352856 35.009497869018190385759 343.12715154852241994
36.009497869018190385759 941.96517521070120438 36.009497869018190385759 344.71587446915469855
37.009497869018190385759 948.89833954209973399 37.009497869018190385759 346.24355023190662450
38.009497869018218807469 955.62647148253824980 38.009497869018218807469 347.71694584259807925
39.009497869018190385759 962.15940979301819880 39.009497869018190385759 349.14634570455552876
40.009497869018190385759 968.50636789497548307 40.009497869018190385759 350.52727920417430596
41.009497869018218807469 974.67619365372786433 41.009497869018218807469 351.85857902673313902
42.009497869018190385759 980.67698784679691926 42.009497869018190385759 353.13543061542776513
43.009497869018190385759 986.51636404827354454 43.009497869018190385759 354.38442309985885004
44.009497869018218807469 992.20168569519967150 44.009497869018218807469 355.56294610617010221
46.009497869018190385759 1003.13762259294617252 46.009497869018190385759 357.82620752359258631
48.009497869018218807469 1013.53194789097699413 48.009497869018218807469 359.92539340687426375
50.009497869018190385759 1023.42228905157207919 50.009497869018190385759 361.79502069427735478
52.009497869018190385759 1032.84604507632320747 52.009497869018190385759 363.49127761128471548
54.009497869018218807469 1041.83872468700224090 54.009497869018218807469 365.03824095264644711
56.009497869018190385759 1050.42845526423297997 56.009497869018190385759 366.45218699687296748
58.009497869018218807469 1058.63975228823187535 58.009497869018218807469 367.78914796494365191
60.009497869018190385759 1066.49680411586155060 60.009497869018190385759 369.13990188712239160
62.009497869018190385759 1074.01998461934454099 62.009497869018190385759 370.45918753687072922
64.009497869018218807469 1081.23055203078206432 64.009497869018218807469 371.74676882336910921
66.009497869018190385759 1088.15690310985610267 66.009497869018190385759 373.13195372254790527
68.009497869018190385759 1094.82357205341600093 68.009497869018190385759 374.54563417932928360
70.009497869018190385759 1101.24537694149421441 70.009497869018190385759 375.76194700699016948
72.009497869018190385759 1107.43771310989905032 72.009497869018190385759 376.76037495424679946
74.009497869018218807469 1113.41483923170221715 74.009497869018218807469 377.70418232259493152
76.009497869018190385759 1119.18821798921271693 76.009497869018190385759 378.59604996298253354
78.009497869018190385759 1124.77253076099441387 78.009497869018190385759 379.60259646842865777
80.009497869018218807469 1130.17688618575675719 80.009497869018218807469 380.34922838090636787
82.009497869018190385759 1135.40122726323807001 82.009497869018190385759 381.19816962455763587
84.009497869018218807469 1140.44809579901789220 84.009497869018218807469 381.93807780566515930
86.009497869018190385759 1145.32165978223179081 86.009497869018190385759 382.35610861337124788
88.009497869018190385759 1150.03366026195317318 88.009497869018190385759 382.86156121481013770
91.009497869018218807469 1156.80962127221573610 91.009497869018218807469 383.45661700708745911
94.009497869018218807469 1163.25824459917680542 94.009497869018218807469 384.31662797042281454
97.009497869018218807469 1169.42368688339161054 97.009497869018218807469 385.65532280915738284
99.504748934509137825444 1174.36802835954426882 99.504748934509137825444 385.93178400835699904
nan nan nan nan

