Time Pressure difference Time.1 Pressure.1 difference.1
(hr) (psi) (hr) (psi)
0.000200000000020850166 0.08677626015919858 0.000200000000020850166 0.06987633994567523
0.000399999999999067768 0.16647752610994204 0.000399999999999067768 0.16009356592000007
0.000600000000019917934 0.24208843206513056 0.000600000000019917934 0.22491630208991828
0.000799999999998135536 0.31463760150056741 0.000799999999998135536 0.28706678482458781
0.001007140329434719206 0.38716475338533518 0.001007140329434719206 0.34892270297247702
0.001267914553977789183 0.47532077535108425 0.001267914553977789183 0.42333430243892006
0.001596209851982166583 0.58211485586109191 0.001596209851982166583 0.51183847588421361
0.002009509145224797066 0.71102722691274711 0.002009509145224797066 0.61657918249947696
0.002529822128153114136 0.86605418500749265 0.002529822128153114136 0.73989226316034573
0.003184857364431081805 1.05175133048691571 0.003184857364431081805 0.88429617727835585
0.004009497869034817086 1.27327427594611886 0.004009497869034817086 1.05248063043325413
0.005047658755856332391 1.53641658178702212 0.005047658755856332391 1.24729583534371002
0.006354625877790454069 1.84764542479698046 0.006354625877790454069 1.47174612440204000
0.008000000000009777068 2.21413645879676979 0.008000000000009777068 1.72899235782087324
0.010071403294361402914 2.64381040401787226 0.010071403294361402914 2.02236780331695787
0.012679145539692626699 3.14537495571701387 0.012679145539692626699 2.35541141862864389
0.015962098519750611558 3.72837632783303663 0.015962098519750611558 2.73191987272884518
0.020095091452091651263 4.40326459358003497 0.020095091452091651263 3.15601520461402085
0.025298221281360611101 5.18147564927530713 0.025298221281360611101 3.63222351296442625
0.031848573644296607199 6.07553175564878600 0.031848573644296607199 4.16557162954073235
0.040094978690191851456 7.09916656211007524 0.040094978690191851456 4.76173213811724416
0.050476587558435426217 8.26749037104134032 0.050476587558435426217 5.42724186446331469
0.063546258777947173257 9.59721285707529326 0.063546258777947173257 6.16972017209493373
0.080000000000012505552 11.10690472256185934 0.080000000000012505552 6.99782829413574081
0.100714032943542974863 12.81719593696341875 0.100714032943542974863 7.92060661135021515
0.126791455396883634421 14.75072448173525075 0.126791455396883634421 8.94599432798115579
0.159620985197506115583 16.93164298353590169 0.159620985197506115583 10.07883677429136071
0.200950914520774404082 19.38463756763588464 0.200950914520774404082 11.31917399992394557
0.252982212813464002465 22.13363143714472514 0.252982212813464002465 12.66180966331028657
0.318485736442809752589 25.20058636906069083 0.318485736442809752589 14.09685080679281732
0.400949786901833249431 28.60443125830160227 0.400949786901833249431 15.61312683088862130
0.504765875584169521062 32.36140287258333359 0.504765875584169521062 17.20019248906005416
0.635462587779443310865 36.48485294117933364 0.635462587779443310865 18.85084245738096698
0.800000000000011368684 40.98668148522432375 0.800000000000011368684 20.56447502885484369
1.007140329435344483500 45.87860089814434161 1.007140329435344483500 22.35127559711237311
1.267914553968907398485 51.17534904503078508 1.267914553968907398485 24.21591711797451651
1.596209851975117999245 56.88837554305926858 1.596209851975117999245 26.19040222003693685
2.009509145207687197399 63.04369402015278467 2.009509145207687197399 28.29210538135609454
2.529822128134725289783 69.65635490498590343 2.529822128134725289783 30.55767727047429361
3.184857364427983839050 76.76291295448191931 3.184857364427983839050 33.03697175504982653
4.009497869018204596614 84.39296178376227431 4.009497869018204596614 35.74855339103937979
5.009497869018190385759 92.30214295915880029 5.009497869018190385759 38.61099975482864721
6.009497869018190385759 99.17260996163663833 6.009497869018190385759 41.12588190318089687
7.009497869018204596614 105.27461015350212392 7.009497869018204596614 43.36882483961436918
8.009497869018190385759 110.77752577775500242 8.009497869018190385759 45.38185805120801319
9.009497869018204596614 115.79568615169655743 9.009497869018204596614 47.20206345571911299
10.009497869018190385759 120.41078475610410692 10.009497869018190385759 48.85333098392350593
11.009497869018190385759 124.68378104448579791 11.009497869018190385759 50.34415277524539789
12.009497869018204596614 128.66177077807560636 12.009497869018204596614 51.70737583097481149
13.009497869018190385759 132.38195163640781971 13.009497869018190385759 52.95708961397729553
14.009497869018204596614 135.87475910372697285 14.009497869018204596614 54.10364125212392850
15.009497869018190385759 139.16474653340617351 15.009497869018190385759 55.15931157992843481
16.009497869018190385759 142.27228639093803508 16.009497869018190385759 56.13478214804509747
17.009497869018204596614 145.21521003983050946 17.009497869018204596614 57.04000360828811722
18.009497869018190385759 148.00895279141039396 18.009497869018190385759 57.88525072835761875
19.009497869018204596614 150.66663462095692694 19.009497869018204596614 58.67316174373348758
20.009497869018190385759 153.20009486246385677 20.009497869018190385759 59.40765322486250710
21.009497869018190385759 155.61903337132213210 21.009497869018190385759 60.09235848712634720
22.009497869018204596614 157.93175042730049995 22.009497869018204596614 60.73324204627441958
23.009497869018190385759 160.14583441274820075 23.009497869018190385759 61.33250249063326009
24.009497869018204596614 162.26829990403862780 24.009497869018204596614 61.89650532574341923
25.009497869018204596614 164.30572372813759330 25.009497869018204596614 62.42821588215265649
26.009497869018190385759 166.26389494452118356 26.009497869018190385759 62.93075160429031456
27.009497869018204596614 168.14809419787007982 27.009497869018204596614 63.40751614092534538
28.009497869018190385759 169.96290777476545486 28.009497869018190385759 63.85963700154341893
29.009497869018190385759 171.71244938153250814 29.009497869018190385759 64.28521960322052564
30.009497869018190385759 173.40053650097246418 30.009497869018190385759 64.69283806487399602
31.009497869018218807469 175.03066609763470751 31.009497869018218807469 65.07957044406271052
32.009497869018190385759 176.60605920696329463 32.009497869018190385759 65.44698473467330757
33.009497869018190385759 178.12969685489062499 33.009497869018190385759 65.79453779726652840
34.009497869018218807469 179.60444531887813469 34.009497869018218807469 66.12945287145866757
35.009497869018190385759 181.03285818807344754 35.009497869018190385759 66.44866373894591050
36.009497869018190385759 182.41729603412576921 36.009497869018190385759 66.75632961339223925
37.009497869018190385759 183.75994555406271047 37.009497869018190385759 67.05217333372482358
38.009497869018218807469 185.06288930212761557 38.009497869018218807469 67.33750537185538576
39.009497869018190385759 186.32803261434077058 39.009497869018190385759 67.61431736515599766
40.009497869018190385759 187.55715972590510887 40.009497869018190385759 67.88174355206047039
41.009497869018218807469 188.75198407985379845 41.009497869018218807469 68.13955787496001903
42.009497869018190385759 189.91407444111592895 42.009497869018190385759 68.38682796559201904
43.009497869018190385759 191.04490522470737801 43.009497869018190385759 68.62870297092425176
44.009497869018218807469 192.14590240508039187 44.009497869018218807469 68.85693113241357821
46.009497869018190385759 194.26371322334182423 46.009497869018190385759 69.29522549705633594
48.009497869018218807469 196.27663765501390003 48.009497869018218807469 69.70174563472022555
50.009497869018190385759 198.19196248744967193 50.009497869018190385759 70.06381035147941816
52.009497869018190385759 200.01693026519782848 52.009497869018190385759 70.39230083958099726
54.009497869018218807469 201.75841746860143644 54.009497869018218807469 70.69187971704005236
56.009497869018190385759 203.42187113631220541 56.009497869018190385759 70.96569898436938217
58.009497869018218807469 205.01203884045892778 58.009497869018218807469 71.22460962259343376
60.009497869018190385759 206.53360480373945052 60.009497869018190385759 71.48619135042770267
62.009497869018190385759 207.99051455065770710 62.009497869018190385759 71.74167905555427183
64.009497869018218807469 209.38688486739684436 64.009497869018218807469 71.99102701754728173
66.009497869018190385759 210.72821495950466897 66.009497869018190385759 72.25927651388241202
68.009497869018190385759 212.01925602369993840 68.009497869018190385759 72.53304434858463878
70.009497869018190385759 213.26287767147468344 70.009497869018190385759 72.76859073925018606
72.009497869018190385759 214.46206130341954577 72.009497869018190385759 72.96194239514629487
74.009497869018218807469 215.61956819845988775 74.009497869018218807469 73.14471644310687282
76.009497869018190385759 216.73761817487260828 76.009497869018190385759 73.31743204625371391
78.009497869018190385759 217.81905437107735679 78.009497869018190385759 73.51235591041356088
80.009497869018218807469 218.86564073046378098 80.009497869018218807469 73.65694572985832167
82.009497869018190385759 219.87736621458367381 82.009497869018190385759 73.82134837470565003
84.009497869018218807469 220.85472305957608796 84.009497869018218807469 73.96463610259958443
86.009497869018190385759 221.79851842193471612 86.009497869018190385759 74.04559031577807104
88.009497869018190385759 222.71102602735655296 88.009497869018190385759 74.14347429201664852
91.009497869018218807469 224.02323216623878466 91.009497869018218807469 74.25871047215716203
94.009497869018218807469 225.27204736812106489 94.009497869018218807469 74.42525683567453143
97.009497869018218807469 226.46602283551490586 97.009497869018218807469 74.68450324851794164
99.504748934509137825444 227.42352469066304366 99.504748934509137825444 74.73804164435628650
nan nan nan nan

