Time Pressure difference Time.1 Pressure.1 difference.1
(hr) (psi) (hr) (psi)
0.000200000000020850166 0.78921512472374555 0.000200000000020850166 0.63551326416109788
0.000399999999999067768 1.51408439694817964 0.000399999999999067768 1.45602337970344875
0.000600000000019917934 2.20175255024752348 0.000600000000019917934 2.04557498883503230
0.000799999999998135536 2.86157473778533245 0.000799999999998135536 2.61082291370638053
0.001007140329434719206 3.52119667949593618 0.001007140329434719206 3.17339182444795886
0.001267914553977789183 4.32296049996029197 0.001267914553977789183 3.85015249200914367
0.001596209851982166583 5.29423424942631016 0.001596209851982166583 4.65508269015384002
0.002009509145224797066 6.46667003787024353 0.002009509145224797066 5.60768135807713897
0.002529822128153114136 7.87661349295607494 0.002529822128153114136 6.72919256581176484
0.003184857364431081805 9.56549701434220800 0.003184857364431081805 8.04252126748849605
0.004009497869034817086 11.58021000968237324 0.004009497869034817086 9.57212987161278583
0.005047658755856332391 13.97344391194231328 0.005047658755856332391 11.34394057144494816
0.006354625877790454069 16.80401657897253642 0.006354625877790454069 13.38527725210476049
0.008000000000009777068 20.13718934509130776 0.008000000000009777068 15.72488739225018506
0.010071403294361402914 24.04499979516253916 0.010071403294361402914 18.39308648706371230
0.012679145539692626699 28.60664291621939626 0.012679145539692626699 21.42206074701051222
0.015962098519750611558 33.90893987813667110 0.015962098519750611558 24.84634022180113533
0.020095091452091651263 40.04693229505979701 0.020095091452091651263 28.70341414541199399
0.025298221281360611101 47.12462767228834792 0.025298221281360611101 33.03444660497819285
0.031848573644296607199 55.25591381215059528 0.031848573644296607199 37.88515576866786461
0.040094978690191851456 64.56569588815628435 0.040094978690191851456 43.30713280787666974
0.050476587558435426217 75.19139949524667088 0.050476587558435426217 49.35982902593790556
0.063546258777947173257 87.28499624322789430 0.063546258777947173257 56.11254122034616643
0.080000000000012505552 101.01538346812725422 0.080000000000012505552 63.64404181304488617
0.100714032943542974863 116.57018718531385559 0.100714032943542974863 72.03655150840066312
0.126791455396883634421 134.15529593302318290 0.126791455396883634421 81.36227600017343775
0.159620985197506115583 153.99037368646872892 0.159620985197506115583 91.66528273170159480
0.200950914520774404082 176.29993649875737560 0.200950914520774404082 102.94593594758416089
0.252982212813464002465 201.30156177748006030 0.252982212813464002465 115.15697581717545006
0.318485736442809752589 229.19498809792264638 0.318485736442809752589 128.20842759626225416
0.400949786901833249431 260.15237049576029449 0.400949786901833249431 141.99869660851291542
0.504765875584169521062 294.32137957392598082 0.504765875584169521062 156.43278513757203996
0.635462587779443310865 331.82344700813962390 0.635462587779443310865 171.44516200462862798
0.800000000000011368684 372.76680143889359442 0.800000000000011368684 187.03035478829190197
1.007140329435344483500 417.25796506501967542 1.007140329435344483500 203.28099788753061716
1.267914553968907398485 465.43097622851274764 1.267914553968907398485 220.23959102985443792
1.596209851975117999245 517.38996722351316748 1.596209851975117999245 238.19719260464631816
2.009509145207687197399 573.37152751087228353 2.009509145207687197399 257.31182049423000535
2.529822128134725289783 633.51253814448375579 2.529822128134725289783 277.91680620991712658
3.184857364427983839050 698.14545833602085168 3.184857364427983839050 300.46556208256521359
4.009497869018204596614 767.53943691266556471 4.009497869018204596614 325.12692954781505250
5.009497869018190385759 839.47207605097003125 5.009497869018190385759 351.16038570124334228
6.009497869018190385759 901.95778887522976675 6.009497869018190385759 374.03280524013666763
7.009497869018204596614 957.45442855124770176 7.009497869018204596614 394.43198453269968695
8.009497869018190385759 1007.50249737527167326 8.009497869018190385759 412.74017451745220342
9.009497869018204596614 1053.14180077620562770 9.009497869018204596614 429.29462884296265202
10.009497869018190385759 1095.11532687663657271 10.009497869018190385759 444.31262231068359370
11.009497869018190385759 1133.97749139596999157 11.009497869018190385759 457.87138946451631227
12.009497869018204596614 1170.15662216267037365 12.009497869018204596614 470.26966811791749024
13.009497869018190385759 1203.99102565870907711 13.009497869018190385759 481.63559950643144703
14.009497869018204596614 1235.75750736579288969 14.009497869018204596614 492.06328897405819589
15.009497869018190385759 1265.67937579951308180 15.009497869018190385759 501.66442859331471027
16.009497869018190385759 1293.94191502103126368 16.009497869018190385759 510.53616522575504177
17.009497869018204596614 1320.70729820707924773 17.009497869018204596614 518.76899833399966155
18.009497869018190385759 1346.11590685291344016 18.009497869018190385759 526.45637515876978796
19.009497869018204596614 1370.28706487163390193 19.009497869018204596614 533.62228999688647946
20.009497869018190385759 1393.32844896464962403 20.009497869018190385759 540.30236338129259366
21.009497869018190385759 1415.32827764435228346 21.009497869018190385759 546.52963968895096514
22.009497869018204596614 1436.36204052415541810 22.009497869018204596614 552.35836516223730541
23.009497869018190385759 1456.49875263318403995 23.009497869018190385759 557.80853558291460104
24.009497869018204596614 1475.80221033414431986 24.009497869018204596614 562.93804412637337009
25.009497869018204596614 1494.33222873435488509 25.009497869018204596614 567.77385996268151303
26.009497869018190385759 1512.14145833163661337 26.009497869018190385759 572.34433571143347308
27.009497869018204596614 1529.27792567890492137 27.009497869018204596614 576.68042697134694663
28.009497869018190385759 1545.78334226187553213 28.009497869018190385759 580.79238824679578101
29.009497869018190385759 1561.69512153031701018 29.009497869018190385759 584.66298863273834741
30.009497869018190385759 1577.04798283212039678 30.009497869018190385759 588.37020826243156080
31.009497869018218807469 1591.87373045693652784 31.009497869018218807469 591.88747257315651495
32.009497869018190385759 1606.20165916677819951 32.009497869018190385759 595.22904219896850009
33.009497869018190385759 1620.05888087853122670 33.009497869018190385759 598.38997738031196150
34.009497869018218807469 1633.47146389152089796 34.009497869018218807469 601.43597223611106983
35.009497869018190385759 1646.46263265877155391 35.009497869018190385759 604.33914003955123917
36.009497869018190385759 1659.05385617243700835 36.009497869018190385759 607.13730812180006069
37.009497869018190385759 1671.26502206496684266 37.009497869018190385759 609.82795575068712424
38.009497869018218807469 1683.11507080814340043 38.009497869018218807469 612.42300144230534897
39.009497869018190385759 1694.62133110456466056 39.009497869018190385759 614.94055879516884033
40.009497869018190385759 1705.80003026577469427 40.009497869018190385759 617.37275385710165665
41.009497869018218807469 1716.66675176073931652 41.009497869018218807469 619.71753067312761232
42.009497869018190385759 1727.23576323601128024 42.009497869018190385759 621.96640951465155922
43.009497869018190385759 1737.52047424195075109 43.009497869018190385759 624.16622098556103992
44.009497869018218807469 1747.53385377034328485 44.009497869018218807469 626.24191676462351097
46.009497869018190385759 1766.79497802263472295 46.009497869018190385759 630.22812844305542512
48.009497869018218807469 1785.10217867275582648 48.009497869018218807469 633.92535900542964100
50.009497869018190385759 1802.52172779533975699 50.009497869018190385759 637.21827517940334928
52.009497869018190385759 1819.11949508434213385 52.009497869018190385759 640.20583953239622588
54.009497869018218807469 1834.95802094288364970 54.009497869018218807469 642.93045777135557728
56.009497869018190385759 1850.08684524835689444 56.009497869018190385759 645.42079679749747356
58.009497869018218807469 1864.54914635072555029 58.009497869018218807469 647.77554441237998617
60.009497869018190385759 1878.38752644780265655 60.009497869018190385759 650.15458512673467339
62.009497869018190385759 1891.63786940468867215 62.009497869018190385759 652.47820175525646391
64.009497869018218807469 1904.33761668192823890 64.009497869018218807469 654.74597847855500277
66.009497869018190385759 1916.53678260584001691 66.009497869018190385759 657.18566139780978119
68.009497869018190385759 1928.27857849140900726 68.009497869018190385759 659.67553265307583388
70.009497869018190385759 1939.58910296039471177 70.009497869018190385759 661.81778646473230765
72.009497869018190385759 1950.49547133713463154 72.009497869018190385759 663.57628643861494311
74.009497869018218807469 1961.02279697737208153 74.009497869018218807469 665.23858489204951638
76.009497869018190385759 1971.19126874560834040 76.009497869018190385759 666.80940352411766980
78.009497869018190385759 1981.02674449557457592 78.009497869018190385759 668.58220246108885476
80.009497869018218807469 1990.54526698826975917 80.009497869018218807469 669.89722193965985753
82.009497869018190385759 1999.74673583091157525 82.009497869018190385759 671.39243564926255203
84.009497869018218807469 2008.63562782631697701 84.009497869018218807469 672.69561282967731586
86.009497869018190385759 2017.21928392363042803 86.009497869018190385759 673.43187744091267177
88.009497869018190385759 2025.51838326604456597 88.009497869018190385759 674.32211532825488121
91.009497869018218807469 2037.45267185674060784 91.009497869018218807469 675.37016851832595421
94.009497869018218807469 2048.81043080489416752 94.009497869018218807469 676.88487897962613715
97.009497869018218807469 2059.66943182300201443 97.009497869018218807469 679.24268040677964109
99.504748934509137825444 2068.37774610904762085 99.504748934509137825444 679.72960288617139213
nan nan nan nan

