Time Pressure difference Time.1 Pressure.1 difference.1
(hr) (psi) (hr) (psi)
0.000200000000020850166 0.69046972523224381 0.000200000000020850166 0.55599880836084681
0.000399999999999067768 1.32464445344376291 0.000399999999999067768 1.27384794262206946
0.000600000000019917934 1.92627261031134078 0.000600000000019917934 1.78963574852581497
0.000799999999998135536 2.50353884642261804 0.000799999999998135536 2.28416071028529810
0.001007140329434719206 3.08062989116089980 0.001007140329434719206 2.77634185209996787
0.001267914553977789183 3.78207823835388579 0.001267914553977789183 3.36842725130278620
0.001596209851982166583 4.63182768930851640 0.001596209851982166583 4.07264580380283814
0.002009509145224797066 5.65757009000401379 0.002009509145224797066 4.90605677109497496
0.002529822128153114136 6.89110355829237697 0.002529822128153114136 5.88724619738792398
0.003184857364431081805 8.36867653482261353 0.003184857364431081805 7.03625320368898599
0.004009497869034817086 10.13131169567472156 0.004009497869034817086 8.37447949905080691
0.005047658755856332391 12.22510780163294264 0.005047658755856332391 9.92460393122624573
0.006354625877790454069 14.70152350937597241 0.006354625877790454069 11.71053166226795739
0.008000000000009777068 17.61765475404670767 0.008000000000009777068 13.75741332990229360
0.010071403294361402914 21.03652588714220428 0.010071403294361402914 16.09177140053062161
0.012679145539692626699 25.02742313902417237 0.012679145539692626699 18.74176499477791680
0.015962098519750611558 29.66630474646459348 0.015962098519750611558 21.73760381490279414
0.020095091452091651263 35.03632086098596687 0.020095091452091651263 25.11208649878225074
0.025298221281360611101 41.22846572656127506 0.025298221281360611101 28.90122674539797742
0.031848573644296607199 48.34237767641231898 0.031848573644296607199 33.14502253505254714
0.040094978690191851456 56.48733393816895898 0.040094978690191851456 37.88861003001910888
0.050476587558435426217 65.78356562475136116 0.050476587558435426217 43.18400207672102908
0.063546258777947173257 76.36402988862496954 0.063546258777947173257 49.09182516244503347
0.080000000000012505552 88.37649188728099148 0.080000000000012505552 55.68099582316628471
0.100714032943542974863 101.98510215359685560 0.100714032943542974863 63.02344743341593869
0.126791455396883634421 117.36998876415204052 0.126791455396883634421 71.18235142005696048
0.159620985197506115583 134.72333167072099513 0.159620985197506115583 80.19626157474935724
0.200950914520774404082 154.24155581834415329 0.200950914520774404082 90.06549656836034501
0.252982212813464002465 176.11501565934983660 0.252982212813464002465 100.74870964858098432
0.318485736442809752589 200.51845878140531454 0.318485736442809752589 112.16718357473939705
0.400949786901833249431 227.60250044321017526 0.400949786901833249431 124.23203504232930072
0.504765875584169521062 257.49633492581392602 0.504765875584169521062 136.86015230519336683
0.635462587779443310865 290.30620055783214184 0.635462587779443310865 149.99420334622959672
0.800000000000011368684 326.12678457639697172 0.800000000000011368684 163.62940044511222482
1.007140329435344483500 365.05128128437269197 1.007140329435344483500 177.84678772529932189
1.267914553968907398485 407.19695834968456438 1.267914553968907398485 192.68354741284898068
1.596209851975117999245 452.65491919175599378 1.596209851975117999245 208.39432111288013516
2.009509145207687197399 501.63215155690539859 2.009509145207687197399 225.11735574992826514
2.529822128134725289783 554.24841014915500637 2.529822128134725289783 243.14427690213599931
3.184857364427983839050 610.79455738781734908 3.184857364427983839050 262.87176663716371650
4.009497869018204596614 671.50606660700498196 4.009497869018204596614 284.44754120628749661
5.009497869018190385759 734.43860302847906496 5.009497869018190385759 307.22373080781761701
6.009497869018190385759 789.10619822922933508 6.009497869018190385759 327.23438790203420012
7.009497869018204596614 837.65918251450386833 7.009497869018204596614 345.08125281865568468
8.009497869018190385759 881.44531286955054838 8.009497869018190385759 361.09874983849135788
9.009497869018204596614 921.37429584496487678 9.009497869018204596614 375.58193594507537227
10.009497869018190385759 958.09615801624215692 10.009497869018190385759 388.72090084621891037
11.009497869018190385759 992.09594744879655082 11.009497869018190385759 400.58321561682328138
12.009497869018204596614 1023.74840024279137651 12.009497869018204596614 411.43024044818747598
13.009497869018190385759 1053.34949448624502111 13.009497869018190385759 421.37408373880214185
14.009497869018204596614 1081.14140217879321426 14.009497869018204596614 430.49707651474477643
15.009497869018190385759 1107.31949181322329423 15.009497869018190385759 438.89693610580991390
16.009497869018190385759 1132.04586498996400223 16.009497869018190385759 446.65865450556577798
17.009497869018204596614 1155.46240402382409229 17.009497869018204596614 453.86140802112004167
18.009497869018190385759 1177.69192609027390972 18.009497869018190385759 460.58695191615589692
19.009497869018204596614 1198.83882547537245955 19.009497869018204596614 466.85627835746561232
20.009497869018190385759 1218.99730653494930266 20.009497869018190385759 472.70055109093186729
21.009497869018190385759 1238.24455001491674011 21.009497869018190385759 478.14868003118641582
22.009497869018204596614 1256.64660038274450926 22.009497869018204596614 483.24812421302840448
23.009497869018190385759 1274.26383761178090026 23.009497869018190385759 488.01637757633193360
24.009497869018204596614 1291.15207596058303352 24.009497869018204596614 492.50408979018266109
25.009497869018204596614 1307.36364656095702230 25.009497869018204596614 496.73485568299054194
26.009497869018190385759 1322.94461236028496387 26.009497869018190385759 500.73348043758585391
27.009497869018204596614 1337.93699090201812396 27.009497869018204596614 504.52704653512154209
28.009497869018190385759 1352.37727479403906727 28.009497869018190385759 508.12452545193599462
29.009497869018190385759 1366.29819637202149352 29.009497869018190385759 511.51084218769426570
30.009497869018190385759 1379.73013095170358611 30.009497869018190385759 514.75422011964394642
31.009497869018218807469 1392.70090351824842401 31.009497869018218807469 517.83140965405073075
32.009497869018190385759 1405.23614351747505680 32.009497869018190385759 520.75488715606434198
33.009497869018190385759 1417.35957066434525586 33.009497869018190385759 523.52033092135343395
34.009497869018218807469 1429.09399163210787265 34.009497869018218807469 526.18521552031336341
35.009497869018190385759 1440.45972506544649150 35.009497869018190385759 528.72514337109544158
36.009497869018190385759 1451.47555378877655130 36.009497869018190385759 531.17320890656060328
37.009497869018190385759 1462.15887712413677946 37.009497869018190385759 533.52720678472428517
38.009497869018218807469 1472.52626574020519001 38.009497869018218807469 535.79756429502174342
39.009497869018190385759 1482.59288019859081942 39.009497869018190385759 538.00012868999124294
40.009497869018190385759 1492.37291747422773369 40.009497869018190385759 540.12801119441223818
41.009497869018218807469 1501.88001125607820541 41.009497869018218807469 542.17941309127661498
42.009497869018190385759 1511.12664404439669852 42.009497869018190385759 544.14691562277096182
43.009497869018190385759 1520.12454760693913158 43.009497869018190385759 546.07149001864729598
44.009497869018218807469 1528.88506827490709838 44.009497869018218807469 547.88747788980799669
46.009497869018190385759 1545.73626987193529203 46.009497869018190385759 551.37494080847409350
48.009497869018218807469 1561.75290134118836249 48.009497869018218807469 554.60957949005830869
50.009497869018190385759 1576.99294289582803685 50.009497869018190385759 557.49049098634054644
52.009497869018190385759 1591.51402271359984297 52.009497869018190385759 560.10425581839024289
54.009497869018218807469 1605.37085623723396566 54.009497869018218807469 562.48797395541350852
56.009497869018190385759 1618.60678498979450524 56.009497869018190385759 564.66672553942203194
58.009497869018218807469 1631.25958491158257857 58.009497869018218807469 566.72685070391150930
60.009497869018190385759 1643.36652787803018327 60.009497869018190385759 568.80822945211014030
62.009497869018190385759 1654.95900801945731473 62.009497869018190385759 570.84111869203945844
64.009497869018218807469 1666.06978217764913097 64.009497869018218807469 572.82515463100116904
66.009497869018190385759 1676.74260696226565415 66.009497869018190385759 574.95958812339188171
68.009497869018190385759 1687.01528715409517645 68.009497869018190385759 577.13793046330704328
70.009497869018190385759 1696.91065595492364082 70.009497869018190385759 579.01214872696482416
72.009497869018190385759 1706.45243606082976839 72.009497869018190385759 580.55062785103473288
74.009497869018218807469 1715.66259868257316157 74.009497869018218807469 582.00494204299684498
76.009497869018190385759 1724.55880668454665283 76.009497869018190385759 583.37922223010491507
78.009497869018190385759 1733.16368262503806363 78.009497869018190385759 584.93021125268717242
80.009497869018218807469 1741.49126201912122269 80.009497869018218807469 586.08069748844172864
82.009497869018190385759 1749.54145703500626041 82.009497869018190385759 587.38883232632167619
84.009497869018218807469 1757.31818434473029811 84.009497869018218807469 588.52895795430538328
86.009497869018190385759 1764.82786640901485953 86.009497869018190385759 589.17310225399285173
88.009497869018190385759 1772.08859502801806229 88.009497869018190385759 589.95195492699463102
91.009497869018218807469 1782.52968352964148835 91.009497869018218807469 590.86887729138845771
94.009497869018218807469 1792.46637690323905190 94.009497869018218807469 592.19406947696199950
97.009497869018218807469 1801.96671618258824310 97.009497869018218807469 594.25686636536261176
99.504748934509137825444 1809.58545939208602249 99.504748934509137825444 594.68286584259362826
nan nan nan nan

