Time Pressure difference Time.1 Pressure.1 difference.1
(hr) (psi) (hr) (psi)
0.000200000000020850166 0.61416646198881053 0.000200000000020850166 0.49455581978792551
0.000399999999999067768 1.17825904255398628 0.000399999999999067768 1.13307601396827629
0.000600000000019917934 1.71340174763338116 0.000600000000019917934 1.59186451737778367
0.000799999999998135536 2.22687474855142931 0.000799999999998135536 2.03173991673264309
0.001007140329434719206 2.74019191835655329 0.001007140329434719206 2.46953050983106603
0.001267914553977789183 3.36412376347620823 0.001267914553977789183 2.99618501984787411
0.001596209851982166583 4.11996807467203929 0.001596209851982166583 3.62258093707706408
0.002009509145224797066 5.03235649392556450 0.002009509145224797066 4.36389231751784923
0.002529822128153114136 6.12957315423406435 0.002529822128153114136 5.23665127633313610
0.003184857364431081805 7.44386070973929126 0.003184857364431081805 6.25868242711663925
0.004009497869034817086 9.01170845303244405 0.004009497869034817086 7.44902239298018731
0.005047658755856332391 10.87412080730297426 0.005047658755856332391 8.82784380014815362
0.006354625877790454069 13.07686977377862902 0.006354625877790454069 10.41641007012133535
0.008000000000009777068 15.67074166096679022 0.008000000000009777068 12.23709246354255953
0.010071403294361402914 18.71179604912649097 0.010071403294361402914 14.31348247002777896
0.012679145539692626699 22.26166240210059044 0.012679145539692626699 16.67062736805273104
0.015962098519750611558 26.38790487199071322 0.015962098519750611558 19.33539840957225664
0.020095091452091651263 31.16448475283800335 0.020095091452091651263 22.33696968093198976
0.025298221281360611101 36.67234058668126551 0.025298221281360611101 25.70737503572236093
0.031848573644296607199 43.00009975334183565 0.031848573644296607199 29.48219230907707455
0.040094978690191851456 50.24496334045147705 0.040094978690191851456 33.70156970167463584
0.050476587558435426217 58.51387581573225560 0.050476587558435426217 38.41177216141707618
0.063546258777947173257 67.92510134188634652 0.063546258777947173257 43.66672639043052584
0.080000000000012505552 78.61007566571798577 0.080000000000012505552 49.52773301280554819
0.100714032943542974863 90.71480917454280757 0.100714032943542974863 56.05877610274591660
0.126791455396883634421 104.39952413366069095 0.126791455396883634421 63.31604606269421254
0.159620985197506115583 119.83516284037047228 0.159620985197506115583 71.33383613528626199
0.200950914520774404082 137.19644347438844534 0.200950914520774404082 80.11242977532377552
0.252982212813464002465 156.65268456806740005 0.252982212813464002465 89.61504942739435364
0.318485736442809752589 178.35932249136919836 0.318485736442809752589 99.77167683083536076
0.400949786901833249431 202.45032812987599868 0.400949786901833249431 110.50325110482378932
0.504765875584169521062 229.04061860681824214 0.504765875584169521062 121.73584511653709228
0.635462587779443310865 258.22469193713993718 0.635462587779443310865 133.41846256473942844
0.800000000000011368684 290.08677154628594508 0.800000000000011368684 145.54684481629161041
1.007140329435344483500 324.70975290841818151 1.007140329435344483500 158.19307987266603277
1.267914553968907398485 362.19794453422650804 1.267914553968907398485 171.39024098152654574
1.596209851975117999245 402.63238207630735133 1.596209851975117999245 185.36482950560628069
2.009509145207687197399 446.19717922883995698 2.009509145207687197399 200.23981481114961412
2.529822128134725289783 492.99885669821912870 2.529822128134725289783 216.27459516430513986
3.184857364427983839050 543.29613392784187909 3.184857364427983839050 233.82201561117159372
4.009497869018204596614 597.29846227990367424 4.009497869018204596614 253.01346839692527624
5.009497869018190385759 653.27637387473600938 5.009497869018190385759 273.27267929926136958
6.009497869018190385759 701.90269636641096440 6.009497869018190385759 291.07197450440963848
7.009497869018204596614 745.09012875883820470 7.009497869018204596614 306.94659649416723823
8.009497869018190385759 784.03748847876590844 8.009497869018190385759 321.19401258656705522
9.009497869018204596614 819.55395112536962188 9.009497869018204596614 334.07667325125339630
10.009497869018190385759 852.21770935139204539 10.009497869018190385759 345.76366153276893556
11.009497869018190385759 882.46020894416244573 11.009497869018190385759 356.31508127996960411
12.009497869018204596614 910.61477421379368025 12.009497869018204596614 365.96340997612350066
13.009497869018190385759 936.94467494388641171 13.009497869018190385759 374.80836700927034144
14.009497869018204596614 961.66532089792974602 14.009497869018204596614 382.92318506891166408
15.009497869018190385759 984.95049055109029723 15.009497869018190385759 390.39478282001073239
16.009497869018190385759 1006.94437178413909351 16.009497869018190385759 397.29875985814680917
17.009497869018204596614 1027.77316760949020136 17.009497869018204596614 403.70554277934945731
18.009497869018190385759 1047.54612277368914874 18.009497869018190385759 409.68785213777249510
19.009497869018204596614 1066.35609503280693389 19.009497869018204596614 415.26436027245858895
20.009497869018190385759 1084.28687829381738084 20.009497869018190385759 420.46278704838033491
21.009497869018190385759 1101.40712411944377891 21.009497869018190385759 425.30884756836843508
22.009497869018204596614 1117.77557845529054248 22.009497869018204596614 429.84475620682155750
23.009497869018190385759 1133.44594873160576753 23.009497869018190385759 434.08607366215437651
24.009497869018204596614 1148.46788121737677102 24.009497869018204596614 438.07785234858062040
25.009497869018204596614 1162.88792397242195875 25.009497869018204596614 441.84107964868388763
26.009497869018190385759 1176.74704956424034208 26.009497869018190385759 445.39781954415815335
27.009497869018204596614 1190.08263221078755123 27.009497869018204596614 448.77216165258374758
28.009497869018190385759 1202.92713175071048681 28.009497869018190385759 451.97208601954434926
29.009497869018190385759 1215.30966329515672442 29.009497869018190385759 454.98418357106936583
30.009497869018190385759 1227.25724540774490379 30.009497869018190385759 457.86913837294440555
31.009497869018218807469 1238.79462815653528196 31.009497869018218807469 460.60627012565072391
32.009497869018190385759 1249.94460869755903332 32.009497869018190385759 463.20667644109300909
33.009497869018190385759 1260.72828549883797677 33.009497869018190385759 465.66651320306738171
34.009497869018218807469 1271.16594488619784897 34.009497869018218807469 468.03690351265134950
35.009497869018190385759 1281.27566010696818921 35.009497869018190385759 470.29614594547064144
36.009497869018190385759 1291.07413831049370856 36.009497869018190385759 472.47367769478461241
37.009497869018190385759 1300.57685603349568737 37.009497869018190385759 474.56753712920760790
38.009497869018218807469 1309.79855273316184139 38.009497869018218807469 476.58699922666613702
39.009497869018190385759 1318.75271358942904953 39.009497869018190385759 478.54615997235407576
40.009497869018190385759 1327.45196668075936941 40.009497869018190385759 480.43889186415208314
41.009497869018218807469 1335.90843904793086949 41.009497869018218807469 482.26359495984632986
42.009497869018190385759 1344.13323375996696996 42.009497869018190385759 484.01367034268145062
43.009497869018190385759 1352.13678611624800396 43.009497869018190385759 485.72556154421386054
44.009497869018218807469 1359.92918857388804099 44.009497869018218807469 487.34086603199614274
46.009497869018190385759 1374.91817721003144470 46.009497869018190385759 490.44293218175209859
48.009497869018218807469 1389.16482340315883448 48.009497869018218807469 493.32011350090778024
50.009497869018190385759 1402.72070001893280278 50.009497869018190385759 495.88265774624659343
52.009497869018190385759 1415.63706679075357897 52.009497869018190385759 498.20757749393112590
54.009497869018218807469 1427.96259260104989153 54.009497869018218807469 500.32787282491284486
56.009497869018190385759 1439.73582933545117157 56.009497869018190385759 502.26585229454548198
58.009497869018218807469 1450.99037834497221411 58.009497869018218807469 504.09831465645868320
60.009497869018190385759 1461.75939261956978044 60.009497869018190385759 505.94968188535466425
62.009497869018190385759 1472.07079694905155520 62.009497869018190385759 507.75791814319006789
64.009497869018218807469 1481.95372824252422106 64.009497869018218807469 509.52269983970961675
66.009497869018190385759 1491.44710760132193172 66.009497869018190385759 511.42125877497807096
68.009497869018190385759 1500.58456202980732996 68.009497869018190385759 513.35887422575854089
70.009497869018190385759 1509.38640145069598475 70.009497869018190385759 515.02597411141721295
72.009497869018190385759 1517.87372698368494639 72.009497869018190385759 516.39443712426816546
74.009497869018218807469 1526.06608181841011174 74.009497869018218807469 517.68803620509254415
76.009497869018190385759 1533.97917691008956353 76.009497869018190385759 518.91044577564048268
78.009497869018190385759 1541.63313481598720500 78.009497869018190385759 520.29003622801315032
80.009497869018218807469 1549.04043999750660987 80.009497869018218807469 521.31338313977312282
82.009497869018190385759 1556.20101432907904382 82.009497869018190385759 522.47695703132183098
84.009497869018218807469 1563.11834165441337063 84.009497869018218807469 523.49108827788165854
86.009497869018190385759 1569.79813469317582530 86.009497869018190385759 524.06404870046378619
88.009497869018190385759 1576.25648593499772687 88.009497869018190385759 524.75683098056606468
91.009497869018218807469 1585.54373800415555706 91.009497869018218807469 525.57242497966410610
94.009497869018218807469 1594.38233525196005758 94.009497869018218807469 526.75117122490337351
97.009497869018218807469 1602.83279955135981254 97.009497869018218807469 528.58601006063133809
99.504748934509137825444 1609.60960147443415735 99.504748934509137825444 528.96493267255607407
nan nan nan nan

