Time Pressure difference Time.1 Pressure.1 difference.1
(hr) (psi) (hr) (psi)
0.000200000000020850166 0.03067091953902708 0.000200000000020850166 0.02469767187735072
0.000399999999999067768 0.05884119457334158 0.000399999999999067768 0.05658479485103451
0.000600000000019917934 0.08556573891957202 0.000600000000019917934 0.07949627918695387
0.000799999999998135536 0.11120811777175227 0.000799999999998135536 0.10146326015351810
0.001007140329434719206 0.13684271455860983 0.001007140329434719206 0.12332612777475481
0.001267914553977789183 0.16800130852926257 0.001267914553977789183 0.14962677931030793
0.001596209851982166583 0.20574749215779975 0.001596209851982166583 0.18090842682114450
0.002009509145224797066 0.25131134744329858 0.002009509145224797066 0.21792884898688406
0.002529822128153114136 0.30610535849402759 0.002529822128153114136 0.26151364473770844
0.003184857364431081805 0.37173969439623744 0.003184857364431081805 0.31255295921045340
0.004009497869034817086 0.45003659753267994 0.004009497869034817086 0.37199746420485708
0.005047658755856332391 0.54304379183851648 0.005047658755856332391 0.44085456249217336
0.006354625877790454069 0.65304708979893278 0.006354625877790454069 0.52018613017658311
0.008000000000009777068 0.78258271388506506 0.008000000000009777068 0.61110936785048109
0.010071403294361402914 0.93445022900631680 0.010071403294361402914 0.71480241324133864
0.012679145539692626699 1.11172735503791009 0.012679145539692626699 0.83251610486012406
0.015962098519750611558 1.31778818483753901 0.015962098519750611558 0.96559236880933308
0.020095091452091651263 1.55632627876535712 0.020095091452091651263 1.11548813266530034
0.025298221281360611101 1.83138363465765153 0.025298221281360611101 1.28380313820294378
0.031848573644296607199 2.14738622397931245 0.031848573644296607199 1.47231411044112082
0.040094978690191851456 2.50918818143545774 0.040094978690191851456 1.68302601433454346
0.050476587558435426217 2.92213021735081879 0.050476587558435426217 1.91824927968099912
0.063546258777947173257 3.39211833741454338 0.063546258777947173257 2.18067695737838152
0.080000000000012505552 3.92571632435376028 0.080000000000012505552 2.47337034534108113
0.100714032943542974863 4.53021580530603529 0.100714032943542974863 2.79952475056343797
0.126791455396883634421 5.21361813578573496 0.126791455396883634421 3.16194627109678761
0.159620985197506115583 5.98446002004286193 0.159620985197506115583 3.56234748056849826
0.200950914520774404082 6.85146672649199306 0.200950914520774404082 4.00074253445587669
0.252982212813464002465 7.82309387002529100 0.252982212813464002465 4.47529479479070513
0.318485736442809752589 8.90710380285765702 0.318485736442809752589 4.98250761274573684
0.400949786901833249431 10.11018691026177230 0.400949786901833249431 5.51843275919339327
0.504765875584169521062 11.43808204979238319 0.504765875584169521062 6.07937837975398487
0.635462587779443310865 12.89550836714097137 0.635462587779443310865 6.66279776510879085
0.800000000000011368684 14.48667190426032114 0.800000000000011368684 7.26847824295731559
1.007140329435344483500 16.21571238641308810 1.007140329435344483500 7.90001982311730355
1.267914553968907398485 18.08783888660570938 1.267914553968907398485 8.55907415376685599
1.596209851975117999245 20.10709825228818914 1.596209851975117999245 9.25695250880615994
2.009509145207687197399 22.28268495539882821 2.009509145207687197399 9.99979586754827565
2.529822128134725289783 24.61991854400363522 2.529822128134725289783 10.80055834559867378
3.184857364427983839050 27.13171923391171347 3.184857364427983839050 11.67686070652623087
4.009497869018204596614 29.82854683736425372 4.009497869018204596614 12.63526456062598946
5.009497869018190385759 32.62403328728888141 5.009497869018190385759 13.64699129265495436
6.009497869018190385759 35.05238800368191221 6.009497869018190385759 14.53587205198635246
7.009497869018204596614 37.20912945080678469 7.009497869018204596614 15.32863636572576915
8.009497869018190385759 39.15412549041339929 8.009497869018190385759 16.04013948361662401
9.009497869018204596614 40.92778562258240527 9.009497869018204596614 16.68348794555589265
10.009497869018190385759 42.55898426724369443 10.009497869018190385759 17.26712560638675598
11.009497869018190385759 44.06926743813722425 11.009497869018190385759 17.79405399814708133
12.009497869018204596614 45.47528105087155126 12.009497869018204596614 18.27588283681006232
13.009497869018190385759 46.79017256114413925 13.009497869018190385759 18.71759201873335599
14.009497869018204596614 48.02469933838626304 14.009497869018204596614 19.12283871842311456
15.009497869018190385759 49.18753972301426103 15.009497869018190385759 19.49596357566436211
16.009497869018190385759 50.28589432783154933 16.009497869018190385759 19.84074196611939200
17.009497869018204596614 51.32606561752630370 17.009497869018204596614 20.16069093051562433
18.009497869018190385759 52.31350917627435848 18.009497869018190385759 20.45944206778157337
19.009497869018204596614 53.25286223671752595 19.009497869018204596614 20.73792785769890656
20.009497869018190385759 54.14830939104325580 20.009497869018190385759 20.99753260533933386
21.009497869018190385759 55.00327903641559146 21.009497869018190385759 21.23954049976017799
22.009497869018204596614 55.82070489240793165 22.009497869018204596614 21.46605968876940906
23.009497869018190385759 56.60326905967824018 23.009497869018190385759 21.67786725962037764
24.009497869018204596614 57.35345082815157980 24.009497869018204596614 21.87721308927138253
25.009497869018204596614 58.07357476597966439 25.009497869018204596614 22.06514526869188586
26.009497869018190385759 58.76568700625317376 26.009497869018190385759 22.24276565324053934
27.009497869018204596614 59.43165398372995156 27.009497869018204596614 22.41127725670637361
28.009497869018190385759 60.07309671349469227 28.009497869018190385759 22.57107859537310546
29.009497869018190385759 60.69146917795544738 29.009497869018190385759 22.72150003217277003
30.009497869018190385759 61.28812065982647539 30.009497869018190385759 22.86557207465373764
31.009497869018218807469 61.86428715519847543 31.009497869018218807469 23.00226196729802552
32.009497869018190385759 62.42110713349564577 32.009497869018190385759 23.13212391484142927
33.009497869018190385759 62.95963423319409458 33.009497869018190385759 23.25496594558558172
34.009497869018218807469 63.48088153512071585 34.009497869018218807469 23.37334110111900642
35.009497869018190385759 63.98575160095699488 35.009497869018190385759 23.48616563186881123
36.009497869018190385759 64.47507877068238713 36.009497869018190385759 23.59490960473345922
37.009497869018190385759 64.94963592859113533 37.009497869018190385759 23.69947505760963935
38.009497869018218807469 65.41015914988993529 38.009497869018218807469 23.80032517453508945
39.009497869018190385759 65.85732187231009505 39.009497869018190385759 23.89816389630513882
40.009497869018190385759 66.29175473070783653 40.009497869018190385759 23.99268522098688905
41.009497869018218807469 66.71406333856901938 41.009497869018218807469 24.08380924890828112
42.009497869018190385759 67.12480217315304287 42.009497869018190385759 24.17120643611442077
43.009497869018190385759 67.52449236390519616 43.009497869018190385759 24.25669673972322826
44.009497869018218807469 67.91363791903704339 44.009497869018218807469 24.33736358990480042
46.009497869018190385759 68.66217450135357581 46.009497869018190385759 24.49227797740784141
48.009497869018218807469 69.37363917116870482 48.009497869018218807469 24.63596181916835448
50.009497869018190385759 70.05060743090893993 50.009497869018190385759 24.76393296905738239
52.009497869018190385759 70.69563914545784655 52.009497869018190385759 24.88003736571397795
54.009497869018218807469 71.31116479493671534 54.009497869018218807469 24.98592300343656802
56.009497869018190385759 71.89910962576551867 56.009497869018190385759 25.08270395137193631
58.009497869018218807469 72.46115165912772227 58.009497869018218807469 25.17421547005457327
60.009497869018190385759 72.99894652545962970 60.009497869018190385759 25.26667108075461954
62.009497869018190385759 73.51388876359453661 62.009497869018190385759 25.35697276963555780
64.009497869018218807469 74.00743344451095140 64.009497869018218807469 25.44510437689170956
66.009497869018190385759 74.48152425292838075 66.009497869018190385759 25.53991669887222926
68.009497869018190385759 74.93784049113531864 68.009497869018190385759 25.63667946803422737
70.009497869018190385759 75.37739641836604676 70.009497869018190385759 25.71993293370049827
72.009497869018190385759 75.80124580551897395 72.009497869018190385759 25.78827274311205286
74.009497869018218807469 76.21036462186944505 74.009497869018218807469 25.85287391523604583
76.009497869018190385759 76.60553745836014627 76.009497869018190385759 25.91391994738277660
78.009497869018190385759 76.98776921736354950 78.009497869018190385759 25.98281545109444579
80.009497869018218807469 77.35768336162944081 80.009497869018218807469 26.03392047348440741
82.009497869018190385759 77.71527598963733396 82.009497869018190385759 26.09202830485286029
84.009497869018218807469 78.06072108140187993 84.009497869018218807469 26.14267310522916787
86.009497869018190385759 78.39430392499416200 86.009497869018190385759 26.17128623230087214
88.009497869018190385759 78.71682816484154444 88.009497869018190385759 26.20588315493692022
91.009497869018218807469 79.18062516220508940 91.009497869018218807469 26.24661318412451294
94.009497869018218807469 79.62201674218070480 94.009497869018218807469 26.30547870916082687
97.009497869018218807469 80.04402531255267661 97.009497869018218807469 26.39710890680375854
99.504748934509137825444 80.38245269238952062 99.504748934509137825444 26.41603196050524005
nan nan nan nan

