Time Pressure difference Time.1 Pressure.1 difference.1
(hr) (psi) (hr) (psi)
0.000200000000020850166 0.58050325761670762 0.000200000000020850166 0.46744861894693079
0.000399999999999067768 1.11367724363202614 0.000399999999999067768 1.07097075132689690
0.000600000000019917934 1.61948813174604589 0.000600000000019917934 1.50461250363600496
0.000799999999998135536 2.10481705831414079 0.000799999999998135536 1.92037780193000107
0.001007140329434719206 2.58999869506051805 0.001007140329434719206 2.33417256471243251
0.001267914553977789183 3.17973208338311553 0.001267914553977789183 2.83196050597070670
0.001596209851982166583 3.89414765645006300 0.001596209851982166583 3.42402290763922235
0.002009509145224797066 4.75652696624389471 0.002009509145224797066 4.12470211741029313
0.002529822128153114136 5.79360385832598546 0.002529822128153114136 4.94962410527955399
0.003184857364431081805 7.03585372808488430 0.003184857364431081805 5.91563649627589783
0.004009497869034817086 8.51776584598438014 0.004009497869034817086 7.04073249324314876
0.005047658755856332391 10.27809713333387265 0.005047658755856332391 8.34397903643723282
0.006354625877790454069 12.36011077277979986 0.006354625877790454069 9.84547407358606286
0.008000000000009777068 14.81180941401976803 0.008000000000009777068 11.56636266956032522
0.010071403294361402914 17.68617994411955863 0.010071403294361402914 13.52894323598240867
0.012679145539692626699 21.04147384169312929 0.012679145539692626699 15.75689017979161832
0.015962098519750611558 24.94155198619341718 0.015962098519750611558 18.27560190722055111
0.020095091452091651263 29.45632176394919455 0.020095091452091651263 21.11265343776275927
0.025298221281360611101 34.66228537791067055 0.025298221281360611101 24.29832281086547141
0.031848573644296607199 40.64321243434014974 0.031848573644296607199 27.86623779761731257
0.040094978690191851456 47.49097631204670478 0.040094978690191851456 31.85434602740501830
0.050476587558435426217 55.30665972351793869 0.050476587558435426217 36.30637661054769438
0.063546258777947173257 64.20204463008990103 0.063546258777947173257 41.27330046160059140
0.080000000000012505552 74.30136262679312154 0.080000000000012505552 46.81305824352875078
0.100714032943542974863 85.74262109554838673 0.100714032943542974863 52.98612698627384532
0.126791455396883634421 98.67726032609098752 0.126791455396883634421 59.84561722856359012
0.159620985197506115583 113.26685306227464878 0.159620985197506115583 67.42394255905254852
0.200950914520774404082 129.67654096970213118 0.200950914520774404082 75.72137089604294147
0.252982212813464002465 148.06636202779574774 0.252982212813464002465 84.70314050628260816
0.318485736442809752589 168.58323295164737488 0.318485736442809752589 94.30307091440711531
0.400949786901833249431 191.35378152105209892 0.400949786901833249431 104.44643466180666280
0.504765875584169521062 216.48662611314364312 0.504765875584169521062 115.06335665095346599
0.635462587779443310865 244.07108519271693581 0.635462587779443310865 126.10563574937611975
0.800000000000011368684 274.18676579770755097 0.800000000000011368684 137.56924674475308734
1.007140329435344483500 306.91201980137941518 1.007140329435344483500 149.52232640826898091
1.267914553968907398485 342.34543843917145978 1.267914553968907398485 161.99613520300195546
1.596209851975117999245 380.56361570184475340 1.596209851975117999245 175.20475967886778790
2.009509145207687197399 421.74057378998759305 2.009509145207687197399 189.26442910286493770
2.529822128134725289783 465.97699488162976422 2.529822128134725289783 204.42032380937976654
3.184857364427983839050 513.51741769549971650 3.184857364427983839050 221.00594898205744698
4.009497869018204596614 564.55981331206487539 4.009497869018204596614 239.14549509867725874
5.009497869018190385759 617.46950807161397279 5.009497869018190385759 258.29427422195715280
6.009497869018190385759 663.43056319163815715 6.009497869018190385759 275.11796859369292179
7.009497869018204596614 704.25084033722112054 7.009497869018204596614 290.12248340983404660
8.009497869018190385759 741.06344830636101051 8.009497869018190385759 303.58898144601226932
9.009497869018204596614 774.63321080790103679 9.009497869018204596614 315.76552794515544065
10.009497869018190385759 805.50662905807564584 10.009497869018190385759 326.81193830624687280
11.009497869018190385759 834.09150078035327169 11.009497869018190385759 336.78502201371060210
12.009497869018204596614 860.70288037747127419 12.009497869018204596614 345.90451417962464120
13.009497869018190385759 885.58960749872812812 13.009497869018190385759 354.26466845212399903
14.009497869018204596614 908.95528503872526471 14.009497869018204596614 361.93470354869111816
15.009497869018190385759 930.96416646485511137 15.009497869018190385759 368.99677401745231009
16.009497869018190385759 951.75253654627522337 16.009497869018190385759 375.52233574899139512
17.009497869018204596614 971.43968095610762248 17.009497869018204596614 381.57795517268596086
18.009497869018190385759 990.12885660460733561 18.009497869018190385759 387.23236694142690340
19.009497869018204596614 1007.90783160226351356 19.009497869018204596614 392.50321994083782329
20.009497869018190385759 1024.85580701096500889 20.009497869018190385759 397.41671467666645867
21.009497869018190385759 1041.03767151850001937 21.009497869018190385759 401.99715677594872432
22.009497869018204596614 1056.50895113435490202 22.009497869018204596614 406.28444679231859027
23.009497869018190385759 1071.32040951976387078 23.009497869018190385759 410.29329252354665414
24.009497869018204596614 1085.51897177184446264 24.009497869018204596614 414.06627700669741898
25.009497869018204596614 1099.14863459512730515 25.009497869018204596614 417.62323728060738404
26.009497869018190385759 1112.24812480127980052 26.009497869018190385759 420.98502797352830385
27.009497869018204596614 1124.85276808230332790 27.009497869018204596614 424.17441832205230412
28.009497869018190385759 1136.99324511394820547 28.009497869018190385759 427.19895097584213772
29.009497869018190385759 1148.69707517301048938 29.009497869018190385759 430.04595182844070678
30.009497869018190385759 1159.98979590305725651 30.009497869018190385759 432.77277877881226686
31.009497869018218807469 1170.89480079107374877 31.009497869018218807469 435.35988503959191576
32.009497869018190385759 1181.43363745347846816 32.009497869018190385759 437.81775994919382811
33.009497869018190385759 1191.62624792582005284 33.009497869018190385759 440.14277009205881086
34.009497869018218807469 1201.49180661594346020 34.009497869018218807469 442.38323645044755494
35.009497869018190385759 1211.04739615469816272 35.009497869018190385759 444.51864708122440106
36.009497869018190385759 1220.30880795242751446 36.009497869018190385759 446.57682568958938418
37.009497869018190385759 1229.29067025821245807 37.009497869018190385759 448.55591816353847889
38.009497869018218807469 1238.00691464181909396 38.009497869018218807469 450.46469110827393934
39.009497869018190385759 1246.47028714421071527 39.009497869018190385759 452.31646789104354411
40.009497869018190385759 1254.69272368364090653 40.009497869018190385759 454.10545686550796063
41.009497869018218807469 1262.68568660315986563 41.009497869018218807469 455.83014578421528995
42.009497869018190385759 1270.45967039918923547 42.009497869018190385759 457.48429742499490658
43.009497869018190385759 1278.02453839976669769 43.009497869018190385759 459.10235780549322726
44.009497869018218807469 1285.38982988226189264 44.009497869018218807469 460.62912550649082277
46.009497869018190385759 1299.55725397683841038 46.009497869018190385759 463.56116366996303668
48.009497869018218807469 1313.02302431285170314 48.009497869018218807469 466.28064321157665972
50.009497869018190385759 1325.83588698500807368 50.009497869018190385759 468.70273131679334710
52.009497869018190385759 1338.04429211890965234 52.009497869018190385759 470.90021940961088376
54.009497869018218807469 1349.69424099685102192 54.009497869018218807469 472.90429879675065195
56.009497869018190385759 1360.82217242912315669 56.009497869018190385759 474.73605527474694554
58.009497869018218807469 1371.45984603617353059 58.009497869018218807469 476.46807816493537757
60.009497869018190385759 1381.63859765260167478 60.009497869018190385759 478.21796972355082289
62.009497869018190385759 1391.38482147681361312 62.009497869018190385759 479.92709437163887287
64.009497869018218807469 1400.72605738879269666 64.009497869018218807469 481.59514625531630827
66.009497869018190385759 1409.69909317737619858 66.009497869018190385759 483.38964288597190944
68.009497869018190385759 1418.33571271026858085 68.009497869018190385759 485.22105529742827912
70.009497869018190385759 1426.65511269883063505 70.009497869018190385759 486.79677942808746138
72.009497869018190385759 1434.67723768494442993 72.009497869018190385759 488.09023533304764442
74.009497869018218807469 1442.42055967245573811 74.009497869018218807469 489.31293068836998827
76.009497869018190385759 1449.89992848018209770 76.009497869018190385759 490.46833851631788548
78.009497869018190385759 1457.13436372375895189 78.009497869018190385759 491.77231195242171680
80.009497869018218807469 1464.13566557620583808 80.009497869018218807469 492.73956798594878137
82.009497869018190385759 1470.90376019411132802 82.009497869018190385759 493.83936498941017135
84.009497869018218807469 1477.44194046750885718 84.009497869018218807469 494.79791047945928995
86.009497869018190385759 1483.75560599501159231 86.009497869018190385759 495.33946625037737022
88.009497869018190385759 1489.85996721748847449 88.009497869018190385759 495.99427629831825470
91.009497869018218807469 1498.63817380173532001 91.009497869018218807469 496.76516660684450244
94.009497869018218807469 1506.99231687639598931 94.009497869018218807469 497.87930434899516285
97.009497869018218807469 1514.97960103758259720 97.009497869018218807469 499.61357345560281829
99.504748934509137825444 1521.38495827546989858 99.504748934509137825444 499.97172686224541849
nan nan nan nan

