Time Pressure difference Time.1 Pressure.1 difference.1
(hr) (psi) (hr) (psi)
0.000200000000020850166 0.13839317352975633 0.000200000000020850166 0.11144071456853376
0.000399999999999067768 0.26550295112361449 0.000399999999999067768 0.25532163530344837
0.000600000000019917934 0.38608930975904443 0.000600000000019917934 0.35870272316064550
0.000799999999998135536 0.50179272653107732 0.000799999999998135536 0.45782202752197193
0.001007140329434719206 0.61746102910592249 0.001007140329434719206 0.55647155215438149
0.001267914553977789183 0.75805468482716032 0.001267914553977789183 0.67514522371724317
0.001596209851982166583 0.92837283046812080 0.001596209851982166583 0.81629412102223742
0.002009509145224797066 1.13396583602463985 0.002009509145224797066 0.98333748933106235
0.002529822128153114136 1.38120710539988045 0.002529822128153114136 1.18000059210917208
0.003184857364431081805 1.67736203569033981 0.003184857364431081805 1.41029993790082631
0.004009497869034817086 2.03065294008648278 0.004009497869034817086 1.67852514336337943
0.005047658755856332391 2.45031954853964740 0.005047658755856332391 1.98922180636712387
0.006354625877790454069 2.94667589299518395 0.006354625877790454069 2.34718131908946059
0.008000000000009777068 3.53116590411553721 0.008000000000009777068 2.75744470859363400
0.010071403294361402914 4.21642176502850230 0.010071403294361402914 3.22532796218652784
0.012679145539692626699 5.01633074834178938 0.012679145539692626699 3.75647510729568213
0.015962098519750611558 5.94611741938889438 0.015962098519750611558 4.35694117633479561
0.020095091452091651263 7.02244784320953741 0.020095091452091651263 5.03330011080684336
0.025298221281360611101 8.26356030272354936 0.025298221281360611101 5.79277025774499066
0.031848573644296607199 9.68942564478470203 0.031848573644296607199 6.64336854711237379
0.040094978690191851456 11.32194667233072316 0.040094978690191851456 7.59414177199733054
0.050476587558435426217 13.18522171243662200 0.050476587558435426217 8.65551504246304582
0.063546258777947173257 15.30589981516318510 0.063546258777947173257 9.83963992963416167
0.080000000000012505552 17.71359804891330825 0.080000000000012505552 11.16032960702682963
0.100714032943542974863 20.44121765808821323 0.100714032943542974863 12.63200192327404991
0.126791455396883634421 23.52486232000880761 0.126791455396883634421 14.26731854031477376
0.159620985197506115583 27.00305130994949465 0.159620985197506115583 16.07400692451639301
0.200950914520774404082 30.91515474148825859 0.200950914520774404082 18.05213094815456643
0.252982212813464002465 35.29932599889460221 0.252982212813464002465 20.19340334234830081
0.318485736442809752589 40.19059032996747760 0.318485736442809752589 22.48204654531613045
0.400949786901833249431 45.61913605849824194 0.400949786901833249431 24.90024537684823613
0.504765875584169521062 51.61085802955099666 0.504765875584169521062 27.43134146962163555
0.635462587779443310865 58.18704994929463226 0.635462587779443310865 30.06384357427137033
0.800000000000011368684 65.36669029971120892 0.800000000000011368684 32.79679207188056722
1.007140329435344483500 73.16845832893710622 1.007140329435344483500 35.64643090918783486
1.267914553968907398485 81.61585839078185245 1.267914553968907398485 38.62021264504556939
1.596209851975117999245 90.72715065056864603 1.596209851975117999245 41.76917595436925978
2.009509145207687197399 100.54382235972643400 2.009509145207687197399 45.12103013405929630
2.529822128134725289783 111.08987635708957953 2.529822128134725289783 48.73422668135986413
3.184857364427983839050 122.42361117740651366 3.184857364427983839050 52.68827391969152529
4.009497869018204596614 134.59222353444846476 4.009497869018204596614 57.01277911501970408
5.009497869018190385759 147.20600385727911430 5.009497869018190385759 61.57788754002844911
6.009497869018190385759 158.16321416295497215 6.009497869018190385759 65.58869096627988426
7.009497869018204596614 167.89485239998182919 7.009497869018204596614 69.16579823559187901
8.009497869018190385759 176.67105404210926167 8.009497869018190385759 72.37623913339210446
9.009497869018204596614 184.67415463848155355 9.009497869018204596614 75.27915292506926903
10.009497869018190385759 192.03444120585567134 10.009497869018190385759 77.91263993125731702
11.009497869018190385759 198.84913356232650017 11.009497869018190385759 80.29024365017583875
12.009497869018204596614 205.19334132710332597 12.009497869018204596614 82.46434938560638273
13.009497869018190385759 211.12638838565041510 13.009497869018190385759 84.45742740160171991
14.009497869018204596614 216.69681408784043697 14.009497869018204596614 86.28597958312867888
15.009497869018190385759 221.94377679896675204 15.009497869018190385759 87.96959174385138169
16.009497869018190385759 226.89976708899604319 16.009497869018190385759 89.52529911541675745
17.009497869018204596614 231.59322290835041258 17.009497869018204596614 90.96897127183879661
18.009497869018190385759 236.04876091733552812 18.009497869018190385759 92.31699469608759046
19.009497869018204596614 240.28730521445712043 19.009497869018204596614 93.57357691888530837
20.009497869018190385759 244.32773749617078352 20.009497869018190385759 94.74496419482382237
21.009497869018190385759 248.18552735943617904 21.009497869018190385759 95.83695103550324745
22.009497869018204596614 251.87391231940165426 22.009497869018204596614 96.85904981517903423
23.009497869018190385759 255.40499453757257697 23.009497869018190385759 97.81476690316512190
24.009497869018204596614 258.78996105385471083 24.009497869018204596614 98.71425418329771162
25.009497869018204596614 262.03930077332290693 25.009497869018204596614 99.56224084653656803
26.009497869018190385759 265.16224624772775087 26.009497869018190385759 100.36369867925610322
27.009497869018204596614 268.16721919487906689 27.009497869018204596614 101.12405591440681007
28.009497869018190385759 271.06153395113454962 28.009497869018190385759 101.84511073522010349
29.009497869018190385759 273.85175116882339807 29.009497869018190385759 102.52384160858444773
30.009497869018190385759 276.54395907482677330 30.009497869018190385759 103.17392277587663330
31.009497869018218807469 279.14373472467605097 31.009497869018218807469 103.79069424268620025
32.009497869018190385759 281.65621511455350401 32.009497869018190385759 104.37665668891864357
33.009497869018190385759 284.08615446685143979 33.009497869018190385759 104.93094390081299139
34.009497869018218807469 286.43812399993493045 34.009497869018218807469 105.46507570017112698
35.009497869018190385759 288.71619624822062633 35.009497869018190385759 105.97416199745683230
36.009497869018190385759 290.92413591649369664 36.009497869018190385759 106.46483602135829472
37.009497869018190385759 293.06543040949657097 37.009497869018190385759 106.93665574775080529
38.009497869018218807469 295.14340104218626948 38.009497869018218807469 107.39171115339004814
39.009497869018190385759 297.16108649700896649 39.009497869018190385759 107.83317855649879391
40.009497869018190385759 299.12133232148659090 40.009497869018190385759 108.25967721664815713
41.009497869018218807469 301.02687116183579974 41.009497869018218807469 108.67084661092759745
42.009497869018190385759 302.88020492764178471 42.009497869018190385759 109.06519977271140931
43.009497869018190385759 304.68368505664540180 43.009497869018190385759 109.45094870362919437
44.009497869018218807469 306.43958573224028896 44.009497869018218807469 109.81493327152165307
46.009497869018190385759 309.81712884757098436 46.009497869018190385759 110.51393721513295532
48.009497869018218807469 313.02739626015147678 48.009497869018218807469 111.16226674502793514
50.009497869018190385759 316.08200913946711808 50.009497869018190385759 111.73969754330768467
52.009497869018190385759 318.99251809535860502 52.009497869018190385759 112.26358323553867535
54.009497869018218807469 321.76988992837294745 54.009497869018218807469 112.74135989355525567
56.009497869018190385759 324.42281172601514072 56.009497869018190385759 113.17805441472704331
58.009497869018218807469 326.95885504728363458 58.009497869018218807469 113.59097224292918327
60.009497869018190385759 329.38549041975687715 60.009497869018190385759 114.00814999852693177
62.009497869018190385759 331.70901027475582623 62.009497869018190385759 114.41560883859948206
64.009497869018218807469 333.93598017645183518 64.009497869018218807469 114.81327584695040400
66.009497869018190385759 336.07517040955485754 66.009497869018190385759 115.24108754369176211
68.009497869018190385759 338.13415831365938402 68.009497869018190385759 115.67770003869101458
70.009497869018190385759 340.11752042433460019 70.009497869018190385759 116.05335592035589798
72.009497869018190385759 342.03001156148803830 72.009497869018190385759 116.36171847501779553
74.009497869018218807469 343.87603548892315075 74.009497869018218807469 116.65321156874800579
76.009497869018190385759 345.65913243406401989 76.009497869018190385759 116.92866317721497182
78.009497869018190385759 347.38383671249408735 78.009497869018190385759 117.23953313298714818
80.009497869018218807469 349.05296150979137337 80.009497869018218807469 117.47012896572233842
82.009497869018190385759 350.66648922153433432 82.009497869018190385759 117.73232283897021944
84.009497869018218807469 352.22520487949634571 84.009497869018218807469 117.96084206018038287
86.009497869018190385759 353.73039575912002874 86.009497869018190385759 118.08995007257709631
88.009497869018190385759 355.18568806087034773 88.009497869018190385759 118.24605813812999600
91.009497869018218807469 357.27843060994979396 91.009497869018218807469 118.42983997714719635
94.009497869018218807469 359.27007554398613820 94.009497869018218807469 118.69545271206713721
97.009497869018218807469 361.17426055664014939 97.009497869018218807469 119.10890604289501482
99.504748934509137825444 362.70131092907467973 99.504748934509137825444 119.19429055349924340
nan nan nan nan

