Time Pressure difference Time.1 Pressure.1 difference.1
(hr) (psi) (hr) (psi)
0.000200000000020850166 0.52439791699653615 0.000200000000020850166 0.42226995087860630
0.000399999999999067768 1.00604091209542545 0.000399999999999067768 0.96746198025793140
0.000600000000019917934 1.46296543860048733 0.000600000000019917934 1.35919248073304066
0.000799999999998135536 1.90138757458532548 0.000799999999998135536 1.73477427725893141
0.001007140329434719206 2.33967665623379295 0.001007140329434719206 2.10857598951471026
0.001267914553977789183 2.87241261656129376 0.001267914553977789183 2.55825298284209435
0.001596209851982166583 3.51778029274677095 0.001596209851982166583 3.09309285857615368
0.002009509145224797066 4.29681108677444623 0.002009509145224797066 3.72605178389770098
0.002529822128153114136 5.23365503181252034 0.002529822128153114136 4.47124548685691714
0.003184857364431081805 6.35584209199420602 0.003184857364431081805 5.34389327820799576
0.004009497869034817086 7.69452816757094205 0.004009497869034817086 6.36024932701475176
0.005047658755856332391 9.28472434338536523 0.005047658755856332391 7.53753776358569549
0.006354625877790454069 11.16551243778175184 0.006354625877790454069 8.89391407936060396
0.008000000000009777068 13.38025566910806319 0.008000000000009777068 10.44847967958993173
0.010071403294361402914 15.97681976910800117 0.010071403294361402914 12.22137784590678855
0.012679145539692626699 19.00782624101402263 0.012679145539692626699 14.23399486602309771
0.015962098519750611558 22.53096384319792023 0.015962098519750611558 16.50927440330103835
0.020095091452091651263 26.60938344913451914 0.020095091452091651263 19.07212636581403586
0.025298221281360611101 31.31219336329301939 0.025298221281360611101 21.94990243610399006
0.031848573644296607199 36.71506690267067796 0.031848573644296607199 25.17298027851769859
0.040094978690191851456 42.90099793137209616 0.040094978690191851456 28.77563990362231650
0.050476587558435426217 49.96129956982741760 0.050476587558435426217 32.79738402576537482
0.063546258777947173257 57.99695011042914672 0.063546258777947173257 37.28425724688403875
0.080000000000012505552 67.12017422858502869 0.080000000000012505552 42.28860029473409554
0.100714032943542974863 77.45564096389101394 0.100714032943542974863 47.86504512548707169
0.126791455396883634421 89.14015398014147706 0.126791455396883634421 54.06156917167922416
0.159620985197506115583 102.31967009878161434 0.159620985197506115583 60.90745326532968562
0.200950914520774404082 117.14337012855823161 0.200950914520774404082 68.40293943057487525
0.252982212813464002465 133.75582446067633668 0.252982212813464002465 76.51662563776301340
0.318485736442809752589 152.28975038544433573 0.318485736442809752589 85.18872772036004903
0.400949786901833249431 172.85953717301228494 0.400949786901833249431 94.35174059011141878
0.504765875584169521062 195.56330529035273003 0.504765875584169521062 103.94254254164739848
0.635462587779443310865 220.48174061867857176 0.635462587779443310865 113.91759105710394806
0.800000000000011368684 247.68675621674353238 0.800000000000011368684 124.27324995885557257
1.007140329435344483500 277.24913128964811904 1.007140329435344483500 135.07107063427389448
1.267914553968907398485 309.25792828074639829 1.267914553968907398485 146.33929223879428605
1.596209851975117999245 343.78233841107368107 1.596209851975117999245 158.27130996763702342
2.009509145207687197399 380.97956472523367211 2.009509145207687197399 170.97211958905711526
2.529822128134725289783 420.94055852064747114 2.529822128134725289783 184.66320488450415382
3.184857364427983839050 463.88622397492952132 3.184857364427983839050 199.64583793353384067
4.009497869018204596614 509.99539836566685835 4.009497869018204596614 216.03220626826384887
5.009497869018190385759 557.79139839974413917 5.009497869018190385759 233.33026575978345818
6.009497869018190385759 599.31034123368351629 6.009497869018190385759 248.52795874249838448
7.009497869018204596614 636.18535963452575288 7.009497869018204596614 262.08229493594546966
8.009497869018190385759 669.44004801901940027 8.009497869018190385759 274.24726287842088368
9.009497869018204596614 699.76531027878695568 9.009497869018204596614 285.24695243499223807
10.009497869018190385759 727.65482856921528310 10.009497869018190385759 295.22573292871010153
11.009497869018190385759 753.47698717400464830 11.009497869018190385759 304.23492323661224646
12.009497869018204596614 777.51639065026722619 12.009497869018204596614 312.47302118545985650
13.009497869018190385759 799.99782842346451162 13.009497869018190385759 320.02517085688003817
14.009497869018204596614 821.10522527338457621 14.009497869018204596614 326.95390101499032198
15.009497869018190385759 840.98695965446324863 15.009497869018190385759 333.33342601318821607
16.009497869018190385759 859.76614448316865946 16.009497869018190385759 339.22829556706562926
17.009497869018204596614 877.55053653380343803 17.009497869018204596614 344.69864249491348573
18.009497869018190385759 894.43341298947143514 18.009497869018190385759 349.80655828085082248
19.009497869018204596614 910.49405921802406283 19.009497869018204596614 354.56798605480327069
20.009497869018190385759 925.80402153954435107 20.009497869018190385759 359.00659405714327477
21.009497869018190385759 940.42191718359345032 21.009497869018190385759 363.14433878858255866
22.009497869018204596614 954.39790559946243320 22.009497869018204596614 367.01726443481356910
23.009497869018190385759 967.77784416669385337 23.009497869018190385759 370.63865729253376458
24.009497869018204596614 980.60412269595758517 24.009497869018204596614 374.04698477022537872
25.009497869018204596614 992.91648563296939756 25.009497869018204596614 377.26016666714662051
26.009497869018190385759 1004.74991686301154914 26.009497869018190385759 380.29704202247853573
27.009497869018204596614 1016.13632786816322096 27.009497869018204596614 383.17817943783342116
28.009497869018190385759 1027.10343405267758499 28.009497869018190385759 385.91039256967184201
29.009497869018190385759 1037.67609496943327940 29.009497869018190385759 388.48223225739292275
30.009497869018190385759 1047.87738006191125351 30.009497869018190385759 390.94551278859199783
31.009497869018218807469 1057.72842184863725379 31.009497869018218807469 393.28257656282721655
32.009497869018190385759 1067.24868538001078377 32.009497869018190385759 395.50289912936199244
33.009497869018190385759 1076.45618530412343716 33.009497869018190385759 397.60319824037787839
34.009497869018218807469 1085.36824283218584242 34.009497869018218807469 399.62712468010795419
35.009497869018190385759 1094.00028956758183085 35.009497869018190385759 401.55614897414727693
36.009497869018190385759 1102.36659068898416081 36.009497869018190385759 403.41540568093063257
37.009497869018190385759 1110.48036063274093976 37.009497869018190385759 405.20321988742330177
38.009497869018218807469 1118.35418448958148474 38.009497869018218807469 406.92751091095368565
39.009497869018190385759 1125.99957640218008237 39.009497869018190385759 408.60031442219275277
40.009497869018190385759 1133.42731868844361998 40.009497869018190385759 410.21639853443434731
41.009497869018218807469 1140.64776586187508656 41.009497869018218807469 411.77439715816353782
42.009497869018190385759 1147.67039813122664782 42.009497869018190385759 413.26867589551727633
43.009497869018190385759 1154.50412553896444479 43.009497869018190385759 414.73035157429228548
44.009497869018218807469 1161.15756539621861521 44.009497869018218807469 416.10955796398201301
46.009497869018190385759 1173.95571525485001985 46.009497869018190385759 418.75821615031452438
48.009497869018218807469 1186.12002582900663583 48.009497869018218807469 421.21485939602479220
50.009497869018190385759 1197.69453192846731326 50.009497869018190385759 423.40285393437130779
52.009497869018190385759 1208.72300099916947147 52.009497869018190385759 425.38795593574383247
54.009497869018218807469 1219.24698832318631503 54.009497869018218807469 427.19834208314722446
56.009497869018190385759 1229.29941091857631363 56.009497869018190385759 428.85306024174951744
58.009497869018218807469 1238.90895885484223982 58.009497869018218807469 430.41768401239653485
60.009497869018190385759 1248.10393937432195344 60.009497869018190385759 431.99844945387775397
62.009497869018190385759 1256.90819568975052789 62.009497869018190385759 433.54238808572017660
64.009497869018218807469 1265.34660596590697423 64.009497869018218807469 435.04922361466071834
66.009497869018190385759 1273.45240247079982510 66.009497869018190385759 436.67028307096177286
68.009497869018190385759 1281.25429717770407478 68.009497869018190385759 438.32469041687784284
70.009497869018190385759 1288.76963144572187048 70.009497869018190385759 439.74812162253772385
72.009497869018190385759 1296.01642218704387233 72.009497869018190385759 440.91656568101336688
74.009497869018218807469 1303.01135609586526698 74.009497869018218807469 442.02108816049923234
76.009497869018190385759 1309.76784776366980623 76.009497869018190385759 443.06482641744696593
78.009497869018190385759 1316.30307857004504513 78.009497869018190385759 444.24277149310262303
80.009497869018218807469 1322.62770820737159738 80.009497869018218807469 445.11654272957486000
82.009497869018190385759 1328.74166996916505923 82.009497869018190385759 446.11004491955742424
84.009497869018218807469 1334.64793848933459230 84.009497869018218807469 446.97594748208888404
86.009497869018190385759 1340.35139149807105241 86.009497869018190385759 447.46516216690025658
88.009497869018190385759 1345.86576935497373597 88.009497869018190385759 448.05668516123853351
91.009497869018218807469 1353.79556679770166738 91.009497869018218807469 448.75306931881181072
94.009497869018218807469 1361.34228625045579975 94.009497869018218807469 449.75952622248144053
97.009497869018218807469 1368.55760351462026847 97.009497869018218807469 451.32617911388865650
99.504748934509137825444 1374.34388627719636133 99.504748934509137825444 451.64971717839443954
nan nan nan nan

