Time Pressure difference Time.1 Pressure.1 difference.1
(hr) (psi) (hr) (psi)
0.000200000000020850166 0.40769880850657947 0.000200000000020850166 0.32829832129649134
0.000399999999999067768 0.78215734249929658 0.000399999999999067768 0.75216373643448309
0.000600000000019917934 1.13739823685772556 0.000600000000019917934 1.05671883309487469
0.000799999999998135536 1.47825424842938991 0.000799999999998135536 1.34871894594310637
0.001007140329434719206 1.81900681547420429 0.001007140329434719206 1.63933511310344815
0.001267914553977789183 2.23318812557190460 0.001267914553977789183 1.98894133473458101
0.001596209851982166583 2.73493617624392327 0.001596209851982166583 2.40475835652496972
0.002009509145224797066 3.34060205747799310 0.002009509145224797066 2.89685909019150767
0.002529822128153114136 4.06896147266451269 0.002529822128153114136 3.47621796053783161
0.003184857364431081805 4.94141788892559486 0.003184857364431081805 4.15466738462675789
0.004009497869034817086 5.98219379647098926 0.004009497869034817086 4.94484434125968608
0.005047658755856332391 7.21850894029247403 0.005047658755856332391 5.86013991605449913
0.006354625877790454069 8.68074790098581239 0.006354625877790454069 6.91466929137165387
0.008000000000009777068 10.40262387969171876 0.008000000000009777068 8.12328306045151649
0.010071403294361402914 12.42135060508396727 0.010071403294361402914 9.50164183454950084
0.012679145539692626699 14.77783923160148838 0.012679145539692626699 11.06637261338457634
0.015962098519750611558 17.51694050576728401 0.015962098519750611558 12.83531319514845315
0.020095091452091651263 20.68775175431999003 0.020095091452091651263 14.82783005616069971
0.025298221281360611101 24.34400197288829659 0.025298221281360611101 17.06518805660010685
0.031848573644296607199 28.54452419679817510 0.031848573644296607199 19.57100463879050878
0.040094978690191851456 33.35384289956888892 0.040094978690191851456 22.37193116615429744
0.050476587558435426217 38.84295045015112890 0.050476587558435426217 25.49867944941815878
0.063546258777947173257 45.09035350953478627 0.063546258777947173257 28.98704736027361051
0.080000000000012505552 52.18330236031218305 0.080000000000012505552 32.87772776124120355
0.100714032943542974863 60.21872229004365096 0.100714032943542974863 37.21319485505057401
0.126791455396883634421 69.30297278056647770 0.126791455396883634421 42.03074921335974068
0.159620985197506115583 79.54952953471608623 0.159620985197506115583 47.35315553438613279
0.200950914520774404082 91.07437477897893530 0.200950914520774404082 53.18060198240129210
0.252982212813464002465 103.98990632106789178 0.252982212813464002465 59.48867471124228956
0.318485736442809752589 118.39930664774202285 0.318485736442809752589 66.23089387674211537
0.400949786901833249431 134.39150892908941159 0.400949786901833249431 73.35477692098534419
0.504765875584169521062 152.04279797894753301 0.504765875584169521062 80.81124919429076670
0.635462587779443310865 171.41590390467877114 0.635462587779443310865 88.56645809717782925
0.800000000000011368684 192.56673628833840439 0.800000000000011368684 96.61757664418871627
1.007140329435344483500 215.55032318524715151 1.007140329435344483500 105.01245862436415734
1.267914553968907398485 240.43590715122223855 1.267914553968907398485 113.77305887324234845
1.596209851975117999245 267.27728164626984153 1.596209851975117999245 123.04973456827701739
2.009509145207687197399 296.19666587054541651 2.009509145207687197399 132.92411580033683549
2.529822128134725289783 327.26477088980442431 2.529822128134725289783 143.56839752076285777
3.184857364427983839050 360.65334103614350170 3.184857364427983839050 155.21680695260479865
4.009497869018204596614 396.50141527715896927 4.009497869018204596614 167.95656550100397908
5.009497869018190385759 433.66093028225469652 5.009497869018190385759 181.40512815846219041
6.009497869018190385759 465.94027956113762912 6.009497869018190385759 193.22073825201371733
7.009497869018204596614 494.60915977291944046 7.009497869018204596614 203.75870291025717052
8.009497869018190385759 520.46337542134892828 8.009497869018190385759 213.21648825783077541
9.009497869018204596614 544.04007717822946688 9.009497869018204596614 221.76831537385271531
10.009497869018190385759 565.72308355238567401 10.009497869018190385759 229.52642574343371962
11.009497869018190385759 585.79879887279957984 11.009497869018190385759 236.53071778024778382
12.009497869018204596614 604.48849201768280182 12.009497869018204596614 242.93551575759715888
13.009497869018190385759 621.96692794691614381 13.009497869018190385759 248.80701585877267235
14.009497869018204596614 638.37710096147588956 14.009497869018204596614 254.19383174489263411
15.009497869018190385759 653.83436948884798312 15.009497869018190385759 259.15366216431891644
16.009497869018190385759 668.43444899190728847 16.009497869018190385759 263.73669198866014085
17.009497869018204596614 682.26111613541070255 17.009497869018204596614 267.98967212514673975
18.009497869018190385759 695.38689026998838472 18.009497869018190385759 271.96087626685260830
19.009497869018204596614 707.87341265880615993 19.009497869018204596614 275.66269957185130579
20.009497869018190385759 719.77630775898956017 20.009497869018190385759 279.11354316853510227
21.009497869018190385759 731.14114816698770483 21.009497869018190385759 282.33047737486089090
22.009497869018204596614 742.00693088688592525 22.009497869018204596614 285.34152513120307049
23.009497869018190385759 752.40930823230826263 23.009497869018190385759 288.15701601202698612
24.009497869018204596614 762.38123661811243892 24.009497869018204596614 290.80685691836350770
25.009497869018204596614 771.95361579168093158 25.009497869018204596614 293.30497979114824147
26.009497869018190385759 781.15364435141430022 26.009497869018190385759 295.66603124429502714
27.009497869018204596614 790.00613222275183034 27.009497869018204596614 297.90600255865791723
28.009497869018190385759 798.53262704523422144 28.009497869018190385759 300.03019108483761102
29.009497869018190385759 806.75245614599316468 29.009497869018190385759 302.02969554961362064
30.009497869018190385759 814.68355511232755362 30.009497869018190385759 303.94479952893379959
31.009497869018218807469 822.34235364836990811 31.009497869018218807469 305.76177493115665129
32.009497869018190385759 829.74398506719819579 32.009497869018190385759 307.48798862411166510
33.009497869018190385759 836.90245505099471757 33.009497869018190385759 309.12088878888147292
34.009497869018218807469 843.83123016197043853 34.009497869018218807469 310.69441219780145502
35.009497869018190385759 850.54230786637958772 35.009497869018190385759 312.19415291142695423
36.009497869018190385759 857.04677878102199884 36.009497869018190385759 313.63965206292039056
37.009497869018190385759 863.35491661176013167 37.009497869018190385759 315.02960747310373790
38.009497869018218807469 869.47650577292711205 38.009497869018218807469 316.37017610052743066
39.009497869018190385759 875.42049805875615220 39.009497869018190385759 317.67071520698294762
40.009497869018190385759 881.19527629843344130 40.009497869018190385759 318.92715720580133620
41.009497869018218807469 886.80889072000286433 41.009497869018218807469 320.13844001597590250
42.009497869018190385759 892.26871181386377430 42.009497869018190385759 321.30018311420388955
43.009497869018190385759 897.58166678849590880 43.009497869018190385759 322.43657861339409010
44.009497869018218807469 902.75445526524845263 44.009497869018218807469 323.50885747556378647
46.009497869018190385759 912.70451471311469049 46.009497869018190385759 325.56808530944573477
48.009497869018218807469 922.16178898260841379 48.009497869018218807469 327.47802905967694187
50.009497869018190385759 931.16051341086279081 50.009497869018190385759 329.17910897893347055
52.009497869018190385759 939.73471547011047278 52.009497869018190385759 330.72244791010041354
54.009497869018218807469 947.91670276196362011 54.009497869018218807469 332.12995211885197477
56.009497869018190385759 955.73206697663931664 56.009497869018190385759 333.41643057311478060
58.009497869018218807469 963.20311351767338692 58.009497869018218807469 334.63286417511568516
60.009497869018190385759 970.35185015549996024 60.009497869018190385759 335.86184729295774787
62.009497869018190385759 977.19681405265907870 62.009497869018190385759 337.06219901100922698
64.009497869018218807469 983.75734700630414409 64.009497869018218807469 338.23370452209712766
66.009497869018190385759 990.05928580112117743 66.009497869018190385759 339.49401465574061376
68.009497869018190385759 996.12495286996943378 68.009497869018190385759 340.78025146533298084
70.009497869018190385759 1001.96783043925597667 70.009497869018190385759 341.88691338699436528
72.009497869018190385759 1007.60192595141086258 72.009497869018190385759 342.79533280478216284
74.009497869018218807469 1013.04021265655740081 74.009497869018218807469 343.65405570252789857
76.009497869018190385759 1018.29311987332380340 76.009497869018190385759 344.46552125179545101
78.009497869018190385759 1023.37400545032039645 78.009497869018190385759 345.38132733771891481
80.009497869018218807469 1028.29115688019624031 80.009497869018218807469 346.06065019631711266
82.009497869018190385759 1033.04452230127662915 82.009497869018190385759 346.83305917426361020
84.009497869018218807469 1037.63641437473256701 84.009497869018218807469 347.50626444755840794
86.009497869018190385759 1042.07062534443480217 86.009497869018190385759 347.88660967326768514
88.009497869018190385759 1046.35783780094243411 88.009497869018190385759 348.34649559611267478
91.009497869018218807469 1052.52294422931163353 91.009497869018218807469 348.88790695970391198
94.009497869018218807469 1058.39022254849987803 94.009497869018218807469 349.67038771933295038
97.009497869018218807469 1063.99984866685872476 97.009497869018218807469 350.88839888312310222
99.504748934509137825444 1068.49845652078738567 99.504748934509137825444 351.13993703598424645
nan nan nan nan

