Time Pressure difference Time.1 Pressure.1 difference.1
(hr) (psi) (hr) (psi)
0.000200000000020850166 0.29025162880835381 0.000200000000020850166 0.23372430947346540
0.000399999999999067768 0.55683862181601307 0.000399999999999067768 0.53548537566344845
0.000600000000019917934 0.80974406587302294 0.000600000000019917934 0.75230625181800248
0.000799999999998135536 1.05240852915707039 0.000799999999998135536 0.96018890096500054
0.001007140329434719206 1.29499934753025903 0.001007140329434719206 1.16708628235621625
0.001267914553977789183 1.58986604169155776 0.001267914553977789183 1.41598025298535335
0.001596209851982166583 1.94707382822503150 0.001596209851982166583 1.71201145381961117
0.002009509145224797066 2.37826348312194735 0.002009509145224797066 2.06235105870514657
0.002529822128153114136 2.89680192916299273 0.002529822128153114136 2.47481205263977699
0.003184857364431081805 3.51792686404244215 0.003184857364431081805 2.95781824813794891
0.004009497869034817086 4.25888292299219007 0.004009497869034817086 3.52036624662157438
0.005047658755856332391 5.13904856666693632 0.005047658755856332391 4.17198951821861641
0.006354625877790454069 6.18005538638989993 0.006354625877790454069 4.92273703679303143
0.008000000000009777068 7.40590470700988401 0.008000000000009777068 5.78318133478016261
0.010071403294361402914 8.84308997205977931 0.010071403294361402914 6.76447161799120433
0.012679145539692626699 10.52073692084656464 0.012679145539692626699 7.87844508989580916
0.015962098519750611558 12.47077599309670859 0.015962098519750611558 9.13780095361027556
0.020095091452091651263 14.72816088197459727 0.020095091452091651263 10.55632671888137963
0.025298221281360611101 17.33114268895533527 0.025298221281360611101 12.14916140543273571
0.031848573644296607199 20.32160621717007487 0.031848573644296607199 13.93311889880865628
0.040094978690191851456 23.74548815602335239 0.040094978690191851456 15.92717301370250915
0.050476587558435426217 27.65332986175896934 0.050476587558435426217 18.15318830527384719
0.063546258777947173257 32.10102231504495052 0.063546258777947173257 20.63665023080029570
0.080000000000012505552 37.15068131339656077 0.080000000000012505552 23.40652912176437539
0.100714032943542974863 42.87131054777419337 0.100714032943542974863 26.49306349313692266
0.126791455396883634421 49.33863016304549376 0.126791455396883634421 29.92280861428179506
0.159620985197506115583 56.63342653113732439 0.159620985197506115583 33.71197127952627426
0.200950914520774404082 64.83827048485106559 0.200950914520774404082 37.86068544802147073
0.252982212813464002465 74.03318101389787387 0.252982212813464002465 42.35157025314130408
0.318485736442809752589 84.29161647582368744 0.318485736442809752589 47.15153545720355766
0.400949786901833249431 95.67689076052604946 0.400949786901833249431 52.22321733090333140
0.504765875584169521062 108.24331305657182156 0.504765875584169521062 57.53167832547673299
0.635462587779443310865 122.03554259635846790 0.635462587779443310865 63.05281787468805987
0.800000000000011368684 137.09338289885377549 0.800000000000011368684 68.78462337237654367
1.007140329435344483500 153.45600990068970759 1.007140329435344483500 74.76116320413449046
1.267914553968907398485 171.17271921958572989 1.267914553968907398485 80.99806760150097773
1.596209851975117999245 190.28180785092237670 1.596209851975117999245 87.60237983943389395
2.009509145207687197399 210.87028689499379652 2.009509145207687197399 94.63221455143246885
2.529822128134725289783 232.98849744081488211 2.529822128134725289783 102.21016190468988327
3.184857364427983839050 256.75870884774985825 3.184857364427983839050 110.50297449102872349
4.009497869018204596614 282.27990665603243770 4.009497869018204596614 119.57274754933862937
5.009497869018190385759 308.73475403580698639 5.009497869018190385759 129.14713711097857640
6.009497869018190385759 331.71528159581907858 6.009497869018190385759 137.55898429684646089
7.009497869018204596614 352.12542016861056027 7.009497869018204596614 145.06124170491702330
8.009497869018190385759 370.53172415318050525 8.009497869018190385759 151.79449072300613466
9.009497869018204596614 387.31660540395051839 9.009497869018204596614 157.88276397257772032
10.009497869018190385759 402.75331452903782292 10.009497869018190385759 163.40596915312343640
11.009497869018190385759 417.04575039017663585 11.009497869018190385759 168.39251100685530105
12.009497869018204596614 430.35144018873563709 12.009497869018204596614 172.95225708981232060
13.009497869018190385759 442.79480374936406406 13.009497869018190385759 177.13233422606199952
14.009497869018204596614 454.47764251936263236 14.009497869018204596614 180.96735177434555908
15.009497869018190385759 465.48208323242755569 15.009497869018190385759 184.49838700872615505
16.009497869018190385759 475.87626827313761169 16.009497869018190385759 187.76116787449569756
17.009497869018204596614 485.71984047805381124 17.009497869018204596614 190.78897758634298043
18.009497869018190385759 495.06442830230366781 18.009497869018190385759 193.61618347071345170
19.009497869018204596614 503.95391580113175678 19.009497869018204596614 196.25160997041891164
20.009497869018190385759 512.42790350548250444 20.009497869018190385759 198.70835733833322934
21.009497869018190385759 520.51883575925000969 21.009497869018190385759 200.99857838797436216
22.009497869018204596614 528.25447556717745101 22.009497869018204596614 203.14222339615929513
23.009497869018190385759 535.66020475988193539 23.009497869018190385759 205.14664626177332707
24.009497869018204596614 542.75948588592223132 24.009497869018204596614 207.03313850334870949
25.009497869018204596614 549.57431729756365257 25.009497869018204596614 208.81161864030369202
26.009497869018190385759 556.12406240063990026 26.009497869018190385759 210.49251398676415192
27.009497869018204596614 562.42638404115166395 27.009497869018204596614 212.08720916102615206
28.009497869018190385759 568.49662255697410274 28.009497869018190385759 213.59947548792106886
29.009497869018190385759 574.34853758650524469 29.009497869018190385759 215.02297591422035339
30.009497869018190385759 579.99489795152862825 30.009497869018190385759 216.38638938940613343
31.009497869018218807469 585.44740039553687438 31.009497869018218807469 217.67994251979595788
32.009497869018190385759 590.71681872673923408 32.009497869018190385759 218.90887997459691405
33.009497869018190385759 595.81312396291002642 33.009497869018190385759 220.07138504602940543
34.009497869018218807469 600.74590330797173010 34.009497869018218807469 221.19161822522377747
35.009497869018190385759 605.52369807734908136 35.009497869018190385759 222.25932354061220053
36.009497869018190385759 610.15440397621375723 36.009497869018190385759 223.28841284479469209
37.009497869018190385759 614.64533512910622903 37.009497869018190385759 224.27795908176923945
38.009497869018218807469 619.00345732090954698 38.009497869018218807469 225.23234555413696967
39.009497869018190385759 623.23514357210535763 39.009497869018190385759 226.15823394552177206
40.009497869018190385759 627.34636184182045326 40.009497869018190385759 227.05272843275398031
41.009497869018218807469 631.34284330157993281 41.009497869018218807469 227.91507289210764498
42.009497869018190385759 635.22983519959461773 42.009497869018190385759 228.74214871249745329
43.009497869018190385759 639.01226919988334885 43.009497869018190385759 229.55117890274661363
44.009497869018218807469 642.69491494113094632 44.009497869018218807469 230.31456275324541139
46.009497869018190385759 649.77862698841920519 46.009497869018190385759 231.78058183498151834
48.009497869018218807469 656.51151215642585157 48.009497869018218807469 233.14032160578832986
50.009497869018190385759 662.91794349250403684 50.009497869018190385759 234.35136565839667355
52.009497869018190385759 669.02214605945482617 52.009497869018190385759 235.45010970480544188
54.009497869018218807469 674.84712049842551096 54.009497869018218807469 236.45214939837532597
56.009497869018190385759 680.41108621456157834 56.009497869018190385759 237.36802763737347277
58.009497869018218807469 685.72992301808676530 58.009497869018218807469 238.23403908246768879
60.009497869018190385759 690.81929882630083739 60.009497869018190385759 239.10898486177541145
62.009497869018190385759 695.69241073840680656 62.009497869018190385759 239.96354718581943644
64.009497869018218807469 700.36302869439634833 64.009497869018218807469 240.79757312765815414
66.009497869018190385759 704.84954658868809929 66.009497869018190385759 241.69482144298595472
68.009497869018190385759 709.16785635513429042 68.009497869018190385759 242.61052764871413956
70.009497869018190385759 713.32755634941531753 70.009497869018190385759 243.39838971404373069
72.009497869018190385759 717.33861884247221496 72.009497869018190385759 244.04511766652382221
74.009497869018218807469 721.21027983622786905 74.009497869018218807469 244.65646534418499414
76.009497869018190385759 724.94996424009104885 76.009497869018190385759 245.23416925815894274
78.009497869018190385759 728.56718186187947595 78.009497869018190385759 245.88615597621085840
80.009497869018218807469 732.06783278810291904 80.009497869018218807469 246.36978399297439069
82.009497869018190385759 735.45188009705566401 82.009497869018190385759 246.91968249470508567
84.009497869018218807469 738.72097023375442859 84.009497869018218807469 247.39895523972964497
86.009497869018190385759 741.87780299750579616 86.009497869018190385759 247.66973312518868511
88.009497869018190385759 744.92998360874423724 88.009497869018190385759 247.99713814915912735
91.009497869018218807469 749.31908690086766001 91.009497869018218807469 248.38258330342225122
94.009497869018218807469 753.49615843819799466 94.009497869018218807469 248.93965217449758143
97.009497869018218807469 757.48980051879129860 97.009497869018218807469 249.80678672780140914
99.504748934509137825444 760.69247913773494929 99.504748934509137825444 249.98586343112270924
nan nan nan nan

