Time Pressure difference Time.1 Pressure.1 difference.1
(hr) (psi) (hr) (psi)
0.000200000000020850166 0.62538753011284487 0.000200000000020850166 0.50359155340159034
0.000399999999999067768 1.19978630886130633 0.000399999999999067768 1.15377776818206934
0.000600000000019917934 1.74470628626249291 0.000600000000019917934 1.62094852195837658
0.000799999999998135536 2.26756064529719259 0.000799999999998135536 2.06886062166685702
0.001007140329434719206 2.79025632612189822 0.001007140329434719206 2.51464982487061040
0.001267914553977789183 3.42558765684057276 0.001267914553977789183 3.05092652447359614
0.001596209851982166583 4.19524154741269761 0.001596209851982166583 3.68876694688967799
0.002009509145224797066 5.12429966981945384 0.002009509145224797066 4.44362238422036793
0.002529822128153114136 6.24156291953675790 0.002529822128153114136 5.33232700001766435
0.003184857364431081805 7.57986303695742691 0.003184857364431081805 6.37303107073022002
0.004009497869034817086 9.17635598871513203 0.004009497869034817086 7.58511902622586653
0.005047658755856332391 11.07279536529267538 0.005047658755856332391 8.98913205471846055
0.006354625877790454069 13.31578944077823756 0.006354625877790454069 10.60672206896642678
0.008000000000009777068 15.95705240994913332 0.008000000000009777068 12.46066906153664000
0.010071403294361402914 19.05366808412880175 0.010071403294361402914 14.57499554804290476
0.012679145539692626699 22.66839192223640964 0.012679145539692626699 16.97520643080643410
0.015962098519750611558 26.87002250058981545 0.015962098519750611558 19.68866391035615848
0.020095091452091651263 31.73387241580093487 0.020095091452091651263 22.74507509532173444
0.025298221281360611101 37.34235898960479716 0.025298221281360611101 26.17705911067465863
0.031848573644296607199 43.78572885967572859 0.031848573644296607199 30.02084381289699877
0.040094978690191851456 51.16295901658639877 0.040094978690191851456 34.31731092643117620
0.050476587558435426217 59.58294784647035414 0.050476587558435426217 39.11357067837354151
0.063546258777947173257 69.16612024581849028 0.063546258777947173257 44.46453503337383495
0.080000000000012505552 80.04631334535960718 0.080000000000012505552 50.43262460256448065
0.100714032943542974863 92.37220520087429065 0.100714032943542974863 57.08299247490327133
0.126791455396883634421 106.30694540285060157 0.126791455396883634421 64.47285567407108431
0.159620985197506115583 122.02459943306907064 0.159620985197506115583 72.63713399403084736
0.200950914520774404082 139.70307764261724515 0.200950914520774404082 81.57611606841739160
0.252982212813464002465 159.51479208149129363 0.252982212813464002465 91.25235240109826407
0.318485736442809752589 181.61801900460980619 0.318485736442809752589 101.59454546964478538
0.400949786901833249431 206.14917699948398422 0.400949786901833249431 112.52218991916284097
0.504765875584169521062 233.22528277137644181 0.504765875584169521062 123.96000793839831999
0.635462587779443310865 262.94256085194763273 0.635462587779443310865 135.85607150319387415
0.800000000000011368684 295.38677346247874311 0.800000000000011368684 148.20604417347112758
1.007140329435344483500 330.64233061076441800 1.007140329435344483500 161.08333102746502163
1.267914553968907398485 368.81544656591148623 1.267914553968907398485 174.52160957436805688
1.596209851975117999245 409.98863753446158853 1.596209851975117999245 188.75151944785241653
2.009509145207687197399 454.34938104179076390 2.009509145207687197399 203.89827671391120134
2.529822128134725289783 502.00614397041550774 2.529822128134725289783 220.22601894928027377
3.184857364427983839050 553.22237267195600907 3.184857364427983839050 238.09403782087633772
4.009497869018204596614 608.21134526918331176 4.009497869018204596614 257.63612616300792979
5.009497869018190385759 665.21199580910990790 5.009497869018190385759 278.26548099169610850
6.009497869018190385759 714.72674075800193805 6.009497869018190385759 296.38997647464856300
7.009497869018204596614 758.70322489937734645 7.009497869018204596614 312.55463418894493088
8.009497869018190385759 798.36216853623420775 8.009497869018190385759 327.06235630008535509
9.009497869018204596614 834.52753123119236989 9.009497869018204596614 340.18038835328604819
10.009497869018190385759 867.78806944916414068 10.009497869018190385759 352.08090260827623297
11.009497869018190385759 898.58311166543217041 11.009497869018190385759 362.82510103538925250
12.009497869018204596614 927.25207215923455806 12.009497869018204596614 372.64970857495637802
13.009497869018190385759 954.06303075893913501 13.009497869018190385759 381.65626652831917909
14.009497869018204596614 979.23533285099779278 14.009497869018204596614 389.91934557565178920
15.009497869018190385759 1002.94593191316857883 15.009497869018190385759 397.52745242086359667
16.009497869018190385759 1025.34165019676061092 16.009497869018190385759 404.55756789453198508
17.009497869018204596614 1046.55099649395106098 17.009497869018204596614 411.08140531490397507
18.009497869018190385759 1066.68521149671619241 18.009497869018190385759 417.17301386988765444
19.009497869018204596614 1085.83884950965489224 19.009497869018204596614 422.85140704966551084
20.009497869018190385759 1104.09723538810158061 20.009497869018190385759 428.14481117228501716
21.009497869018190385759 1121.53027498642518367 21.009497869018190385759 433.07941116584163410
22.009497869018204596614 1138.19778756226901351 22.009497869018204596614 437.69819267832258447
23.009497869018190385759 1154.15446180221965733 23.009497869018190385759 442.01700070835698853
24.009497869018204596614 1169.45085103255405556 24.009497869018204596614 446.08171079587503982
25.009497869018204596614 1184.13435376485381312 25.009497869018204596614 449.91369377137601759
26.009497869018190385759 1198.24669115189431068 26.009497869018190385759 453.53541673436814108
27.009497869018204596614 1211.82592025361554988 27.009497869018204596614 456.97140942942758102
28.009497869018190385759 1224.90509396296488376 28.009497869018190385759 460.22979770077841977
29.009497869018190385759 1237.51385933587198451 29.009497869018190385759 463.29692748527889989
30.009497869018190385759 1249.67972857597419534 30.009497869018190385759 466.23459157098841388
31.009497869018218807469 1261.42790394502253548 31.009497869018218807469 469.02173182100364102
32.009497869018190385759 1272.78159911225247924 32.009497869018190385759 471.66964860505942170
33.009497869018190385759 1283.76229802317720896 33.009497869018190385759 474.17442757340359094
34.009497869018218807469 1294.39065764294923611 34.009497869018218807469 476.58812586671928102
35.009497869018190385759 1304.68508142439145558 35.009497869018190385759 478.88864556688611174
36.009497869018190385759 1314.66258176318251572 36.009497869018190385759 481.10596169651643095
37.009497869018190385759 1324.33891795858971818 37.009497869018190385759 483.23807678443068880
38.009497869018218807469 1333.72909876360927228 38.009497869018218807469 485.29443526613016502
39.009497869018190385759 1342.84685573783531254 39.009497869018190385759 487.28939066612423403
40.009497869018190385759 1351.70504767979878125 40.009497869018190385759 489.21670353036682855
41.009497869018218807469 1360.31602319618764341 41.009497869018218807469 491.07474468505665754
42.009497869018190385759 1368.69108821355962391 42.009497869018190385759 492.85679464857696530
43.009497869018190385759 1376.84086868840836360 43.009497869018190385759 494.59996279045407164
44.009497869018218807469 1384.77564147109660553 44.009497869018218807469 496.24477954049780237
46.009497869018190385759 1400.03848495442889543 46.009497869018190385759 499.40352168568188063
48.009497869018218807469 1414.54542309992780247 48.009497869018218807469 502.33327026401809690
50.009497869018190385759 1428.34897103024081844 50.009497869018190385759 504.94263322273098993
52.009497869018190385759 1441.50132501470170610 52.009497869018190385759 507.31003018870444521
54.009497869018218807469 1454.05204313578292386 54.009497869018218807469 509.46906416763346215
56.009497869018190385759 1466.04038163756058566 56.009497869018190385759 511.44245130114484255
58.009497869018218807469 1477.50055578123829036 58.009497869018218807469 513.30839348696645175
60.009497869018190385759 1488.46632427522558828 60.009497869018190385759 515.19358593928927803
62.009497869018190385759 1498.96612210646412677 62.009497869018190385759 517.03485940037387536
64.009497869018218807469 1509.02961852710154744 64.009497869018218807469 518.83188436784075748
66.009497869018190385759 1518.69644574263702452 66.009497869018190385759 520.76513073798014375
68.009497869018190385759 1528.00084513632032213 68.009497869018190385759 522.73814720186862814
70.009497869018190385759 1536.96349770131746482 70.009497869018190385759 524.43570567252720593
72.009497869018190385759 1545.60589008326496696 72.009497869018190385759 525.82917105467504371
74.009497869018218807469 1553.94792253372816049 74.009497869018218807469 527.14640471066672944
76.009497869018190385759 1562.00559305339220373 76.009497869018190385759 528.39114819541464385
78.009497869018190385759 1569.79939184673003183 78.009497869018190385759 529.79594431987698044
80.009497869018218807469 1577.34203147127345801 80.009497869018218807469 530.83798819104799804
82.009497869018190385759 1584.63343237406843400 82.009497869018190385759 532.02282104529251683
84.009497869018218807469 1591.67714205004836003 84.009497869018218807469 533.05548087735564877
86.009497869018190385759 1598.47897759256397876 86.009497869018190385759 533.63890951715916344
88.009497869018190385759 1605.05532550750058363 88.009497869018190385759 534.34434920798207713
91.009497869018218807469 1614.51225940496237854 91.009497869018218807469 535.17484443727062171
94.009497869018218807469 1623.51234137714845929 94.009497869018218807469 536.37512685020612935
97.009497869018218807469 1632.11719905595236924 97.009497869018218807469 538.24348892897421592
99.504748934509137825444 1639.01781587408891028 99.504748934509137825444 538.62933460932640628
nan nan nan nan

