Time Pressure difference Time.1 Pressure.1 difference.1
(hr) (psi) (hr) (psi)
0.000200000000020850166 0.65381423602706501 0.000200000000020850166 0.52648207855620821
0.000399999999999067768 1.25432205017318399 0.000399999999999067768 1.20622221219034542
0.000600000000019917934 1.82401111745624234 0.000600000000019917934 1.69462800022921178
0.000799999999998135536 2.37063158371979199 0.000799999999998135536 2.16289974083353176
0.001007140329434719206 2.91708615912743907 0.001007140329434719206 2.62895208963745608
0.001267914553977789183 3.58129618669696237 0.001267914553977789183 3.18960500285875970
0.001596209851982166583 4.38593434502236512 0.001596209851982166583 3.85643817174829939
0.002009509145224797066 5.35722238208397439 0.002009509145224797066 4.64560521986674768
0.002529822128153114136 6.52527032497024617 0.002529822128153114136 5.57470550001846732
0.003184857364431081805 7.92440226591003771 0.003184857364431081805 6.66271430121795749
0.004009497869034817086 9.59346307911127383 0.004009497869034817086 7.92989716378158782
0.005047658755856332391 11.57610424553325323 0.005047658755856332391 9.39772896629657239
0.006354625877790454069 13.92105259717724763 0.006354625877790454069 11.08884579937399195
0.008000000000009777068 16.68237297403772956 0.008000000000009777068 13.02706310978830295
0.010071403294361402914 19.91974390613465573 0.010071403294361402914 15.23749534568121611
0.012679145539692626699 23.69877337324715683 0.012679145539692626699 17.74680672311581731
0.015962098519750611558 28.09138715970753353 0.015962098519750611558 20.58360317900871195
0.020095091452091651263 33.17632116197371062 0.020095091452091651263 23.77894214510908455
0.025298221281360611101 39.03973894367774022 0.025298221281360611101 27.36692543388714327
0.031848573644296607199 45.77598926238826493 0.031848573644296607199 31.38542762257413443
0.040094978690191851456 53.48854806279487661 0.040094978690191851456 35.87718869581441794
0.050476587558435426217 62.29126365767355367 0.050476587558435426217 40.89146025466324375
0.063546258777947173257 72.31003480244660864 0.063546258777947173257 46.48565026216355278
0.080000000000012505552 83.68478213378503483 0.080000000000012505552 52.72501662995377814
0.100714032943542974863 96.57094180091404212 0.100714032943542974863 59.67767395103523853
0.126791455396883634421 111.13907928479835618 0.126791455396883634421 67.40344002289249659
0.159620985197506115583 127.57117213457222249 0.159620985197506115583 75.93882190285042100
0.200950914520774404082 146.05321753546348873 0.200950914520774404082 85.28412134425455804
0.252982212813464002465 166.76546444883180698 0.252982212813464002465 95.40018660114819227
0.318485736442809752589 189.87338350481931570 0.318485736442809752589 106.21247935462862699
0.400949786901833249431 215.51959413582414982 0.400949786901833249431 117.63683491548842142
0.504765875584169521062 243.82643198825718400 0.504765875584169521062 129.59455375378007602
0.635462587779443310865 274.89449543612710158 0.635462587779443310865 142.03134748061177106
0.800000000000011368684 308.81344498350051708 0.800000000000011368684 154.94268254499255022
1.007140329435344483500 345.67152745670824743 1.007140329435344483500 168.40530061962252262
1.267914553968907398485 385.57978504618023408 1.267914553968907398485 182.45441000956660105
1.596209851975117999245 428.62448469511895155 1.596209851975117999245 197.33113396820937169
2.009509145207687197399 475.00162563459940657 2.009509145207687197399 213.16638020090715600
2.529822128134725289783 524.82460505997994460 2.529822128134725289783 230.23629253788391225
3.184857364427983839050 578.36884415704480489 3.184857364427983839050 248.91649408546157929
4.009497869018204596614 635.85731550869161310 4.009497869018204596614 269.34685917041741732
5.009497869018190385759 695.44890470952395845 5.009497869018190385759 290.91391194586412894
6.009497869018190385759 747.21431988336564700 6.009497869018190385759 309.86224813258712629
7.009497869018204596614 793.18973512207628573 7.009497869018204596614 326.76166301571515760
8.009497869018190385759 834.65135801515407366 8.009497869018190385759 341.92882704099832836
9.009497869018204596614 872.46060083261022555 9.009497869018204596614 355.64313327843541401
10.009497869018190385759 907.23298169685335779 10.009497869018190385759 368.08457999956158346
11.009497869018190385759 939.42779855931541988 11.009497869018190385759 379.31715108245242618
12.009497869018204596614 969.39989362101789538 12.009497869018204596614 389.58833169199988333
13.009497869018190385759 997.42953215707268555 13.009497869018190385759 399.00427864324274196
14.009497869018204596614 1023.74602979877056441 14.009497869018204596614 407.64295219272690929
15.009497869018190385759 1048.53438336376711959 15.009497869018190385759 415.59688207635736035
16.009497869018190385759 1071.94808884206781840 16.009497869018190385759 422.94654825337431703
17.009497869018204596614 1094.12149633458511744 17.009497869018204596614 429.76692373830871929
18.009497869018190385759 1115.17090292838520327 18.009497869018190385759 436.13542359124625136
19.009497869018204596614 1135.19516085100281089 19.009497869018204596614 442.07192555192307282
20.009497869018190385759 1154.28347336028787140 20.009497869018190385759 447.60593895284341670
21.009497869018190385759 1172.50892384944449987 21.009497869018190385759 452.76483894610720426
22.009497869018204596614 1189.93405063328123106 22.009497869018204596614 457.59356507279181869
23.009497869018190385759 1206.61602824777514797 23.009497869018190385759 462.10868255873685939
24.009497869018204596614 1222.60770789767025235 24.009497869018204596614 466.35815219568752354
25.009497869018204596614 1237.95864257234711658 25.009497869018204596614 470.36431621552947036
26.009497869018190385759 1252.71244984061672767 26.009497869018190385759 474.15066294956670845
27.009497869018204596614 1266.90891662877993440 27.009497869018204596614 477.74283713076511049
28.009497869018190385759 1280.58259823400885580 28.009497869018190385759 481.14933395990470899
29.009497869018190385759 1293.76448930568449214 29.009497869018190385759 484.35587873460974606
30.009497869018190385759 1306.48335260215458220 30.009497869018190385759 487.42707300603331078
31.009497869018218807469 1318.76553594252368384 31.009497869018218807469 490.34090144923106891
32.009497869018190385759 1330.63530816280967883 32.009497869018190385759 493.10917808710752297
33.009497869018190385759 1342.11512975150344573 33.009497869018190385759 495.72781064492193082
34.009497869018218807469 1353.22659662671981096 34.009497869018218807469 498.25122249702474164
35.009497869018190385759 1363.98894876186386682 35.009497869018190385759 500.65631127447176141
36.009497869018190385759 1374.41997184332694815 36.009497869018190385759 502.97441450090349235
37.009497869018190385759 1384.53614150216208145 37.009497869018190385759 505.20344391099570203
38.009497869018218807469 1394.35314870740967308 38.009497869018218807469 507.35327323277243750
39.009497869018190385759 1403.88534918046411804 39.009497869018190385759 509.43890842367534333
40.009497869018190385759 1413.14618621069894289 40.009497869018190385759 511.45382641811067970
41.009497869018218807469 1422.14856970510527390 41.009497869018218807469 513.39632398892285892
42.009497869018190385759 1430.90431949599428663 42.009497869018190385759 515.25937622351227674
43.009497869018190385759 1439.42454453788150204 43.009497869018190385759 517.08177928092925413
44.009497869018218807469 1447.71998881069180243 44.009497869018218807469 518.80136042870230995
46.009497869018190385759 1463.67659790690299815 46.009497869018190385759 522.10368176230372228
48.009497869018218807469 1478.84294233174273359 48.009497869018218807469 525.16660073056436886
50.009497869018190385759 1493.27392425888820071 50.009497869018190385759 527.89457109649151789
52.009497869018190385759 1507.02411251536977943 52.009497869018190385759 530.36957701546384669
54.009497869018218807469 1520.14531782377298441 54.009497869018218807469 532.62674890252594651
56.009497869018190385759 1532.67858080290420730 56.009497869018190385759 534.68983545119704104
58.009497869018218807469 1544.65967195311282012 58.009497869018218807469 536.64059319091950329
60.009497869018190385759 1556.12388446955401378 60.009497869018190385759 538.61147620925692081
62.009497869018190385759 1567.10094583857608086 62.009497869018190385759 540.53644391857255869
64.009497869018218807469 1577.62187391469683462 64.009497869018218807469 542.41515183910621545
66.009497869018190385759 1587.72810236730265387 66.009497869018190385759 544.43627304425194779
68.009497869018190385759 1597.45542900615305371 68.009497869018190385759 546.49897207468075067
70.009497869018190385759 1606.82547486955922977 70.009497869018190385759 548.27369229400574113
72.009497869018190385759 1615.86070326886806470 72.009497869018190385759 549.73049701170577919
74.009497869018218807469 1624.58191901253417200 74.009497869018218807469 551.10760492478789274
76.009497869018190385759 1633.00584728309195270 76.009497869018190385759 552.40892765884257187
78.009497869018190385759 1641.15390965794495060 78.009497869018190385759 553.87757815259863037
80.009497869018218807469 1649.03939653814950361 80.009497869018218807469 554.96698765427731814
82.009497869018190385759 1656.66222475470794961 82.009497869018190385759 556.20567654735111773
84.009497869018218807469 1664.02610305232315113 84.009497869018218807469 557.28527546269003778
86.009497869018190385759 1671.13711293768051291 86.009497869018190385759 557.89522358612100561
88.009497869018190385759 1678.01238575784168461 88.009497869018190385759 558.63272871743583892
91.009497869018218807469 1687.89918028700617469 91.009497869018218807469 559.50097372987374911
94.009497869018218807469 1697.30835689429136437 94.009497869018218807469 560.75581443430644413
97.009497869018218807469 1706.30434446758636113 97.009497869018218807469 562.70910206210942306
99.504748934509137825444 1713.51862568654723873 99.504748934509137825444 563.11248618247748254
nan nan nan nan

