Time Pressure difference Time.1 Pressure.1 difference.1
(hr) (psi) (hr) (psi)
0.000200000000020850166 0.38675281467504879 0.000200000000020850166 0.31143161855098350
0.000399999999999067768 0.74197311205896577 0.000399999999999067768 0.71352046190206919
0.000600000000019917934 1.07896309808338375 0.000600000000019917934 1.00242869121110112
0.000799999999998135536 1.40230724117063232 0.000799999999998135536 1.27942696339924056
0.001007140329434719206 1.72555325431222673 0.001007140329434719206 1.55511239169629834
0.001267914553977789183 2.11845552462509090 0.001267914553977789183 1.88675719276656606
0.001596209851982166583 2.59442569379469434 0.001596209851982166583 2.28121113820809018
0.002009509145224797066 3.16897479580939923 0.002009509145224797066 2.74802963234680631
0.002529822128153114136 3.85991391076615287 0.002529822128153114136 3.29762327632671370
0.003184857364431081805 4.68754687811840842 0.003184857364431081805 3.94121658321474078
0.004009497869034817086 5.67485172986330522 0.004009497869034817086 4.69079729253441702
0.005047658755856332391 6.84764976537836567 0.005047658755856332391 5.55906850752325887
0.006354625877790454069 8.23476452258654135 0.006354625877790454069 6.55942022686081661
0.008000000000009777068 9.86817714825801495 0.008000000000009777068 7.70594007752923726
0.010071403294361402914 11.78318947307965381 0.010071403294361402914 9.01348408892127040
0.012679145539692626699 14.01861079401462362 0.012679145539692626699 10.49782502957766184
0.015962098519750611558 16.61698759904896505 0.015962098519750611558 12.17588426035183602
0.020095091452091651263 19.62489478345584004 0.020095091452091651263 14.06603328263317820
0.025298221281360611101 23.09330095409770323 0.025298221281360611101 16.18844445002248733
0.031848573644296607199 27.07801653164157329 0.031848573644296607199 18.56552183165998571
0.040094978690191851456 31.64025097078369697 0.040094978690191851456 21.22254754660875520
0.050476587558435426217 36.84734932610666647 0.050476587558435426217 24.18865555109942989
0.063546258777947173257 42.77378488886143515 0.063546258777947173257 27.49780456011276186
0.080000000000012505552 49.50232535831448644 0.080000000000012505552 31.18859679369119675
0.100714032943542974863 57.12491637422489532 0.100714032943542974863 35.30132429369017899
0.126791455396883634421 65.74245307807866823 0.126791455396883634421 39.87137127212290721
0.159620985197506115583 75.46258122834535698 0.159620985197506115583 44.92033286472960185
0.200950914520774404082 86.39532433161855351 0.200950914520774404082 50.44838756862654350
0.252982212813464002465 98.64730562934330749 0.252982212813464002465 56.43237582699498489
0.318485736442809752589 112.31640648969289487 0.318485736442809752589 62.82820575096453553
0.400949786901833249431 127.48699103915456021 0.400949786901833249431 69.58609113421913150
0.504765875584169521062 144.23142487177224780 0.504765875584169521062 76.65947859348317195
0.635462587779443310865 162.60921526370444212 0.635462587779443310865 84.01625474539621052
0.800000000000011368684 182.67339937811186701 0.800000000000011368684 91.65373784412030034
1.007140329435344483500 204.47617814086746080 1.007140329435344483500 99.61732313540601069
1.267914553968907398485 228.08323669207686635 1.267914553968907398485 107.92783749993814979
1.596209851975117999245 253.54560479104861770 1.596209851975117999245 116.72791334275085262
2.009509145207687197399 280.97922248637058829 2.009509145207687197399 126.09498691518192004
2.529822128134725289783 310.45116798170437278 2.529822128134725289783 136.19240645547597524
3.184857364427983839050 342.12436204713060306 3.184857364427983839050 147.24236549448929168
4.009497869018204596614 376.13070036383703609 4.009497869018204596614 159.32760433764968866
5.009497869018190385759 411.38110267142320708 5.009497869018190385759 172.08523166591731979
6.009497869018190385759 442.00206336350117908 6.009497869018190385759 183.29380124090107529
7.009497869018204596614 469.19804697724657672 7.009497869018204596614 193.29036588000542451
8.009497869018190385759 493.72397264740806122 8.009497869018190385759 202.26224665926332591
9.009497869018204596614 516.08939431402689024 9.009497869018204596614 210.37471385005846969
10.009497869018190385759 536.65841136987785376 10.009497869018190385759 217.73424240248667161
11.009497869018190385759 555.70271379309622262 11.009497869018190385759 224.37868090346438521
12.009497869018204596614 573.43220251952664057 12.009497869018204596614 230.45442503977568549
13.009497869018190385759 590.01266375881766635 13.009497869018190385759 236.02427008988158263
14.009497869018204596614 605.57974531574870980 14.009497869018204596614 241.13433213231095920
15.009497869018190385759 620.24287894630174378 15.009497869018190385759 245.83934557606036719
16.009497869018190385759 634.09286262168075154 16.009497869018190385759 250.18691698740789775
17.009497869018204596614 647.20916888441706760 17.009497869018204596614 254.22139539211164561
18.009497869018190385759 659.66059132033763035 18.009497869018190385759 257.98857436690423128
19.009497869018204596614 671.50560430202347106 19.009497869018204596614 261.50021225439837735
20.009497869018190385759 682.79697451632591765 20.009497869018190385759 264.77376480391308178
21.009497869018190385759 693.57793321528924935 21.009497869018190385759 267.82542532624415799
22.009497869018204596614 703.88547388719268838 22.009497869018204596614 270.68177705106791109
23.009497869018190385759 713.75341716716218343 23.009497869018190385759 273.35261885911552326
24.009497869018204596614 723.21302629644799254 24.009497869018204596614 275.86632115008063693
25.009497869018204596614 732.29361351247541734 25.009497869018204596614 278.23610009545620869
26.009497869018190385759 741.02098005446077877 26.009497869018190385759 280.47584982256972808
27.009497869018204596614 749.41866120947281615 27.009497869018204596614 282.60074004188282970
28.009497869018190385759 757.50709758235984737 28.009497869018190385759 284.61579594653397862
29.009497869018190385759 765.30462353665780029 29.009497869018190385759 286.51257357642248280
30.009497869018190385759 772.82825319829976252 30.009497869018190385759 288.32928689258500299
31.009497869018218807469 780.09357217652711824 31.009497869018218807469 290.05291309983118708
32.009497869018190385759 787.11493629310359665 32.009497869018190385759 291.69044058470774416
33.009497869018190385759 793.90563167222808261 33.009497869018190385759 293.23944863092066271
34.009497869018218807469 800.47843301603438704 34.009497869018218807469 294.73213047020800559
35.009497869018190385759 806.84472140718946775 35.009497869018190385759 296.15482028478481880
36.009497869018190385759 813.01501766933643012 36.009497869018190385759 297.52605525968778011
37.009497869018190385759 818.99906768491734965 37.009497869018190385759 298.84460011668738844
38.009497869018218807469 824.80615318275829395 38.009497869018218807469 300.11629549352784352
39.009497869018190385759 830.44476604839803713 39.009497869018190385759 301.35001791194525822
40.009497869018190385759 835.92285843355989527 40.009497869018190385759 302.54190876220053497
41.009497869018218807469 841.24806697658982557 41.009497869018218807469 303.69096052891660520
42.009497869018190385759 846.42738350049091878 42.009497869018190385759 304.79301774319890228
43.009497869018190385759 851.46737932046312380 43.009497869018190385759 305.87102962041240062
44.009497869018218807469 856.37440985712555630 44.009497869018218807469 306.88821892636053690
46.009497869018190385759 865.81327359023896406 46.009497869018190385759 308.84165156877696745
48.009497869018218807469 874.78466954863961291 48.009497869018218807469 310.65346976853754768
50.009497869018190385759 883.32107418975419932 50.009497869018190385759 312.26715475616259710
52.009497869018190385759 891.45476678540751436 52.009497869018190385759 313.73120287985670984
54.009497869018218807469 899.21639509712883864 54.009497869018218807469 315.06639494577336791
56.009497869018190385759 906.63023601270185736 56.009497869018190385759 316.28677909412908775
58.009497869018218807469 913.71744896997643082 58.009497869018218807469 317.44071702483449826
60.009497869018190385759 920.49891106494226278 60.009497869018190385759 318.60655972561312410
62.009497869018190385759 926.99220709215546776 62.009497869018190385759 319.74524199759963494
64.009497869018218807469 933.21568514176010467 64.009497869018218807469 320.85656006958572561
66.009497869018190385759 939.19385460399928434 66.009497869018190385759 322.05212032480346807
68.009497869018190385759 944.94789107114536364 68.009497869018190385759 323.27227524326082175
70.009497869018190385759 950.49058410476209247 70.009497869018190385759 324.32208113958921558
72.009497869018190385759 955.83522149886118768 72.009497869018190385759 325.18382946802273636
74.009497869018218807469 960.99410998796349759 74.009497869018218807469 325.99843449212283986
76.009497869018190385759 965.97714307249259491 76.009497869018190385759 326.76821006821694482
78.009497869018190385759 970.79699232626728644 78.009497869018190385759 327.63696556623972356
80.009497869018218807469 975.46151946249801767 80.009497869018218807469 328.28138743393753884
82.009497869018190385759 979.97067528396337366 82.009497869018190385759 329.01411301485188687
84.009497869018218807469 984.32665363621413235 84.009497869018218807469 329.65273159520683066
86.009497869018190385759 988.53305193224355207 86.009497869018190385759 330.01353614876956044
88.009497869018190385759 992.60000393227005588 88.009497869018190385759 330.44979490493631147
91.009497869018218807469 998.44837094780564257 91.009497869018218807469 330.96339063883840481
94.009497869018218807469 1004.01421111481522530 94.009497869018218807469 331.70567055210113949
97.009497869018218807469 1009.33563625828617205 97.009497869018218807469 332.86110499554985154
99.504748934509137825444 1013.60312297476536969 99.504748934509137825444 333.09972008734655446
nan nan nan nan

