Time Pressure difference Time.1 Pressure.1 difference.1
(hr) (psi) (hr) (psi)
0.000200000000020850166 0.35308961030294589 0.000200000000020850166 0.28432441770998884
0.000399999999999067768 0.67739131313700551 0.000399999999999067768 0.65141519926068980
0.000600000000019917934 0.98504948219604860 0.000600000000019917934 0.91517667746932263
0.000799999999998135536 1.28024955093334314 0.000799999999998135536 1.16806484859659854
0.001007140329434719206 1.57536003101619149 0.001007140329434719206 1.41975444657766503
0.001267914553977789183 1.93406384453199798 0.001267914553977789183 1.72253267888939887
0.001596209851982166583 2.36860527557271894 0.001596209851982166583 2.08265310877024890
0.002009509145224797066 2.89314526812772987 0.002009509145224797066 2.50883943223925110
0.002529822128153114136 3.52394461485807353 0.002529822128153114136 3.01059610527313115
0.003184857364431081805 4.27953989646400235 0.003184857364431081805 3.59817065237399936
0.004009497869034817086 5.18090912281524218 0.004009497869034817086 4.28250739279737935
0.005047658755856332391 6.25162609140926229 0.005047658755856332391 5.07520374381233719
0.006354625877790454069 7.51800552158771307 0.006354625877790454069 5.98848423032554233
0.008000000000009777068 9.00924490131099276 0.008000000000009777068 7.03521028354700206
0.010071403294361402914 10.75757336807271969 0.010071403294361402914 8.22894485487589833
0.012679145539692626699 12.79842223360716069 0.012679145539692626699 9.58408784131655089
0.015962098519750611558 15.17063471325166546 0.015962098519750611558 11.11608775800012872
0.020095091452091651263 17.91673179456703480 0.020095091452091651263 12.84171703946394594
0.025298221281360611101 21.08324574532710827 0.025298221281360611101 14.77939222516559603
0.031848573644296607199 24.72112921263988738 0.031848573644296607199 16.94956732020022017
0.040094978690191851456 28.88626394237892825 0.040094978690191851456 19.37532387233913411
0.050476587558435426217 33.64013323389235666 0.050476587558435426217 22.08326000023003743
0.063546258777947173257 39.05072817706498967 0.063546258777947173257 25.10437863128283453
0.080000000000012505552 45.19361231938962931 0.080000000000012505552 28.47392202441439579
0.100714032943542974863 52.15272829523046028 0.100714032943542974863 32.22867517721811481
0.126791455396883634421 60.02018927050895059 0.126791455396883634421 36.40094243799228479
0.159620985197506115583 68.89427145024953347 0.159620985197506115583 41.01043928849588127
0.200950914520774404082 78.87542182693222514 0.200950914520774404082 46.05732868934570945
0.252982212813464002465 90.06098308907164096 0.252982212813464002465 51.52046690588323230
0.318485736442809752589 102.54031694997107138 0.318485736442809752589 57.35959983453629007
0.400949786901833249431 116.39044443033066045 0.400949786901833249431 63.52927469120198367
0.504765875584169521062 131.67743237809770562 0.504765875584169521062 69.98699012789953144
0.635462587779443310865 148.45560851928141233 0.635462587779443310865 76.70342793003290183
0.800000000000011368684 166.77339362953344448 0.800000000000011368684 83.67613977258177727
1.007140329435344483500 186.67844503382869448 1.007140329435344483500 90.94656967100895884
1.267914553968907398485 208.23073059702181808 1.267914553968907398485 98.53373172141355951
1.596209851975117999245 231.47683841658596293 1.596209851975117999245 106.56784351601237404
2.009509145207687197399 256.52261704751822435 2.009509145207687197399 115.11960120689722942
2.529822128134725289783 283.42930616511500830 2.529822128134725289783 124.33813510055058771
3.184857364427983839050 312.34564581478849732 3.184857364427983839050 134.42629886537517336
4.009497869018204596614 343.39205139599818040 4.009497869018204596614 145.45963103940161432
5.009497869018190385759 375.57423686830128418 5.009497869018190385759 157.10682658861310301
6.009497869018190385759 403.52993018872837183 6.009497869018190385759 167.33979533018435859
7.009497869018204596614 428.35875855562932202 7.009497869018204596614 176.46625279567226130
8.009497869018190385759 450.74993247500304960 8.009497869018190385759 184.65721551870848316
9.009497869018204596614 471.16865399655836200 9.009497869018204596614 192.06356854396054246
10.009497869018190385759 489.94733107656151105 10.009497869018190385759 198.78251917596458043
11.009497869018190385759 507.33400562928699173 11.009497869018190385759 204.84862163720541162
12.009497869018204596614 523.52030868320423451 12.009497869018204596614 210.39552924327682604
13.009497869018190385759 538.65759631365949645 13.009497869018190385759 215.48057153273521180
14.009497869018204596614 552.86970945654422849 14.009497869018204596614 220.14585061209047012
15.009497869018190385759 566.25655486006655792 15.009497869018190385759 224.44133677350194489
16.009497869018190385759 578.90102738381688141 16.009497869018190385759 228.41049287825251213
17.009497869018204596614 590.87568223103460241 17.009497869018204596614 232.09380778544817758
18.009497869018190385759 602.24332515125604459 18.009497869018190385759 235.53308917055858274
19.009497869018204596614 613.05734087147982336 19.009497869018204596614 238.73907192277766853
20.009497869018190385759 623.36590323347354570 20.009497869018190385759 241.72769243219917712
21.009497869018190385759 633.20848061434526244 21.009497869018190385759 244.51373453382444723
22.009497869018204596614 642.61884656625727530 22.009497869018204596614 247.12146763656491544
23.009497869018190385759 651.62787795532017299 23.009497869018190385759 249.55983772050780090
24.009497869018204596614 660.26411685091568415 24.009497869018204596614 251.85474580819740709
25.009497869018204596614 668.55432413518065005 25.009497869018204596614 254.01825772737976195
26.009497869018190385759 676.52205529150000984 26.009497869018190385759 256.06305825193987857
27.009497869018204596614 684.18879708098870651 27.009497869018204596614 258.00299671135144308
28.009497869018190385759 691.57321094559733865 28.009497869018190385759 259.84266090283182393
29.009497869018190385759 698.69203541451156525 29.009497869018190385759 261.57434183379382375
30.009497869018190385759 705.56080369361211524 30.009497869018190385759 263.23292729845280746
31.009497869018218807469 712.19374481106535768 31.009497869018218807469 264.80652801377237893
32.009497869018190385759 718.60396504902303150 32.009497869018190385759 266.30152409280862003
33.009497869018190385759 724.80359409921015867 33.009497869018190385759 267.71570551991209186
34.009497869018218807469 730.80429474577988458 34.009497869018218807469 269.07846340800415419
35.009497869018190385759 736.61645745491955495 35.009497869018190385759 270.37732142053852158
36.009497869018190385759 742.24968731127034971 36.009497869018190385759 271.62920325449255188
37.009497869018190385759 747.71288190963446141 37.009497869018190385759 272.83298115101825942
38.009497869018218807469 753.01451509141577390 38.009497869018218807469 273.99398737513570268
39.009497869018190385759 758.16233960317970286 39.009497869018190385759 275.12032583063472657
40.009497869018190385759 763.16361543644143239 40.009497869018190385759 276.20847376355635561
41.009497869018218807469 768.02531453181893539 41.009497869018218807469 277.25751135328556529
42.009497869018190385759 772.75382013971318429 42.009497869018190385759 278.26364482551235824
43.009497869018190385759 777.35513160398181753 43.009497869018190385759 279.24782588169176734
44.009497869018218807469 781.83505116549963532 44.009497869018218807469 280.17647840085521693
46.009497869018190385759 790.45235035704604343 46.009497869018190385759 281.95988305698784870
48.009497869018218807469 798.64287045833248158 48.009497869018218807469 283.61399947920642717
50.009497869018190385759 806.43626115582969760 50.009497869018190385759 285.08722832670935077
52.009497869018190385759 813.86199211356347405 52.009497869018190385759 286.42384479553646770
54.009497869018218807469 820.94804349292996903 54.009497869018218807469 287.64282091761123183
56.009497869018190385759 827.71657910637384248 56.009497869018190385759 288.75698207433066500
58.009497869018218807469 834.18691666117763361 58.009497869018218807469 289.81048053331119263
60.009497869018190385759 840.37811609797427082 60.009497869018190385759 290.87484756380928275
62.009497869018190385759 846.30623161991763936 62.009497869018190385759 291.91441822604838308
64.009497869018218807469 851.98801428802858027 64.009497869018218807469 292.92900648519236029
66.009497869018190385759 857.44584018005355119 66.009497869018190385759 294.02050443579736339
68.009497869018190385759 862.69904175160661453 68.009497869018190385759 295.13445631493061683
70.009497869018190385759 867.75929535289697014 70.009497869018190385759 296.09288645625935033
72.009497869018190385759 872.63873220012089860 72.009497869018190385759 296.87962767680215848
74.009497869018218807469 877.34858784200923765 74.009497869018218807469 297.62332897540028398
76.009497869018190385759 881.89789464258501539 76.009497869018190385759 298.32610280889440446
78.009497869018190385759 886.29822123403891965 78.009497869018190385759 299.11924129064829003
80.009497869018218807469 890.55674504119747326 80.009497869018218807469 299.70757228011319739
82.009497869018190385759 894.67342114899554417 82.009497869018190385759 300.37652097294022724
84.009497869018218807469 898.65025244930961890 84.009497869018218807469 300.95955379678451891
86.009497869018190385759 902.49052323407920539 86.009497869018190385759 301.28895369868320131
88.009497869018190385759 906.20348521476114456 88.009497869018190385759 301.68724022268844465
91.009497869018218807469 911.54280674538540552 91.009497869018218807469 302.15613226601880115
94.009497869018218807469 916.62419273925115704 94.009497869018218807469 302.83380367619298568
97.009497869018218807469 921.48243774450895671 97.009497869018218807469 303.88866839052133173
99.504748934509137825444 925.37847977580122460 99.504748934509137825444 304.10651427703589889
nan nan nan nan

