Time Pressure difference Time.1 Pressure.1 difference.1
(hr) (psi) (hr) (psi)
0.000200000000020850166 0.80342847768085568 0.000200000000020850166 0.64695852673840681
0.000399999999999067768 1.54135226760411848 0.000399999999999067768 1.48224560170758668
0.000600000000019917934 2.24140496584439841 0.000600000000019917934 2.08241472797045013
0.000799999999998135536 2.91311020699663237 0.000799999999998135536 2.65784247328971812
0.001007140329434719206 3.58461159599870660 0.001007140329434719206 3.23054295683138193
0.001267914553977789183 4.40081476488848722 0.001267914553977789183 3.91949173120172567
0.001596209851982166583 5.38958064823114391 0.001596209851982166583 4.73891830258315050
0.002009509145224797066 6.58313139400250424 0.002009509145224797066 5.70867277590032884
0.002529822128153114136 8.01846719567281951 0.002529822128153114136 6.85038181581216676
0.003184857364431081805 9.73776662881851252 0.003184857364431081805 8.18736288273236390
0.004009497869034817086 11.78876355488044503 0.004009497869034817086 9.74451894039064648
0.005047658755856332391 14.22509835206260043 0.005047658755856332391 11.54823902723400408
0.006354625877790454069 17.10664815717203879 0.006354625877790454069 13.62633911730854308
0.008000000000009777068 20.49984962713560677 0.008000000000009777068 16.00808441637601831
0.010071403294361402914 24.47803770616546970 0.010071403294361402914 18.72433638588287153
0.012679145539692626699 29.12183364172476985 0.012679145539692626699 21.80786089316520204
0.015962098519750611558 34.51962220769552658 0.015962098519750611558 25.29380985612741028
0.020095091452091651263 40.76815666814617600 0.020095091452091651263 29.22034767030567437
0.025298221281360611101 47.97331764932481946 0.025298221281360611101 33.62937976658442807
0.031848573644296607199 56.25104401350686345 0.031848573644296607199 38.56744767350643599
0.040094978690191851456 65.72849041126052327 0.040094978690191851456 44.08707169256827996
0.050476587558435426217 76.54555740084828130 0.050476587558435426217 50.24877381408276023
0.063546258777947173257 88.85695352154195348 0.063546258777947173257 57.12309883474102179
0.080000000000012505552 102.83461786233996804 0.080000000000012505552 64.79023782673954202
0.100714032943542974863 118.66955548533371712 0.100714032943542974863 73.33389224646664672
0.126791455396883634421 136.57136287399706021 0.126791455396883634421 82.82756817458414389
0.159620985197506115583 156.76366003722031905 0.159620985197506115583 93.31612668611140293
0.200950914520774404082 179.47500644518049739 0.200950914520774404082 104.79993858550272989
0.252982212813464002465 204.92689796115027434 0.252982212813464002465 117.23089291720042127
0.318485736442809752589 233.32267034802740113 0.318485736442809752589 130.51739453875418917
0.400949786901833249431 264.83757906393032044 0.400949786901833249431 144.55601910667570564
0.504765875584169521062 299.62195418236632349 0.504765875584169521062 159.25005804526290376
0.635462587779443310865 337.79941430022932991 0.635462587779443310865 174.53279999333756223
0.800000000000011368684 379.48013719940450983 0.800000000000011368684 190.39867397405262750
1.007140329435344483500 424.77256348799159014 1.007140329435344483500 206.94198268360938187
1.267914553968907398485 473.81314546864712156 1.267914553968907398485 224.20599124745373842
1.596209851975117999245 526.70789080384179215 1.596209851975117999245 242.48699986482478153
2.009509145207687197399 583.69764980727666170 2.009509145207687197399 261.94587223772799689
2.529822128134725289783 644.92176868926594580 2.529822128134725289783 282.92194300421891739
3.184857364427983839050 710.71869407856536327 3.184857364427983839050 305.87679021485786279
4.009497869018204596614 781.36242203241965854 4.009497869018204596614 330.98229605151982469
5.009497869018190385759 854.59053050117711336 5.009497869018190385759 357.48460117832729566
6.009497869018190385759 918.20157843791150754 6.009497869018190385759 380.76894106910589244
7.009497869018204596614 974.69768366259711456 7.009497869018204596614 401.53549894608477189
8.009497869018190385759 1025.64709211473154937 8.009497869018190385759 420.17340988790869005
9.009497869018204596614 1072.10833557691466922 9.009497869018204596614 437.02600130553730651
10.009497869018190385759 1114.83778300048106757 10.009497869018190385759 452.31446100632621210
11.009497869018190385759 1154.39983484291155946 11.009497869018190385759 466.11741448804792753
12.009497869018204596614 1191.23053289356221285 12.009497869018204596614 478.73897967643921447
13.009497869018190385759 1225.67427635777607975 13.009497869018190385759 490.30960556389322846
14.009497869018204596614 1258.01285583967910497 14.009497869018204596614 500.92509228259569909
15.009497869018190385759 1288.47360152481246587 15.009497869018190385759 510.69914342106159211
16.009497869018190385759 1317.24513434368509479 16.009497869018190385759 519.73065540517620775
17.009497869018204596614 1344.49254812739650333 17.009497869018204596614 528.11175754570194840
18.009497869018190385759 1370.35875256874783190 18.009497869018190385759 535.93758001944900116
19.009497869018204596614 1394.96522054230786125 19.009497869018204596614 543.23254924801528887
20.009497869018190385759 1418.42156795074288311 20.009497869018190385759 550.03292727157190711
21.009497869018190385759 1440.81760207586216893 21.009497869018190385759 556.37235357908366495
22.009497869018204596614 1462.23017205966152687 22.009497869018204596614 562.30605135947178042
23.009497869018190385759 1482.72953585596178527 23.009497869018190385759 567.85437650810456489
24.009497869018204596614 1502.38063876670253194 24.009497869018204596614 573.07626482627961195
25.009497869018204596614 1521.24437313810153682 25.009497869018204596614 577.99917118475821098
26.009497869018190385759 1539.37433767599782186 26.009497869018190385759 582.65195881903275676
27.009497869018204596614 1556.81942386648688625 27.009497869018204596614 587.06614082201576821
28.009497869018190385759 1573.62209439739740446 28.009497869018190385759 591.25215637635892563
29.009497869018190385759 1589.82043651522326400 29.009497869018190385759 595.19246425740379891
30.009497869018190385759 1605.44979484521081758 30.009497869018190385759 598.96644897995406609
31.009497869018218807469 1620.54254645568698834 31.009497869018218807469 602.54705738727022890
32.009497869018190385759 1635.12851369205668561 32.009497869018190385759 605.94880693999255072
33.009497869018190385759 1649.23529674269411771 33.009497869018190385759 609.16666891607110301
34.009497869018218807469 1662.88943338340618538 34.009497869018218807469 612.26752055126371488
35.009497869018190385759 1676.11456632750764584 35.009497869018190385759 615.22297289334414927
36.009497869018190385759 1688.93255121250922457 36.009497869018190385759 618.07153452399359139
37.009497869018190385759 1701.36363383675302430 37.009497869018190385759 620.81063931396954558
38.009497869018218807469 1713.42709578004337345 38.009497869018218807469 623.45242042562654206
39.009497869018190385759 1725.14057782587906331 39.009497869018190385759 626.01531767394430972
40.009497869018190385759 1736.52059953122466140 40.009497869018190385759 628.49131530097361065
41.009497869018218807469 1747.58302501519824546 41.009497869018218807469 630.87832032506082669
42.009497869018190385759 1758.34237887722861160 42.009497869018190385759 633.16770030211910125
43.009497869018190385759 1768.81231216668743400 43.009497869018190385759 635.40712923079865959
44.009497869018218807469 1779.00602744014099699 44.009497869018218807469 637.52020720872576476
46.009497869018190385759 1798.61403449887166062 46.009497869018190385759 641.57820848136634595
48.009497869018218807469 1817.25093828866329204 48.009497869018218807469 645.34202423870272014
50.009497869018190385759 1834.98420440966333445 50.009497869018190385759 648.69424411628358484
52.009497869018190385759 1851.88088883467639789 52.009497869018190385759 651.73561294577586978
54.009497869018218807469 1868.00465828687879366 54.009497869018218807469 654.50930013880190472
56.009497869018190385759 1883.40594483102859158 56.009497869018190385759 657.04448887252340228
58.009497869018218807469 1898.12870443666270148 58.009497869018218807469 659.44164426435645510
60.009497869018190385759 1912.21630654496698298 60.009497869018190385759 661.86353026171855163
62.009497869018190385759 1925.70528127074476288 62.009497869018190385759 664.22899401435586242
64.009497869018218807469 1938.63374437572588249 64.009497869018218807469 666.53761221418778860
66.009497869018190385759 1951.05261091817283159 66.009497869018190385759 669.02123255094568322
68.009497869018190385759 1963.00587042632537305 68.009497869018190385759 671.55594508948195198
70.009497869018190385759 1974.52009154451548056 70.009497869018190385759 673.73677977547151841
72.009497869018190385759 1985.62287792993606672 72.009497869018190385759 675.52694941713025401
74.009497869018218807469 1996.33979521677520097 74.009497869018218807469 677.21918499910998435
76.009497869018190385759 2006.69139586045844226 76.009497869018190385759 678.81829325583180434
78.009497869018190385759 2016.70400340118180793 78.009497869018190385759 680.62301937744973657
80.009497869018218807469 2026.39394952170755460 80.009497869018218807469 681.96172167127451758
82.009497869018190385759 2035.76113202123156043 82.009497869018190385759 683.48386340029196617
84.009497869018218807469 2044.81010832745437256 84.009497869018218807469 684.81051012234445352
86.009497869018190385759 2053.54835159618869511 86.009497869018190385759 685.56003447539353601
88.009497869018190385759 2061.99691339121500278 88.009497869018190385759 686.46630508298176210
91.009497869018218807469 2074.14613229776250591 91.009497869018218807469 687.53323316462763160
94.009497869018218807469 2085.70843856346527900 94.009497869018218807469 689.07522277167629454
97.009497869018218807469 2096.76300452881923775 97.009497869018218807469 691.47548697334730150
99.504748934509137825444 2105.62815101527667139 99.504748934509137825444 691.97117867274698710
nan nan nan nan

