Time Pressure difference Time.1 Pressure.1 difference.1
(hr) (psi) (hr) (psi)
0.000200000000020850166 0.06882255116074369 0.000200000000020850166 0.05541916616381138
0.000399999999999067768 0.13203390001822990 0.000399999999999067768 0.12697075917793108
0.000600000000019917934 0.19200117025855185 0.000600000000019917934 0.17838189476096966
0.000799999999998135536 0.24954016670734655 0.000799999999998135536 0.22767365692984548
0.001007140329434719206 0.30706170096078306 0.001007140329434719206 0.27673179890920591
0.001267914553977789183 0.37697854596810132 0.001267914553977789183 0.33574789503776414
0.001596209851982166583 0.46167729947603842 0.001596209851982166583 0.40594086018403153
0.002009509145224797066 0.56391814548252361 0.002009509145224797066 0.48901107577544722
0.002529822128153114136 0.68687056052318385 0.002529822128153114136 0.58681110526510183
0.003184857364431081805 0.83414760693789869 0.003184857364431081805 0.70133834749662705
0.004009497869034817086 1.00983821885381819 0.004009497869034817086 0.83472601724016704
0.005047658755856332391 1.21853728900350022 0.005047658755856332391 0.98923462803121831
0.006354625877790454069 1.46537395759760503 0.006354625877790454069 1.16724692624989390
0.008000000000009777068 1.75603926042502412 0.008000000000009777068 1.37126980103034768
0.010071403294361402914 2.09681514801417457 0.010071403294361402914 1.60394687849275974
0.012679145539692626699 2.49460772349970084 0.012679145539692626699 1.86808491822271749
0.015962098519750611558 2.95698812207447759 0.015962098519750611558 2.16669507147460116
0.020095091452091651263 3.49224433283933777 0.020095091452091651263 2.50304654159043016
0.025298221281360611101 4.10944620459765719 0.025298221281360611101 2.88072899304075181
0.031848573644296607199 4.81852518551455411 0.031848573644296607199 3.30372922342885644
0.040094978690191851456 5.63037348029419782 0.040094978690191851456 3.77654617850678020
0.050476587558435426217 6.55697512186037468 0.050476587558435426217 4.30436423733297335
0.063546258777947173257 7.61158261078385490 0.063546258777947173257 4.89322634338563756
0.080000000000012505552 8.80892443513526757 0.080000000000012505552 5.55000175052145028
0.100714032943542974863 10.16536229483305576 0.100714032943542974863 6.28186041589844546
0.126791455396883634421 11.69885045103140619 0.126791455396883634421 7.09509894977815758
0.159620985197506115583 13.42854443521812691 0.159620985197506115583 7.99356020030004544
0.200950914520774404082 15.37402289846983905 0.200950914520774404082 8.97727593097416232
0.252982212813464002465 17.55425941566650749 0.252982212813464002465 10.04212490538402136
0.318485736442809752589 19.98667194787572043 0.318485736442809752589 11.18026098469775143
0.400949786901833249431 22.68627306692885526 0.400949786901833249431 12.38282472794615074
0.504765875584169521062 25.66594020929022690 0.504765875584169521062 13.64153197408211327
0.635462587779443310865 28.93626267748705772 0.635462587779443310865 14.95066815585387054
0.800000000000011368684 32.50667841931583979 0.800000000000011368684 16.30975605736763256
1.007140329435344483500 36.38647657439033622 1.007140329435344483500 17.72687374943394900
1.267914553968907398485 40.58734579433475886 1.267914553968907398485 19.20572736942806458
1.596209851975117999245 45.11836681001251748 1.596209851975117999245 20.77169831244308895
2.009509145207687197399 50.00017111943152059 2.009509145207687197399 22.43856633693759406
2.529822128134725289783 55.24469526947157050 2.529822128134725289783 24.23539921451409640
3.184857364427983839050 60.88093096389945913 3.184857364427983839050 26.20173621952227450
4.009497869018204596614 66.93234900091491113 4.009497869018204596614 28.35230096530709787
5.009497869018190385759 73.20514786416042341 5.009497869018190385759 30.62251704693306209
6.009497869018190385759 78.65413893509112597 6.009497869018190385759 32.61707875079864749
7.009497869018204596614 83.49365632863960229 7.009497869018204596614 34.39596452797001547
8.009497869018190385759 87.85803768580568374 8.009497869018190385759 35.99250810957877178
9.009497869018204596614 91.83795798238001851 9.009497869018204596614 37.43611929246688419
10.009497869018190385759 95.49820859966877151 10.009497869018190385759 38.74574526311174338
11.009497869018190385759 98.88713669045425547 11.009497869018190385759 39.92812116657393773
12.009497869018204596614 102.04209406537030702 12.009497869018204596614 41.00929807284209261
13.009497869018190385759 104.99258233232345106 13.009497869018190385759 42.00045038349923487
14.009497869018204596614 107.76273997881794742 14.009497869018204596614 42.90978444133966718
15.009497869018190385759 110.37204035408076663 15.009497869018190385759 43.74704021856393155
16.009497869018190385759 112.83664093074396817 16.009497869018190385759 44.52068928982887286
17.009497869018204596614 115.17068382469317100 17.009497869018204596614 45.23862355140091296
18.009497869018190385759 117.38641083456685976 18.009497869018190385759 45.90899195697328850
19.009497869018204596614 119.49422745800031009 19.009497869018204596614 46.53388690020242535
20.009497869018190385759 121.50352351160925934 20.009497869018190385759 47.11641462661509649
21.009497869018190385759 123.42199198415204364 21.009497869018190385759 47.65945673116917192
22.009497869018204596614 125.25621585613488662 22.009497869018204596614 48.16774369187281479
23.009497869018190385759 127.01221349976582076 23.009497869018190385759 48.64301921670914197
24.009497869018204596614 128.69554819975476789 24.009497869018204596614 49.09033181007237090
25.009497869018204596614 130.31143606024707537 25.009497869018204596614 49.51203328584521302
26.009497869018190385759 131.86446840427544203 26.009497869018190385759 49.91059609995438962
27.009497869018204596614 133.35883332934525924 27.009497869018204596614 50.28871969797527441
28.009497869018190385759 134.79816823515881197 28.009497869018190385759 50.64729831156891748
29.009497869018190385759 136.18573571638785324 29.009497869018190385759 50.98482934048524129
30.009497869018190385759 137.52456343180574549 30.009497869018190385759 51.30811294800351874
31.009497869018218807469 138.81742483605512462 31.009497869018218807469 51.61483173149800763
32.009497869018190385759 140.06687454345362198 32.009497869018190385759 51.90622927232710992
33.009497869018190385759 141.27527681594776254 33.009497869018190385759 52.18187480472862916
34.009497869018218807469 142.44490490807575611 34.009497869018218807469 52.44749710494997430
35.009497869018190385759 143.57778408019620997 35.009497869018190385759 52.70066434468123617
36.009497869018190385759 144.67578650982389377 36.009497869018190385759 52.94467521062142623
37.009497869018190385759 145.74064647391179506 37.009497869018190385759 53.17930988536796377
38.009497869018218807469 146.77401565341153855 38.009497869018218807469 53.40560770871288554
39.009497869018190385759 147.77740517689093735 39.009497869018190385759 53.62514825512372596
40.009497869018190385759 148.75223012744197604 40.009497869018190385759 53.83724488611692038
41.009497869018218807469 149.69984944264265891 41.009497869018218807469 54.04171831462345921
42.009497869018190385759 150.62150731536780768 42.009497869018190385759 54.23782907615918703
43.009497869018190385759 151.51837310925068891 43.009497869018190385759 54.42966097693992111
44.009497869018218807469 152.39157776954652945 44.009497869018218807469 54.61066951881076648
46.009497869018190385759 154.07122083230558474 46.009497869018190385759 54.95828229076881399
48.009497869018218807469 155.66767814018345462 48.009497869018218807469 55.28069481374362226
50.009497869018190385759 157.18672886935664224 50.009497869018190385759 55.56784958910436245
52.009497869018190385759 158.63411710688103540 52.009497869018190385759 55.82837652794355421
54.009497869018218807469 160.01529661302870977 54.009497869018218807469 56.06597356868693538
56.009497869018190385759 161.33458745293728498 56.009497869018190385759 56.28314057381020774
58.009497869018218807469 162.59575494243293292 58.009497869018218807469 56.48848349378099698
60.009497869018190385759 163.80251415468990217 60.009497869018190385759 56.69594486413232204
62.009497869018190385759 164.95799429879750164 62.009497869018190385759 56.89857304406028504
64.009497869018218807469 166.06546041207334952 64.009497869018218807469 57.09633177253749636
66.009497869018190385759 167.12927393340027038 66.009497869018190385759 57.30908137307915240
68.009497869018190385759 168.15320305327924189 68.009497869018190385759 57.52620758680851054
70.009497869018190385759 169.13952367047991743 70.009497869018190385759 57.71302024147428966
72.009497869018190385759 170.09060034409134232 72.009497869018190385759 57.86636810649533658
74.009497869018218807469 171.00862305395094154 74.009497869018218807469 58.01132683418819624
76.009497869018190385759 171.89535234558860566 76.009497869018190385759 58.14830817461501056
78.009497869018190385759 172.75304312188893618 78.009497869018190385759 58.30290296343144263
80.009497869018218807469 173.58309437243678985 80.009497869018218807469 58.41757764781867479
82.009497869018190385759 174.38549734260084279 82.009497869018190385759 58.54796595235276158
84.009497869018218807469 175.16064242656034367 84.009497869018218807469 58.66160794344105511
86.009497869018190385759 175.90916978291375017 86.009497869018190385759 58.72581300906536939
88.009497869018190385759 176.63288271135175478 88.009497869018190385759 58.80344512815113944
91.009497869018218807469 177.67359792494798398 91.009497869018218807469 58.89483933998671006
94.009497869018218807469 178.66403756782014511 94.009497869018218807469 59.02692783519015052
97.009497869018218807469 179.61098362816699137 97.009497869018218807469 59.23253705916940959
99.504748934509137825444 180.37038165121549582 99.504748934509137825444 59.27499854552394964
nan nan nan nan

