Time Pressure difference Time.1 Pressure.1 difference.1
(hr) (psi) (hr) (psi)
0.000200000000020850166 0.27304599101816790 0.000200000000020850166 0.21986951793251255
0.000399999999999067768 0.52383014681145557 0.000399999999999067768 0.50374268586896576
0.000600000000019917934 0.76174377330838494 0.000600000000019917934 0.70771077812776007
0.000799999999998135536 0.99002348748023350 0.000799999999998135536 0.90327048673253918
0.001007140329434719206 1.21823392229006333 0.001007140329434719206 1.09790333262891471
0.001267914553977789183 1.49562140519953246 0.001267914553977789183 1.33204327922591226
0.001596209851982166583 1.83165450335602231 0.001596209851982166583 1.61052623877360324
0.002009509145224797066 2.23728394675131659 0.002009509145224797066 1.94009828976128507
0.002529822128153114136 2.72508428903219624 0.002529822128153114136 2.32810927632350184
0.003184857364431081805 3.30938996230796789 0.003184857364431081805 2.78248366126379221
0.004009497869034817086 4.00642336827873535 0.004009497869034817086 3.31168474231153276
0.005047658755856332391 4.83441424441606049 0.005047658755856332391 3.92468086121081150
0.006354625877790454069 5.81371189699049840 0.006354625877790454069 4.63092530523055679
0.008000000000009777068 6.96689489190362821 0.008000000000009777068 5.44036388452257569
0.010071403294361402914 8.31888618505623434 0.010071403294361402914 6.36348489836801434
0.012679145539692626699 9.89708498997163844 0.012679145539692626699 7.41142386034012901
0.015962098519750611558 11.73152896257808919 0.015962098519750611558 8.59612718574162571
0.020095091452091651263 13.85509979876476194 0.020095091452091651263 9.93056508348377243
0.025298221281360611101 16.30378113780592386 0.025298221281360611101 11.42897915717254875
0.031848573644296607199 19.11697492079143856 0.031848573644296607199 13.10718659295144128
0.040094978690191851456 22.33789478594980338 0.040094978690191851456 14.98303646907581310
0.050476587558435426217 26.01408608129387545 0.050476587558435426217 17.07709724594059963
0.063546258777947173257 30.19812666234898657 0.063546258777947173257 19.41334364495388343
0.080000000000012505552 34.94845020461274032 0.080000000000012505552 22.01902868413401393
0.100714032943542974863 40.32996997406593209 0.100714032943542974863 24.92259838916231374
0.126791455396883634421 46.41391755028764265 0.126791455396883634421 28.14903387683725811
0.159620985197506115583 53.27629042233279222 0.159620985197506115583 31.71358122945126823
0.200950914520774404082 60.99476476023360050 0.200950914520774404082 35.61636646527792749
0.252982212813464002465 69.64461615998123989 0.252982212813464002465 39.84103902679529341
0.318485736442809752589 79.29494848885474312 0.318485736442809752589 44.35647021102911935
0.400949786901833249431 90.00532249379382677 0.400949786901833249431 49.12751114891678839
0.504765875584169521062 101.82682800424927905 0.504765875584169521062 54.12129533195620468
0.635462587779443310865 114.80147692698670880 0.635462587779443310865 59.31515083572459446
0.800000000000011368684 128.96671329402482797 0.800000000000011368684 64.70718435803463819
1.007140329435344483500 144.35939075709211465 1.007140329435344483500 70.32944476677599255
1.267914553968907398485 161.02588277100201708 1.267914553968907398485 76.19663575914395892
1.596209851975117999245 179.00221614841922246 1.596209851975117999245 82.40945526132313148
2.009509145207687197399 198.37024411513593236 2.009509145207687197399 89.02257296719805879
2.529822128134725289783 219.17732362344699482 2.529822128134725289783 96.15131210106135029
3.184857364427983839050 241.53847610677499347 3.184857364427983839050 103.95254043614815487
4.009497869018204596614 265.54681940580371702 4.009497869018204596614 112.48467230801185224
5.009497869018190385759 290.43346706976694804 5.009497869018190385759 121.49150784924530910
6.009497869018190385759 312.05174686204628642 6.009497869018190385759 129.40471460914679369
7.009497869018204596614 331.25200608645064904 7.009497869018204596614 136.46225057292451766
8.009497869018190385759 348.56721473172910919 8.009497869018190385759 142.79636369561143283
9.009497869018204596614 364.35711590835552443 9.009497869018204596614 148.52373414946097796
10.009497869018190385759 378.87876237912070110 10.009497869018190385759 153.71953283734549700
11.009497869018190385759 392.32396621756305422 11.009497869018190385759 158.41048071521180418
12.009497869018204596614 404.84091667239306389 12.009497869018204596614 162.69993257160177791
13.009497869018190385759 416.54665816628323682 13.009497869018190385759 166.63222163018718902
14.009497869018204596614 427.53695752465813484 14.009497869018204596614 170.23990566401064939
15.009497869018190385759 437.88907314390735337 15.009497869018190385759 173.56162695408517038
16.009497869018190385759 447.66710804045163741 16.009497869018190385759 176.63099555203848467
17.009497869018204596614 456.92716952188050072 17.009497869018204596614 179.47932169849275397
18.009497869018190385759 465.71782559366198484 18.009497869018190385759 182.13893548147012780
19.009497869018204596614 474.08035893663168281 19.009497869018204596614 184.61813824536832840
20.009497869018190385759 482.05202262758024290 20.009497869018190385759 186.92925368167945521
21.009497869018190385759 489.66333776321198457 21.009497869018190385759 189.08371420518207628
22.009497869018204596614 496.94042160314381817 22.009497869018204596614 191.10028747319108788
23.009497869018190385759 503.90715138494044822 23.009497869018190385759 192.98589145759603980
24.009497869018204596614 510.58559883598354645 24.009497869018204596614 194.76055555083058834
25.009497869018204596614 516.99645828250197610 25.009497869018204596614 196.43361031884239765
26.009497869018190385759 523.15794529957099712 26.009497869018190385759 198.01486496177554386
27.009497869018204596614 529.08667570881539177 27.009497869018204596614 199.51502923653234234
28.009497869018190385759 534.79708049818441395 28.009497869018190385759 200.93765091002885015
29.009497869018190385759 540.30210365740822454 29.009497869018190385759 202.27676857909904129
30.009497869018190385759 545.61375709357719188 30.009497869018190385759 203.55936115240521644
31.009497869018218807469 550.74304418652297954 31.009497869018218807469 204.77623458692141867
32.009497869018190385759 555.70010009087582148 32.009497869018190385759 205.93232265651516855
33.009497869018190385759 560.49430475892313552 33.009497869018190385759 207.02591634484724636
34.009497869018218807469 565.13467708095265607 34.009497869018218807469 208.07974394898627679
35.009497869018190385759 569.62925205730005018 35.009497869018190385759 209.08415745444187905
36.009497869018190385759 573.98545734875779090 36.009497869018190385759 210.05224404213933553
37.009497869018190385759 578.21017351062835132 37.009497869018190385759 210.98313161042727870
38.009497869018218807469 582.30995340755669076 38.009497869018218807469 211.88094362695872519
39.009497869018190385759 586.29079227788258777 39.009497869018190385759 212.75194688174084945
40.009497869018190385759 590.15830430995993083 40.009497869018190385759 213.59341721122473245
41.009497869018218807469 593.91788094091930361 41.009497869018218807469 214.40464331345174287
42.009497869018190385759 597.57445837075272266 42.009497869018190385759 215.18269144345762811
43.009497869018190385759 601.13267592257068372 43.009497869018190385759 215.94376365851167066
44.009497869018218807469 604.59702049874431395 44.009497869018218807469 216.66189537354273398
46.009497869018190385759 611.26082178034278058 46.009497869018190385759 218.04101126228931662
48.009497869018218807469 617.59459262138000213 48.009497869018218807469 219.32014790235243140
50.009497869018190385759 623.62126127516489760 50.009497869018190385759 220.45940326112057051
52.009497869018190385759 629.36361678273453890 52.009497869018190385759 221.49301557281955866
54.009497869018218807469 634.84329634516836904 54.009497869018218807469 222.43565600620360101
56.009497869018190385759 640.07743935132725710 56.009497869018190385759 223.29724249392091906
58.009497869018218807469 645.08098428247853917 58.009497869018218807469 224.11191820902243421
60.009497869018190385759 649.86867028762833343 60.009497869018190385759 224.93499864574235403
62.009497869018190385759 654.45291216370753773 62.009497869018190385759 225.73890392480436162
64.009497869018218807469 658.84666359137804648 64.009497869018218807469 226.52349018452378004
66.009497869018190385759 663.06722810533801749 66.009497869018190385759 227.36755109971616662
68.009497869018190385759 667.12955559181443732 68.009497869018190385759 228.22897575201201903
70.009497869018190385759 671.04267543179537370 70.009497869018190385759 228.97013465367516005
72.009497869018190385759 674.81596875644936517 72.009497869018190385759 229.57852563989996497
74.009497869018218807469 678.45812407274024736 74.009497869018218807469 230.15363363563795929
76.009497869018190385759 681.97612615369394007 76.009497869018190385759 230.69709221450520431
78.009497869018190385759 685.37892108140727032 78.009497869018190385759 231.31043023535301018
80.009497869018218807469 688.67205919499383526 80.009497869018218807469 231.76538958101974686
82.009497869018190385759 691.85550576140553858 82.009497869018190385759 232.28269100661691482
84.009497869018218807469 694.93080962711439952 84.009497869018218807469 232.73355325386941672
86.009497869018190385759 697.90051055177730177 86.009497869018190385759 232.98827987292239072
88.009497869018190385759 700.77176293090633408 88.009497869018190385759 233.29627686712134960
91.009497869018218807469 704.90068741963068533 91.009497869018218807469 233.65887346842555417
94.009497869018218807469 708.83014904624292285 94.009497869018218807469 234.18292021570002248
97.009497869018218807469 712.58705461174940865 97.009497869018218807469 234.99865246300905142
99.504748934509137825444 715.59988372493103270 99.504748934509137825444 235.16711379474173782
nan nan nan nan

