Time Pressure difference Time.1 Pressure.1 difference.1
(hr) (psi) (hr) (psi)
0.000200000000020850166 0.22217714885587908 0.000200000000020850166 0.17890752555056499
0.000399999999999067768 0.42623987288493781 0.000399999999999067768 0.40989473343310356
0.000600000000019917934 0.61982986485641189 0.000600000000019917934 0.57586329069573894
0.000799999999998135536 0.80558075556610786 0.000799999999998135536 0.73498995769743591
0.001007140329434719206 0.99127527375383229 0.001007140329434719206 0.89336243778297997
0.001267914553977789183 1.21698508861441401 0.001267914553977789183 1.08388179158930398
0.001596209851982166583 1.49041476026503705 0.001596209851982166583 1.31048299428975401
0.002009509145224797066 1.82047488269901647 0.002009509145224797066 1.57865532070986747
0.002529822128153114136 2.21739735299332130 0.002529822128153114136 1.89437932895364392
0.003184857364431081805 2.69284607891908578 0.003184857364431081805 2.26410314354889364
0.004009497869034817086 3.26002120651721805 0.004009497869034817086 2.69471333826445258
0.005047658755856332391 3.93375624819608216 0.005047658755856332391 3.19350744049208490
0.006354625877790454069 4.73060940659226858 0.006354625877790454069 3.76817757713280965
0.008000000000009777068 5.66895282985034932 0.008000000000009777068 4.42681664028275268
0.010071403294361402914 6.76906629304575880 0.010071403294361402914 5.17795894469945317
0.012679145539692626699 8.05324449868925107 0.012679145539692626699 6.03066544252333792
0.015962098519750611558 9.54592904626217020 0.015962098519750611558 6.99465691552126678
0.020095091452091651263 11.27387572666612314 0.020095091452091651263 8.08048720491693118
0.025298221281360611101 13.26636437788591394 0.025298221281360611101 9.29974468405547050
0.031848573644296607199 15.55545630541111457 0.031848573644296607199 10.66529977563446074
0.040094978690191851456 18.17631438747148565 0.040094978690191851456 12.19167625017949774
0.050476587558435426217 21.16762620861446820 0.050476587558435426217 13.89561063573796851
0.063546258777947173257 24.57217429785657359 0.063546258777947173257 15.79661113027754737
0.080000000000012505552 28.43750605690406985 0.080000000000012505552 17.91685347722685506
0.100714032943542974863 32.81644132136323577 0.100714032943542974863 20.27948416871563708
0.126791455396883634421 37.76694112996008812 0.126791455396883634421 22.90483030526209518
0.159620985197506115583 43.35084453543243654 0.159620985197506115583 25.80529760314253807
0.200950914520774404082 49.63135653092980704 0.200950914520774404082 28.98098860325354664
0.252982212813464002465 56.66972876579296070 0.252982212813464002465 32.41859887933754436
0.318485736442809752589 64.52219096216400374 0.318485736442809752589 36.09279904842643560
0.400949786901833249431 73.23720761823771852 0.400949786901833249431 39.97498852391311885
0.504765875584169521062 82.85635045825215172 0.504765875584169521062 44.03842387285203586
0.635462587779443310865 93.41380451319191991 0.635462587779443310865 48.26465698139782035
0.800000000000011368684 104.94003794061745793 0.800000000000011368684 52.65214727215420965
1.007140329435344483500 117.46503850645578382 1.007140329435344483500 57.22697286502047120
1.267914553968907398485 131.02654022736331285 1.267914553968907398485 62.00109813826234983
1.596209851975117999245 145.65385807145347030 1.596209851975117999245 67.05646085647389043
2.009509145207687197399 161.41359589642564742 2.009509145207687197399 72.43754567467897232
2.529822128134725289783 178.34428798948974304 2.529822128134725289783 78.23819094250745820
3.184857364427983839050 196.53952713345802294 3.184857364427983839050 84.58603975215342530
4.009497869018204596614 216.07508318773616907 4.009497869018204596614 91.52862376843702918
5.009497869018190385759 236.32531430060484468 5.009497869018190385759 98.85747351020782503
6.009497869018190385759 253.91607895350068702 6.009497869018190385759 105.29643901073040979
7.009497869018204596614 269.53930358267353995 7.009497869018204596614 111.03914635659886301
8.009497869018190385759 283.62866513787270151 8.009497869018190385759 116.19320552766190247
9.009497869018204596614 296.47688609529205905 9.009497869018204596614 120.85355902024635100
10.009497869018190385759 308.29312993588723657 10.009497869018190385759 125.08137329504552326
11.009497869018190385759 319.23347388114035539 11.009497869018190385759 128.89839115730933372
12.009497869018204596614 329.41849931972808463 12.009497869018204596614 132.38871225689243261
13.009497869018190385759 338.94344513804418284 13.009497869018190385759 135.58841047716603612
14.009497869018204596614 347.88623667074926971 14.009497869018204596614 138.52397803345522220
15.009497869018190385759 356.30973896915207888 15.009497869018190385759 141.22685809688573499
16.009497869018190385759 364.26611256990173615 16.009497869018190385759 143.72439912042582932
17.009497869018204596614 371.80101191232466817 17.009497869018204596614 146.04207820397905948
18.009497869018190385759 378.95395671593865927 18.009497869018190385759 148.20620229588115535
19.009497869018204596614 385.75853864158796114 19.009497869018204596614 150.22352618869697949
20.009497869018190385759 392.24507046682549571 20.009497869018190385759 152.10407765331177643
21.009497869018190385759 398.43838716623002938 21.009497869018190385759 153.85715922997007965
22.009497869018204596614 404.35974031817454488 22.009497869018204596614 155.49804213571985656
23.009497869018190385759 410.02855879815700746 23.009497869018190385759 157.03235551481103016
24.009497869018204596614 415.46280234051266689 24.009497869018204596614 158.47639725642929420
25.009497869018204596614 420.67930989014541865 25.009497869018204596614 159.83775962930465653
26.009497869018190385759 425.69290343554132505 26.009497869018190385759 161.12442436615708630
27.009497869018204596614 430.51710324799500995 27.009497869018204596614 162.34510598150714600
28.009497869018190385759 435.16365180263227330 28.009497869018190385759 163.50269128843444832
29.009497869018190385759 439.64308160616508303 29.009497869018190385759 164.59232950134909856
30.009497869018190385759 443.96516673093816507 30.009497869018190385759 165.63597332127218920
31.009497869018218807469 448.13886061204749467 31.009497869018218807469 166.62614156798812814
32.009497869018190385759 452.17241021093184372 32.009497869018190385759 167.56684884653424206
33.009497869018190385759 456.07344798191826385 33.009497869018190385759 168.45670453265654487
34.009497869018218807469 459.84931258367936380 34.009497869018218807469 169.31420261054500997
35.009497869018190385759 463.50654208498121989 35.009497869018190385759 170.13149250402531720
36.009497869018190385759 467.05118036323580100 36.009497869018190385759 170.91922323428872232
37.009497869018190385759 470.48882611686747168 37.009497869018190385759 171.67668517341616052
38.009497869018218807469 473.82481140286120080 38.009497869018218807469 172.40723358138836829
39.009497869018190385759 477.06401453844142679 39.009497869018190385759 173.11596773664939519
40.009497869018190385759 480.21100378098117289 40.009497869018190385759 173.80067099105136208
41.009497869018218807469 483.27016613548772739 41.009497869018218807469 174.46076455916485770
42.009497869018190385759 486.24551818113303625 42.009497869018190385759 175.09386125673128731
43.009497869018190385759 489.14083492877671233 43.009497869018190385759 175.71314467555603755
44.009497869018218807469 491.95976736473170376 44.009497869018218807469 176.29748746833476503
46.009497869018190385759 497.38209333907343535 46.009497869018190385759 177.41967217780802457
48.009497869018218807469 502.53587399602702135 48.009497869018218807469 178.46050390958538401
50.009497869018190385759 507.43976602390131347 50.009497869018190385759 179.38751443439127797
52.009497869018190385759 512.11231283417032500 52.009497869018190385759 180.22856335651343329
54.009497869018218807469 516.57112058771235752 54.009497869018218807469 180.99558858586976839
56.009497869018190385759 520.83013558176492097 56.009497869018190385759 181.69666033066991417
58.009497869018218807469 524.90151323807151584 58.009497869018218807469 182.35956084405387401
60.009497869018190385759 528.79724678198806487 60.009497869018190385759 183.02930026790542684
62.009497869018190385759 532.52743811677021313 62.009497869018190385759 183.68343689223806336
64.009497869018218807469 536.10262763462810653 64.009497869018218807469 184.32185365699606905
66.009497869018190385759 539.53689519804208885 66.009497869018190385759 185.00866486744027384
68.009497869018190385759 542.84240550895583510 68.009497869018190385759 185.70960492697963673
70.009497869018190385759 546.02650576231019386 70.009497869018190385759 186.31268490997675258
72.009497869018190385759 549.09682937168622630 72.009497869018190385759 186.80773182205558669
74.009497869018218807469 552.06044616329813834 74.009497869018218807469 187.27569641036845383
76.009497869018190385759 554.92303963738936545 76.009497869018190385759 187.71790791152889710
78.009497869018190385759 557.69188920870669790 78.009497869018190385759 188.21698021890370001
80.009497869018218807469 560.37151118058397969 80.009497869018218807469 188.58718001524070473
82.009497869018190385759 562.96187729078746997 82.009497869018190385759 189.00810747661702749
84.009497869018218807469 565.46424783356985699 84.009497869018218807469 189.37497346958687672
86.009497869018190385759 567.88068940788457439 86.009497869018190385759 189.58224417056970879
88.009497869018190385759 570.21702353555951959 88.009497869018190385759 189.83286090283573344
91.009497869018218807469 573.57672373597347359 91.009497869018218807469 190.12790526060928187
94.009497869018218807469 576.77412127872366909 94.009497869018218807469 190.55432138099428130
97.009497869018218807469 579.83111019093030336 97.009497869018218807469 191.21808159318820231
99.504748934509137825444 582.28264511316308472 99.504748934509137825444 191.35515834805013924
nan nan nan nan

