Time Pressure difference Time.1 Pressure.1 difference.1
(hr) (psi) (hr) (psi)
0.000200000000020850166 0.20646765348223109 0.000200000000020850166 0.16625749849143415
0.000399999999999067768 0.39610170005468964 0.000399999999999067768 0.38091227753379325
0.000600000000019917934 0.57600351077565548 0.000600000000019917934 0.53514568428290898
0.000799999999998135536 0.74862050012203962 0.000799999999998135536 0.68302097078953650
0.001007140329434719206 0.92118510288234923 0.001007140329434719206 0.83019539672761777
0.001267914553977789183 1.13093563790430407 0.001267914553977789183 1.00724368511329243
0.001596209851982166583 1.38503189842811536 0.001596209851982166583 1.21782258055209458
0.002009509145224797066 1.69175443644757095 0.002009509145224797066 1.46703322732634156
0.002529822128153114136 2.06061168156955166 0.002529822128153114136 1.76043331579530538
0.003184857364431081805 2.50244282081369596 0.003184857364431081805 2.10401504248988092
0.004009497869034817086 3.02951465656145524 0.004009497869034817086 2.50417805172050123
0.005047658755856332391 3.65561186701050067 0.005047658755856332391 2.96770388409365493
0.006354625877790454069 4.39612187279281486 0.006354625877790454069 3.50174077874968193
0.008000000000009777068 5.26811778127507235 0.008000000000009777068 4.11380940309104393
0.010071403294361402914 6.29044544404252282 0.010071403294361402914 4.81184063547827900
0.012679145539692626699 7.48382317049910206 0.012679145539692626699 5.60425475466815204
0.015962098519750611558 8.87096436622343276 0.015962098519750611558 6.50008521442380438
0.020095091452091651263 10.47673299851801332 0.020095091452091651263 7.50913962477129093
0.025298221281360611101 12.32833861379297247 0.025298221281360611101 8.64218697912225586
0.031848573644296607199 14.45557555654366233 0.031848573644296607199 9.91118767028656933
0.040094978690191851456 16.89112044088259168 0.040094978690191851456 11.32963853552034017
0.050476587558435426217 19.67092536558112315 0.050476587558435426217 12.91309271199892095
0.063546258777947173257 22.83474783235156025 0.063546258777947173257 14.67967903015691178
0.080000000000012505552 26.42677330540580272 0.080000000000012505552 16.65000525156434819
0.100714032943542974863 30.49608688449917082 0.100714032943542974863 18.84558124769533904
0.126791455396883634421 35.09655135309422036 0.126791455396883634421 21.28529684933447186
0.159620985197506115583 40.28563330565437894 0.159620985197506115583 23.98068060090013276
0.200950914520774404082 46.12206869540951715 0.200950914520774404082 26.93182779292248696
0.252982212813464002465 52.66277824699951537 0.252982212813464002465 30.12637471615206053
0.318485736442809752589 59.96001584362715420 0.318485736442809752589 33.54078295409325250
0.400949786901833249431 68.05881920078655867 0.400949786901833249431 37.14847418383845223
0.504765875584169521062 76.99782062787068071 0.504765875584169521062 40.92459592224633269
0.635462587779443310865 86.80878803246118025 0.635462587779443310865 44.85200446756160630
0.800000000000011368684 97.52003525794752647 0.800000000000011368684 48.92926817210290835
1.007140329435344483500 109.15942972317102999 1.007140329435344483500 53.18062124830185411
1.267914553968907398485 121.76203738300429791 1.267914553968907398485 57.61718210828419728
1.596209851975117999245 135.35510043003756664 1.596209851975117999245 62.31509493732927751
2.009509145207687197399 150.00051335829454047 2.009509145207687197399 67.31569901081277862
2.529822128134725289783 165.73408580841473281 2.529822128134725289783 72.70619764354228209
3.184857364427983839050 182.64279289169834897 3.184857364427983839050 78.60520865856682349
4.009497869018204596614 200.79704700274473339 4.009497869018204596614 85.05690289592128295
5.009497869018190385759 219.61544359248128444 5.009497869018190385759 91.86755114079919338
6.009497869018190385759 235.96241680527336371 6.009497869018190385759 97.85123625239593537
7.009497869018204596614 250.48096898591887793 7.009497869018204596614 103.18789358391005351
8.009497869018190385759 263.57411305741703700 8.009497869018190385759 107.97752432873630823
9.009497869018204596614 275.51387394714009815 9.009497869018204596614 112.30835787740065257
10.009497869018190385759 286.49462579900631454 10.009497869018190385759 116.23723578933524436
11.009497869018190385759 296.66141007136275221 11.009497869018190385759 119.78436349972180608
12.009497869018204596614 306.12628219611093527 12.009497869018204596614 123.02789421852627072
13.009497869018190385759 314.97774699697032474 13.009497869018190385759 126.00135115049771173
14.009497869018204596614 323.28821993645385646 14.009497869018204596614 128.72935332401900155
15.009497869018190385759 331.11612106224231411 15.009497869018190385759 131.24112065569178753
16.009497869018190385759 338.50992279223191872 16.009497869018190385759 133.56206786948661147
17.009497869018204596614 345.51205147407949880 17.009497869018204596614 135.71587065420274598
18.009497869018190385759 352.15923250370059350 18.009497869018190385759 137.72697587091985838
19.009497869018204596614 358.48268237400094449 19.009497869018204596614 139.60166070060725474
20.009497869018190385759 364.51057053482776382 20.009497869018190385759 141.34924387984528948
21.009497869018190385759 370.26597595245618777 21.009497869018190385759 142.97837019350754417
22.009497869018204596614 375.76864756840461723 22.009497869018204596614 144.50323107561845859
23.009497869018190385759 381.03664049929744806 23.009497869018190385759 145.92905765012741881
24.009497869018204596614 386.08664459926433210 24.009497869018204596614 147.27099543021711270
25.009497869018204596614 390.93430818074114086 25.009497869018204596614 148.53609985753561773
26.009497869018190385759 395.59340521282626923 26.009497869018190385759 149.73178829986318306
27.009497869018204596614 400.07649998803572089 27.009497869018204596614 150.86615909392583035
28.009497869018190385759 404.39450470547643590 28.009497869018190385759 151.94189493470676666
29.009497869018190385759 408.55720714916350289 29.009497869018190385759 152.95448802145571676
30.009497869018190385759 412.57369029541729333 30.009497869018190385759 153.92433884401052069
31.009497869018218807469 416.45227450816537385 31.009497869018218807469 154.84449519449404420
32.009497869018190385759 420.20062363036089437 32.009497869018190385759 155.71868781698131556
33.009497869018190385759 423.82583044784320236 33.009497869018190385759 156.54562441418585195
34.009497869018218807469 427.33471472422729676 34.009497869018218807469 157.34249131484992290
35.009497869018190385759 430.73335224058854465 35.009497869018190385759 158.10199303404371562
36.009497869018190385759 434.02735952947165288 36.009497869018190385759 158.83402563186427869
37.009497869018190385759 437.22193942173544201 37.009497869018190385759 159.53792965610389842
38.009497869018218807469 440.32204696023467250 38.009497869018218807469 160.21682312613867794
39.009497869018190385759 443.33221553067284049 39.009497869018190385759 160.87544476537118499
40.009497869018190385759 446.25669038232598496 40.009497869018190385759 161.51173465835077536
41.009497869018218807469 449.09954832792800516 41.009497869018218807469 162.12515494387039894
42.009497869018190385759 451.86452194610342303 42.009497869018190385759 162.71348722847756108
43.009497869018190385759 454.55511932775209516 43.009497869018190385759 163.28898293081977044
44.009497869018218807469 457.17473330863953151 44.009497869018218807469 163.83200855643232785
46.009497869018190385759 462.21366249691675421 46.009497869018190385759 164.87484687230644909
48.009497869018218807469 467.00303442055036385 48.009497869018218807469 165.84208444123086679
50.009497869018190385759 471.56018660806995513 50.009497869018190385759 166.70354876731312288
52.009497869018190385759 475.90235132064310619 52.009497869018190385759 167.48512958383068394
54.009497869018218807469 480.04588983908615774 54.009497869018218807469 168.19792070606081325
56.009497869018190385759 484.00376235881179809 56.009497869018190385759 168.84942172143061612
58.009497869018218807469 487.78726482729877034 58.009497869018218807469 169.46545048134299805
60.009497869018190385759 491.40754246406970651 60.009497869018190385759 170.08783459239697322
62.009497869018190385759 494.87398289639247650 62.009497869018190385759 170.69571913218084092
64.009497869018218807469 498.19638123622013381 64.009497869018218807469 171.28899531761248909
66.009497869018190385759 501.38782180020081114 66.009497869018190385759 171.92724411923742878
68.009497869018190385759 504.45960915983778250 68.009497869018190385759 172.57862276042553162
70.009497869018190385759 507.41857101143978070 70.009497869018190385759 173.13906072442287609
72.009497869018190385759 510.27180103227408381 72.009497869018190385759 173.59910431948600262
74.009497869018218807469 513.02586916185282462 74.009497869018218807469 174.03398050256461715
76.009497869018190385759 515.68605703676587382 76.009497869018190385759 174.44492452384503167
78.009497869018190385759 518.25912936566680855 78.009497869018190385759 174.90870889029432078
80.009497869018218807469 520.74928311731036956 80.009497869018218807469 175.25273294345601016
82.009497869018190385759 523.15649202780241467 82.009497869018190385759 175.64389785705827762
84.009497869018218807469 525.48192727968103100 84.009497869018218807469 175.98482383032316534
86.009497869018190385759 527.72750934874125051 86.009497869018190385759 176.17743902719610105
88.009497869018190385759 529.89864813405529276 88.009497869018190385759 176.41033538445341833
91.009497869018218807469 533.02079377484392353 91.009497869018218807469 176.68451801996013728
94.009497869018218807469 535.99211270346040692 94.009497869018218807469 177.08078350557042313
97.009497869018218807469 538.83295088450097410 97.009497869018218807469 177.69761117750823587
99.504748934509137825444 541.11114495364654431 99.504748934509137825444 177.82499563657182762
nan nan nan nan

