Time Pressure difference Time.1 Pressure.1 difference.1
(hr) (psi) (hr) (psi)
0.000200000000020850166 0.20871186710703793 0.000200000000020850166 0.16806464521416714
0.000399999999999067768 0.40040715331615367 0.000399999999999067768 0.38505262837655185
0.000600000000019917934 0.58226441850147792 0.000600000000019917934 0.54096248519902757
0.000799999999998135536 0.75675767947119221 0.000799999999998135536 0.69044511177637924
0.001007140329434719206 0.93119798443541824 0.001007140329434719206 0.83921925973552658
0.001267914553977789183 1.14322841657717689 0.001267914553977789183 1.01819198603843719
0.001596209851982166583 1.40008659297624716 0.001596209851982166583 1.23105978251461745
0.002009509145224797066 1.71014307162634882 0.002009509145224797066 1.48297924066684517
0.002529822128153114136 2.08300963463008992 0.002529822128153114136 1.77956846053221085
0.003184857364431081805 2.52964328625732326 0.003184857364431081805 2.12688477121259734
0.004009497869034817086 3.06244416369799266 0.004009497869034817086 2.53139737836963707
0.005047658755856332391 3.69534677860844107 0.005047658755856332391 2.99996153500771623
0.006354625877790454069 4.44390580619273745 0.006354625877790454069 3.53980317851869986
0.008000000000009777068 5.32537993107154062 0.008000000000009777068 4.15852472268985895
0.010071403294361402914 6.35881985104298586 0.010071403294361402914 4.86414325108130363
0.012679145539692626699 7.56516907452626608 0.012679145539692626699 5.66517056721889301
0.015962098519750611558 8.96738789194325214 0.015962098519750611558 6.57073831458058422
0.020095091452091651263 10.59061053111059891 0.020095091452091651263 7.59076070764923916
0.025298221281360611101 12.46234229437767738 0.025298221281360611101 8.73612379411271611
0.031848573644296607199 14.61270137781044198 0.031848573644296607199 10.01891797105055382
0.040094978690191851456 17.07471957610957602 0.040094978690191851456 11.45278678047164966
0.050476587558435426217 19.88473977172874285 0.050476587558435426217 13.05345241539021295
0.063546258777947173257 23.08295161313798971 0.063546258777947173257 14.83924075874557325
0.080000000000012505552 26.71402084133412558 0.080000000000012505552 16.83098356951613894
0.100714032943542974863 30.82756608976546531 0.100714032943542974863 19.05042452212680715
0.126791455396883634421 35.47803560693220248 0.126791455396883634421 21.51665877160984763
0.159620985197506115583 40.72352062419410856 0.159620985197506115583 24.24134017264904983
0.200950914520774404082 46.62339552905527285 0.200950914520774404082 27.22456505154121231
0.252982212813464002465 53.23519974968429835 0.252982212813464002465 30.45383531089284190
0.318485736442809752589 60.61175514627527861 0.318485736442809752589 33.90535668185513885
0.400949786901833249431 68.79858897470815293 0.400949786901833249431 37.55226194670625972
0.504765875584169521062 77.83475346078232349 0.504765875584169521062 41.36942848661857397
0.635462587779443310865 87.75236181542270231 0.635462587779443310865 45.33952625525249402
0.800000000000011368684 98.58003564118608608 0.800000000000011368684 49.46110804353880752
1.007140329435344483500 110.34594526364027445 1.007140329435344483500 53.75867147926165757
1.267914553968907398485 123.08553778934128786 1.267914553968907398485 58.24345582685250378
1.596209851975117999245 136.82635152166841408 1.596209851975117999245 62.99243292577849473
2.009509145207687197399 151.63095372088471890 2.009509145207687197399 68.04739139136509607
2.529822128134725289783 167.53554326285399156 2.529822128134725289783 73.49648240053731740
3.184857364427983839050 184.62804064052116360 3.184857364427983839050 79.45961310050776660
4.009497869018204596614 202.97962360060066089 4.009497869018204596614 85.98143444913783640
5.009497869018190385759 222.00256797935608688 5.009497869018190385759 92.86611147928614685
6.009497869018190385759 238.52722568359155275 6.009497869018190385759 98.91483664644371743
7.009497869018204596614 253.20358821402666649 7.009497869018204596614 104.30950112286559772
8.009497869018190385759 266.43904906891071960 8.009497869018190385759 109.15119307143996252
9.009497869018204596614 278.50858996830464775 9.009497869018204596614 113.52910089780718295
10.009497869018190385759 289.60869781856069949 10.009497869018190385759 117.50068400443669248
11.009497869018190385759 299.88599061561666304 11.009497869018190385759 121.08636745080573860
12.009497869018204596614 309.45374178519909947 12.009497869018204596614 124.36515393829287746
13.009497869018190385759 318.40141815998089214 13.009497869018190385759 127.37093105430747642
14.009497869018204596614 326.80222232706751129 14.009497869018204596614 130.12858542536704931
15.009497869018190385759 334.71520933465797043 15.009497869018190385759 132.66765457586237176
16.009497869018190385759 342.18937847475621084 16.009497869018190385759 135.01382947676367507
17.009497869018204596614 349.26761725097168210 17.009497869018204596614 137.19104316131364385
18.009497869018190385759 355.98705024830599086 18.009497869018190385759 139.22400821734291299
19.009497869018204596614 362.37923326937050206 19.009497869018204596614 141.11907005604865617
20.009497869018190385759 368.47264195368455830 20.009497869018190385759 142.88564870462622025
21.009497869018190385759 374.29060612585243462 21.009497869018190385759 144.53248291300218398
22.009497869018204596614 379.85308938980028870 22.009497869018204596614 146.07391836991865830
23.009497869018190385759 385.17834311342022602 23.009497869018190385759 147.51524305936794690
24.009497869018204596614 390.28323856229974353 24.009497869018204596614 148.87176711967600795
25.009497869018204596614 395.18359413922752310 25.009497869018204596614 150.15062268207404372
26.009497869018190385759 399.89333353035698337 26.009497869018190385759 151.35930773790516923
27.009497869018204596614 404.42515759660136609 27.009497869018204596614 152.50600864929458567
28.009497869018190385759 408.79009714792726982 28.009497869018190385759 153.59343727095355803
29.009497869018190385759 412.99804635730663449 29.009497869018190385759 154.61703680429764063
30.009497869018190385759 417.05818692906314027 30.009497869018190385759 155.59742948361935078
31.009497869018218807469 420.97892966586277907 31.009497869018218807469 156.52758753356459920
32.009497869018190385759 424.76802171329961766 32.009497869018190385759 157.41128224977458672
33.009497869018190385759 428.43263295271106017 33.009497869018190385759 158.24720728825312221
34.009497869018218807469 431.97965727557755145 34.009497869018218807469 159.05273578566348647
35.009497869018190385759 435.41523650407322066 35.009497869018190385759 159.82049295832680968
36.009497869018190385759 438.74504822000938020 36.009497869018190385759 160.56048243221061966
37.009497869018190385759 441.97435180675427091 37.009497869018190385759 161.27203758714853166
38.009497869018218807469 445.10815616632413594 38.009497869018218807469 161.95831033403146648
39.009497869018190385759 448.15104396035411582 39.009497869018190385759 162.62409090412521095
40.009497869018190385759 451.10730658213384459 40.009497869018190385759 163.26729699159369602
41.009497869018218807469 453.98106515757939405 41.009497869018218807469 163.88738488891243605
42.009497869018190385759 456.77609283682198793 42.009497869018190385759 164.48211208965665264
43.009497869018190385759 459.49593584218416709 43.009497869018190385759 165.06386318006781266
44.009497869018218807469 462.14402388808127853 44.009497869018218807469 165.61279125813265978
46.009497869018190385759 467.23772404579625572 46.009497869018190385759 166.66696477309238844
48.009497869018218807469 472.07915435990412334 48.009497869018218807469 167.64471579385295286
50.009497869018190385759 476.68584081033156963 50.009497869018190385759 168.51554386261000218
52.009497869018190385759 481.07520296543270888 52.009497869018190385759 169.30562012278537054
54.009497869018218807469 485.26377994603274146 54.009497869018218807469 170.02615897460495376
56.009497869018190385759 489.26467281923362407 56.009497869018190385759 170.68474152275052802
58.009497869018218807469 493.08930031455207654 58.009497869018218807469 171.30746624744455175
60.009497869018190385759 496.74892879520086808 60.009497869018190385759 171.93661540318387893
62.009497869018190385759 500.25304792787494534 62.009497869018190385759 172.55110738361759104
64.009497869018218807469 503.61155929313554225 64.009497869018218807469 173.15083222323872292
66.009497869018190385759 506.83768942846381833 66.009497869018190385759 173.79601851183784333
68.009497869018190385759 509.94286578114036956 68.009497869018190385759 174.45447735564752634
70.009497869018190385759 512.93399026156419040 70.009497869018190385759 175.02100703664484627
72.009497869018190385759 515.81823365219008792 72.009497869018190385759 175.48605110556738396
74.009497869018218807469 518.60223730491645711 74.009497869018218807469 175.92565420367944284
76.009497869018190385759 521.29134026542624269 76.009497869018190385759 176.34106500779986959
78.009497869018190385759 523.89238077181539666 78.009497869018190385759 176.80989050866708112
80.009497869018218807469 526.40960141206380740 80.009497869018218807469 177.15765395371096247
82.009497869018190385759 528.84297563680036092 82.009497869018190385759 177.55307065985238069
84.009497869018218807469 531.19368735880789245 84.009497869018218807469 177.89770235021799749
86.009497869018190385759 533.46367792861883572 86.009497869018190385759 178.09241119053518787
88.009497869018190385759 535.65841604855586411 88.009497869018190385759 178.32783902993659808
91.009497869018218807469 538.81449805500540151 91.009497869018218807469 178.60500191148145177
94.009497869018218807469 541.81811392849806452 94.009497869018218807469 179.00557463063100272
97.009497869018218807469 544.68983078541941723 97.009497869018218807469 179.62910695117679438
99.504748934509137825444 546.99278783357749489 99.504748934509137825444 179.75787602392588838
nan nan nan nan

