Time Pressure difference Time.1 Pressure.1 difference.1
(hr) (psi) (hr) (psi)
0.000200000000020850166 0.78771898230720772 0.000200000000020850166 0.63430849967927594
0.000399999999999067768 1.51121409477387036 0.000399999999999067768 1.45326314580827654
0.000600000000019917934 2.19757861176364244 0.000600000000019917934 2.04169712155762006
0.000799999999998135536 2.85614995155256457 0.000799999999998135536 2.60587348638181870
0.001007140329434719206 3.51452142512722387 0.001007140329434719206 3.16737591577601973
0.001267914553977789183 4.31476531417837705 0.001267914553977789183 3.84285362472571368
0.001596209851982166583 5.28419778639422333 0.001596209851982166583 4.64625788884549085
0.002009509145224797066 6.45441094775105828 0.002009509145224797066 5.59705068251680338
0.002529822128153114136 7.86168152424905031 0.002529822128153114136 6.71643580265382845
0.003184857364431081805 9.54736337071312313 0.003184857364431081805 8.02727478167335207
0.004009497869034817086 11.55825700492468044 0.004009497869034817086 9.55398365384669468
0.005047658755856332391 13.94695397087702027 0.005047658755856332391 11.32243547083557367
0.006354625877790454069 16.77216062337258862 0.006354625877790454069 13.35990231892541580
0.008000000000009777068 20.09901457856032891 0.008000000000009777068 15.69507717918430778
0.010071403294361402914 23.99941685716223461 0.010071403294361402914 18.35821807666169647
0.012679145539692626699 28.55241231353462084 0.012679145539692626699 21.38145020531001705
0.015962098519750611558 33.84465752765679269 0.015962098519750611558 24.79923815502994700
0.020095091452091651263 39.97101393999807328 0.020095091452091651263 28.64900009016002969
0.025298221281360611101 47.03529188523187798 0.025298221281360611101 32.97182206165121698
0.031848573644296607199 55.15116326463940766 0.031848573644296607199 37.81333556815854280
0.040094978690191851456 64.44329646467161865 0.040094978690191851456 43.22503397790912771
0.050476587558435426217 75.04885655781492915 0.050476587558435426217 49.26625589034370734
0.063546258777947173257 87.11952705603692948 0.063546258777947173257 56.00616673462038619
0.080000000000012505552 100.82388511084170091 0.080000000000012505552 63.52338960107703514
0.100714032943542974863 116.34920104846965216 0.100714032943542974863 71.89998932544634158
0.126791455396883634421 133.90097309713118534 0.126791455396883634421 81.20803471865652057
0.159620985197506115583 153.69844880744227567 0.159620985197506115583 91.49150968386898342
0.200950914520774404082 175.96571860966022882 0.200950914520774404082 102.75077777517167021
0.252982212813464002465 200.91994744235685744 0.252982212813464002465 114.93866875401492678
0.318485736442809752589 228.76049522949054449 0.318485736442809752589 127.96537844442099185
0.400949786901833249431 259.65919064647920322 0.400949786901833249431 141.72950476660102481
0.504765875584169521062 293.76342435198489511 0.504765875584169521062 156.13623009465720770
0.635462587779443310865 331.19439781949859025 0.635462587779443310865 171.12014747950135529
0.800000000000011368684 372.06013451673459258 0.800000000000011368684 186.67579487400129779
1.007140329435344483500 416.46695470470683631 1.007140329435344483500 202.89563106689075767
1.267914553968907398485 464.54864262428804977 1.267914553968907398485 219.82207521747557166
1.596209851975117999245 516.40913316242586006 1.596209851975117999245 237.74563394568014019
2.009509145207687197399 572.28456726914555475 2.009509145207687197399 256.82402557386183162
2.529822128134725289783 632.31156650819093556 2.529822128134725289783 277.38994970525374129
3.184857364427983839050 696.82195983680571771 3.184857364427983839050 299.89595912127123256
4.009497869018204596614 766.08438584742827970 4.009497869018204596614 324.51057517900403582
5.009497869018190385759 837.88065979305349629 5.009497869018190385759 350.49467880891864979
6.009497869018190385759 900.24791628968421264 6.009497869018190385759 373.32373831077143223
7.009497869018204596614 955.63934906584256623 7.009497869018204596614 393.68424617339599081
8.009497869018190385759 1005.59254003427599855 8.009497869018190385759 411.95772868898308161
9.009497869018204596614 1051.14532342876282200 9.009497869018204596614 428.48080016269159387
10.009497869018190385759 1093.03927886360020238 10.009497869018190385759 443.47032350061590478
11.009497869018190385759 1131.82777103313401312 11.009497869018190385759 457.00338683046038568
12.009497869018204596614 1167.93831576994489296 12.009497869018204596614 469.37816163807309522
13.009497869018190385759 1201.70857821670210797 13.009497869018190385759 480.72254623722500355
14.009497869018204596614 1233.41483910538363489 14.009497869018204596614 491.13046757315947843
15.009497869018190385759 1263.27998361790264426 15.009497869018190385759 500.71340597986761622
16.009497869018190385759 1291.48894456601533420 16.009497869018190385759 509.56832415423707516
17.009497869018204596614 1318.20358768915139080 17.009497869018204596614 517.78554999592563490
18.009497869018190385759 1343.56402835650965244 18.009497869018190385759 525.45835359448767576
19.009497869018204596614 1367.68936427472090145 19.009497869018204596614 532.61068375992556412
20.009497869018190385759 1390.68706801874509438 20.009497869018190385759 539.27809349810536332
21.009497869018190385759 1412.64519086208838416 21.009497869018190385759 545.49356454262101579
22.009497869018204596614 1433.63907930989148554 22.009497869018204596614 551.31124029937041087
23.009497869018190385759 1453.73761755710211219 23.009497869018190385759 556.75107864342101038
24.009497869018204596614 1473.00448102545396978 24.009497869018204596614 561.87086300006740203
25.009497869018204596614 1491.49937142869748641 25.009497869018204596614 566.69751141298922903
26.009497869018190385759 1509.27483945328299342 26.009497869018190385759 571.25932275273873984
27.009497869018204596614 1526.37882060652759719 27.009497869018204596614 575.58719393443448098
28.009497869018190385759 1542.85294730024156706 28.009497869018190385759 579.69136002263121554
29.009497869018190385759 1558.73456205822162701 29.009497869018190385759 583.55462277751041711
30.009497869018190385759 1574.05831840968971846 30.009497869018190385759 587.25481450269239758
31.009497869018218807469 1588.85596035180469698 31.009497869018218807469 590.76541101377608811
32.009497869018190385759 1603.15672711148567942 32.009497869018190385759 594.10064591043965265
33.009497869018190385759 1616.98767920861905623 33.009497869018190385759 597.25558879760046693
34.009497869018218807469 1630.37483552395383413 34.009497869018218807469 600.29580925556876991
35.009497869018190385759 1643.34137648311502744 35.009497869018190385759 603.19347342336243400
36.009497869018190385759 1655.90873037874530382 36.009497869018190385759 605.98633692156920461
37.009497869018190385759 1668.09674714162088094 37.009497869018190385759 608.67188379665731190
38.009497869018218807469 1679.92433133741701567 38.009497869018218807469 611.26200997037688012
39.009497869018190385759 1691.40877881811047700 39.009497869018190385759 613.77479470266609951
40.009497869018190385759 1702.56628613256953031 40.009497869018190385759 616.20237896827302393
41.009497869018218807469 1713.41240720763835270 41.009497869018218807469 618.54271070976631108
42.009497869018190385759 1723.96138264219916891 42.009497869018190385759 620.78732627386546028
43.009497869018190385759 1734.22659656566270314 43.009497869018190385759 622.98296748606242090
44.009497869018218807469 1744.22099338404882474 44.009497869018218807469 625.05472829682332758
46.009497869018190385759 1763.44560365671486579 46.009497869018190385759 629.03338317586474204
48.009497869018218807469 1781.71809871318669138 48.009497869018218807469 632.72360477034817450
50.009497869018190385759 1799.10462499383197610 50.009497869018190385759 636.01027844920542975
52.009497869018190385759 1815.67092732114929277 52.009497869018190385759 638.99217917309317727
54.009497869018218807469 1831.47942753825282125 54.009497869018218807469 641.71163225899283589
56.009497869018190385759 1846.57957160807563923 56.009497869018190385759 644.19725026328421791
58.009497869018218807469 1861.01445602589001282 58.009497869018218807469 646.54753390164557914
60.009497869018190385759 1874.82660222704839725 60.009497869018190385759 648.92206458621012644
62.009497869018190385759 1888.05182605036679888 62.009497869018190385759 651.24127625429855470
64.009497869018218807469 1900.72749797731785293 64.009497869018218807469 653.50475387480423706
66.009497869018190385759 1912.90353752033115597 66.009497869018190385759 655.93981180274283815
68.009497869018190385759 1924.62307407720709307 68.009497869018190385759 658.42496292292776161
70.009497869018190385759 1935.91215679364518110 70.009497869018190385759 660.56315558991764192
72.009497869018190385759 1946.79784959052403792 72.009497869018190385759 662.31832191456066994
74.009497869018218807469 1957.30521821532988724 74.009497869018218807469 663.97746909130626136
76.009497869018190385759 1967.45441325983483694 76.009497869018190385759 665.54530986814791049
78.009497869018190385759 1977.27124355814203227 78.009497869018190385759 667.31474804884032892
80.009497869018218807469 1986.77172145843428552 80.009497869018218807469 668.62727459948985143
82.009497869018190385759 1995.95574675824673250 82.009497869018190385759 670.11965378073318789
84.009497869018218807469 2004.82778777356543287 84.009497869018218807469 671.42036048308068530
86.009497869018190385759 2013.39517153704537122 86.009497869018190385759 672.15522933201998512
88.009497869018190385759 2021.67853798971077595 88.009497869018190385759 673.04377956459939014
91.009497869018218807469 2033.59020233663295585 91.009497869018218807469 674.08984592397837332
94.009497869018218807469 2044.92642998820247158 94.009497869018218807469 675.60168489625243637
97.009497869018218807469 2055.76484522238934005 97.009497869018218807469 677.95501655766724980
99.504748934509137825444 2064.45665085576001729 99.504748934509137825444 678.44101596126870390
nan nan nan nan

