Time Pressure difference Time.1 Pressure.1 difference.1
(hr) (psi) (hr) (psi)
0.000200000000020850166 0.29997655451585020 0.000200000000020850166 0.24155527860530829
0.000399999999999067768 0.57549558594902372 0.000399999999999067768 0.55342689598206918
0.000600000000019917934 0.83687466601825311 0.000600000000019917934 0.77751238912118292
0.000799999999998135536 1.08766963967006469 0.000799999999998135536 0.99236017857465264
0.001007140329434719206 1.33838850092689143 0.001007140329434719206 1.20618968872382126
0.001267914553977789183 1.64313474927400693 0.001267914553977789183 1.46342289032764605
0.001596209851982166583 2.01231083793360233 0.001596209851982166583 1.76937266232387658
0.002009509145224797066 2.45794756889665189 0.002009509145224797066 2.13145044984732968
0.002529822128153114136 2.99385972575865988 0.002529822128153114136 2.55773101316636753
0.003184857364431081805 3.63579554763149337 0.003184857364431081805 3.05692040593638525
0.004009497869034817086 4.40157745391718702 0.004009497869034817086 3.63831666210116333
0.005047658755856332391 5.31123318359134355 0.005047658755856332391 4.31177267217954885
0.006354625877790454069 6.38711909778956066 0.006354625877790454069 5.08767410245877638
0.008000000000009777068 7.65404068946124649 0.008000000000009777068 5.97694771970836403
0.010071403294361402914 9.13937906906178021 0.010071403294361402914 6.99111628560431164
0.012679145539692626699 10.87323583829761020 0.012679145539692626699 8.14241361094901883
0.015962098519750611558 12.88861127121592887 0.015962098519750611558 9.44396438762299084
0.020095091452091651263 15.22163018987581040 0.020095091452091651263 10.91001807801915824
0.025298221281360611101 17.91182530482239699 0.025298221281360611101 12.55622093705806108
0.031848573644296607199 21.00248477599278374 0.031848573644296607199 14.39995020211925514
0.040094978690191851456 24.54108440867362262 0.040094978690191851456 16.46081540849150926
0.050476587558435426217 28.57985895506532614 0.050476587558435426217 18.76141368663611075
0.063546258777947173257 33.17657203178615077 0.063546258777947173257 21.32808438801783169
0.080000000000012505552 38.39542063575263597 0.080000000000012505552 24.19076849955545327
0.100714032943542974863 44.30772043726147302 0.100714032943542974863 27.38071768233996650
0.126791455396883634421 50.99172859634340682 0.126791455396883634421 30.92537694414175320
0.159620985197506115583 58.53093824480944818 0.159620985197506115583 34.84149609043824114
0.200950914520774404082 67.01068676398266177 0.200950914520774404082 39.12921356870259615
0.252982212813464002465 76.51367419219856458 0.252982212813464002465 43.77056616368469832
0.318485736442809752589 87.11582012063220759 0.318485736442809752589 48.73135494417171998
0.400949786901833249431 98.88255978085295794 0.400949786901833249431 53.97296430333049955
0.504765875584169521062 111.87002199918893552 0.504765875584169521062 59.45928610442312134
0.635462587779443310865 126.12436232252511559 0.635462587779443310865 65.16541228801524710
0.800000000000011368684 141.68671789288754326 0.800000000000011368684 71.08926281526545665
1.007140329435344483500 158.59757724272310497 1.007140329435344483500 77.26604753829363403
1.267914553968907398485 176.90788764704609548 1.267914553968907398485 83.71192038196363683
1.596209851975117999245 196.65722924798933491 1.596209851975117999245 90.53751112271390866
2.009509145207687197399 217.93552846621781782 2.009509145207687197399 97.80288153382582550
2.529822128134725289783 240.79481307671846935 2.529822128134725289783 105.63472918500166031
3.184857364427983839050 265.36144909264874059 3.184857364427983839050 114.20539373943948647
4.009497869018204596614 291.73773858007473336 4.009497869018204596614 123.57905094661029466
5.009497869018190385759 319.07895971226440679 5.009497869018190385759 133.47423191108867968
6.009497869018190385759 342.82945340186455496 6.009497869018190385759 142.16791933772017842
7.009497869018204596614 363.92343682374439595 7.009497869018204596614 149.92154104039104823
8.009497869018190385759 382.94644686965301617 8.009497869018190385759 156.88038860805528429
9.009497869018204596614 400.29370816233034702 9.009497869018204596614 163.17265039433937091
10.009497869018190385759 416.24762661377366157 10.009497869018190385759 168.88091141856313016
11.009497869018190385759 431.01893274861038208 11.009497869018190385759 174.03452812821899442
12.009497869018204596614 444.77043174145103421 12.009497869018204596614 178.74704920880088821
13.009497869018190385759 457.63071212240981822 13.009497869018190385759 183.06718047590428000
14.009497869018204596614 469.70498621202176537 14.009497869018204596614 187.03069088018702359
15.009497869018190385759 481.07813241289551343 15.009497869018190385759 190.68003399613192528
16.009497869018190385759 491.82057623074268804 16.009497869018190385759 194.05213483936282159
17.009497869018204596614 501.99395884458658657 17.009497869018204596614 197.18139178382355681
18.009497869018190385759 511.65163852892720797 18.009497869018190385759 200.10332363854661253
19.009497869018204596614 520.83896968106648728 19.009497869018204596614 202.82705051066491819
20.009497869018190385759 529.59687965386217456 20.009497869018190385759 205.36611157905056757
21.009497869018190385759 537.95889984396706041 21.009497869018190385759 207.73306683911783921
22.009497869018204596614 545.95372345989221685 22.009497869018204596614 209.94853500479348440
23.009497869018190385759 553.60758275441401111 23.009497869018190385759 212.02011636848223475
24.009497869018204596614 560.94472639240939316 24.009497869018204596614 213.96981582433718927
25.009497869018204596614 567.98788978433765351 25.009497869018204596614 215.80788421330356641
26.009497869018190385759 574.75708510993956679 26.009497869018190385759 217.54509821827946325
27.009497869018204596614 581.27056701160267949 27.009497869018204596614 219.19322390095746300
28.009497869018190385759 587.54418980759430724 28.009497869018190385759 220.75615894499060232
29.009497869018190385759 593.59217415512523530 29.009497869018190385759 222.22735397320195716
30.009497869018190385759 599.42771669732724149 30.009497869018190385759 223.63644882771095013
31.009497869018218807469 605.06290607889241073 31.009497869018218807469 224.97334265576847656
32.009497869018190385759 610.50887708614027360 32.009497869018190385759 226.24345585003447923
33.009497869018190385759 615.77593481733742919 33.009497869018190385759 227.44491083365412010
34.009497869018218807469 620.87398769715628077 34.009497869018218807469 228.60267759874932381
35.009497869018190385759 625.81186321911604864 35.009497869018190385759 229.70615654583889409
36.009497869018190385759 630.59772163521063248 36.009497869018190385759 230.76972564629554086
37.009497869018190385759 635.23912213085475287 37.009497869018190385759 231.79242678296256486
38.009497869018218807469 639.74326388063082049 38.009497869018218807469 232.77879012167247197
39.009497869018190385759 644.11673343405732339 39.009497869018190385759 233.73570054678927477
40.009497869018190385759 648.36569870765470114 40.009497869018190385759 234.66016521014006457
41.009497869018218807469 652.49608289673597028 41.009497869018218807469 235.55140265395658616
42.009497869018190385759 656.51330905937493299 42.009497869018190385759 236.40618977760689745
43.009497869018190385759 660.42247409575577421 43.009497869018190385759 237.24232664948814886
44.009497869018218807469 664.22850745204516443 44.009497869018218807469 238.03128779394694448
46.009497869018190385759 671.54956036689713983 46.009497869018190385759 239.54642607172061730
48.009497869018218807469 678.50803189362568446 48.009497869018218807469 240.95172413381729370
50.009497869018190385759 685.12911170230449898 50.009497869018190385759 242.20334440468315051
52.009497869018190385759 691.43783652020977115 52.009497869018190385759 243.33890204027574100
54.009497869018218807469 697.45797762852737378 54.009497869018218807469 244.37451522873328713
56.009497869018190385759 703.20836487638962353 56.009497869018190385759 245.32108010975966295
58.009497869018218807469 708.70541012951753146 58.009497869018218807469 246.21610740224110714
60.009497869018190385759 713.96530626120272700 60.009497869018190385759 247.12036837518539301
62.009497869018190385759 719.00169254149773224 62.009497869018190385759 248.00356294204533469
64.009497869018218807469 723.82880027436328874 64.009497869018218807469 248.86553305203847231
66.009497869018190385759 728.46563964449467221 66.009497869018190385759 249.79284381092105605
68.009497869018190385759 732.92863504744548209 68.009497869018190385759 250.73923089467618297
70.009497869018190385759 737.22770643328738061 70.009497869018190385759 251.55349040033902952
72.009497869018190385759 741.37316019544164192 72.009497869018190385759 252.22188707287639886
74.009497869018218807469 745.37454178950360983 74.009497869018218807469 252.85371804901595283
76.009497869018190385759 749.23952489761995821 76.009497869018190385759 253.45077802196325933
78.009497869018190385759 752.97793795518998650 78.009497869018190385759 254.12460965582619110
80.009497869018218807469 756.59587873203417985 80.009497869018218807469 254.62444170407920296
82.009497869018190385759 760.09330906937975669 82.009497869018190385759 255.19276464014623684
84.009497869018218807469 763.47193057663798754 84.009497869018218807469 255.68809549260720360
86.009497869018190385759 766.73453351030877911 86.009497869018190385759 255.96794583299143255
88.009497869018190385759 769.88897790491353135 88.009497869018190385759 256.30632061291964874
91.009497869018218807469 774.42513878156682949 91.009497869018218807469 256.70468016668121436
94.009497869018218807469 778.74216374669435936 94.009497869018218807469 257.28041371642660806
97.009497869018218807469 782.86961342277129461 97.009497869018218807469 258.17660174703183884
99.504748934509137825444 786.17959828410243972 99.504748934509137825444 258.36167844299023955
nan nan nan nan

