Time Pressure difference Time.1 Pressure.1 difference.1
(hr) (psi) (hr) (psi)
0.000200000000020850166 0.39049317071639356 0.000200000000020850166 0.31444352975553852
0.000399999999999067768 0.74914886749473919 0.000399999999999067768 0.72042104664000028
0.000600000000019917934 1.08939794429308745 0.000600000000019917934 1.01212335940463216
0.000799999999998135536 1.41586920675255312 0.000799999999998135536 1.29180053171064513
0.001007140329434719206 1.74224139023400837 0.001007140329434719206 1.57015216337614660
0.001267914553977789183 2.13894348907987908 0.001267914553977789183 1.90500436097514014
0.001596209851982166583 2.61951685137491408 0.001596209851982166583 2.30327314147896134
0.002009509145224797066 3.19962252110736234 0.002009509145224797066 2.77460632124764572
0.002529822128153114136 3.89724383253371709 0.002529822128153114136 3.32951518422155601
0.003184857364431081805 4.73288098719112060 0.003184857364431081805 3.97933279775260162
0.004009497869034817086 5.72973424175753454 0.004009497869034817086 4.73616283694964402
0.005047658755856332391 6.91387461804159908 0.005047658755856332391 5.61283125904669511
0.006354625877790454069 8.31440441158641264 0.006354625877790454069 6.62285755980918101
0.008000000000009777068 9.96361406458546206 0.008000000000009777068 7.78046561019392957
0.010071403294361402914 11.89714681808042229 0.010071403294361402914 9.10065511492631174
0.012679145539692626699 14.15418730072656395 0.012679145539692626699 10.59935138382889797
0.015962098519750611558 16.77769347524866461 0.015962098519750611558 12.29363942727980152
0.020095091452091651263 19.81469067111015647 0.020095091452091651263 14.20206842076309250
0.025298221281360611101 23.31664042173888163 0.025298221281360611101 16.34500580833991989
0.031848573644296607199 27.33989290041953524 0.031848573644296607199 18.74507233293329378
0.040094978690191851456 31.94624952949533991 0.040094978690191851456 21.42779462152759962
0.050476587558435426217 37.20370666968603501 0.050476587558435426217 24.42258839008491478
0.063546258777947173257 43.18745785683881877 0.063546258777947173257 27.76374077442720179
0.080000000000012505552 49.98107125152836261 0.080000000000012505552 31.49022732361083499
0.100714032943542974863 57.67738171633538968 0.100714032943542974863 35.64272975107596864
0.126791455396883634421 66.37826016780863370 0.126791455396883634421 40.25697447591520017
0.159620985197506115583 76.19239342591154696 0.159620985197506115583 45.35476548431112320
0.200950914520774404082 87.23086905436147731 0.200950914520774404082 50.93628299965774886
0.252982212813464002465 99.60134146715127201 0.252982212813464002465 56.97814348489628600
0.318485736442809752589 113.40263866077309274 0.318485736442809752589 63.43582863056766996
0.400949786901833249431 128.71994066235723153 0.400949786901833249431 70.25907073899880118
0.504765875584169521062 145.62631292662499050 0.504765875584169521062 77.40086620077025259
0.635462587779443310865 164.18183823530699783 0.635462587779443310865 84.82879105821434962
0.800000000000011368684 184.44006668350945688 0.800000000000011368684 92.54013762984679659
1.007140329435344483500 206.45370404164953015 1.007140329435344483500 100.58074018700568786
1.267914553968907398485 230.28907070263852574 1.267914553968907398485 108.97162703088532965
1.596209851975117999245 255.99768994376665887 1.596209851975117999245 117.85680999016624071
2.009509145207687197399 283.69662309068752393 2.009509145207687197399 127.31447421610245385
2.529822128134725289783 313.45359707243653702 2.529822128134725289783 137.50954771713432478
3.184857364427983839050 345.43310829516866534 3.184857364427983839050 148.66637289772421582
4.009497869018204596614 379.76832802693024860 4.009497869018204596614 160.86849025967723037
5.009497869018190385759 415.35964331621460133 5.009497869018190385759 173.74949889672890890
6.009497869018190385759 446.27674482736483696 6.009497869018190385759 185.06646856431405013
7.009497869018204596614 473.73574569075952923 7.009497869018204596614 195.15971177826466487
8.009497869018190385759 498.49886599989741853 8.009497869018190385759 204.21836123043607358
9.009497869018204596614 521.08058768263447291 9.009497869018204596614 212.40928555073600137
10.009497869018190385759 541.84853140246843850 10.009497869018190385759 219.83998942765575180
11.009497869018190385759 561.07701470018616874 11.009497869018190385759 226.54868748860428695
12.009497869018204596614 578.97796850134022861 12.009497869018204596614 232.68319123938664461
13.009497869018190385759 595.71878236383520289 13.009497869018190385759 238.30690326289783343
14.009497869018204596614 611.43641596677150574 14.009497869018204596614 243.46638563455769599
15.009497869018190385759 626.24135940032783765 15.009497869018190385759 248.21690210967796020
16.009497869018190385759 640.22528875922125735 16.009497869018190385759 252.60651966620298481
17.009497869018204596614 653.46844517923739204 17.009497869018204596614 256.68001623729651328
18.009497869018190385759 666.04028756134675859 18.009497869018190385759 260.48362827760928440
19.009497869018204596614 677.99985579430608595 19.009497869018204596614 264.02922784680072255
20.009497869018190385759 689.40042688108735547 20.009497869018190385759 267.33443951188127130
21.009497869018190385759 700.28565017094967970 21.009497869018190385759 270.41561319206863345
22.009497869018204596614 710.69287692285217872 22.009497869018204596614 273.29958920823492008
23.009497869018190385759 720.65625485736688915 23.009497869018190385759 275.99626120784972727
24.009497869018204596614 730.20734956817386774 24.009497869018204596614 278.53427396584538656
25.009497869018204596614 739.37575677661914142 25.009497869018204596614 280.92697146968697552
26.009497869018190385759 748.18752725034539708 26.009497869018190385759 283.18838221930644750
27.009497869018204596614 756.66642389041544448 27.009497869018204596614 285.33382263416410751
28.009497869018190385759 764.83308498644453266 28.009497869018190385759 287.36836650694539230
29.009497869018190385759 772.70602221689614453 29.009497869018190385759 289.28348821449236539
30.009497869018190385759 780.30241425437611724 30.009497869018190385759 291.11777129193296787
31.009497869018218807469 787.63799743935624065 31.009497869018218807469 292.85806699828219735
32.009497869018190385759 794.72726643133478319 32.009497869018190385759 294.51143130602991960
33.009497869018190385759 801.58363584700782667 33.009497869018190385759 296.07542008769939912
34.009497869018218807469 808.22000393495159187 34.009497869018218807469 297.58253792156392592
35.009497869018190385759 814.64786184633055655 35.009497869018190385759 299.01898682525660433
36.009497869018190385759 820.87783215356591882 36.009497869018190385759 300.40348326026503400
37.009497869018190385759 826.91975499328214028 37.009497869018190385759 301.73478000176174874
38.009497869018218807469 832.78300185957414214 38.009497869018218807469 303.01877417334918619
39.009497869018190385759 838.47614676453349603 39.009497869018190385759 304.26442814320199659
40.009497869018190385759 844.00721876657291887 40.009497869018190385759 305.46784598427211677
41.009497869018218807469 849.38392835934212144 41.009497869018218807469 306.62801043732008566
42.009497869018190385759 854.61333498502176553 42.009497869018190385759 307.74072584516409279
43.009497869018190385759 859.70207351118324368 43.009497869018190385759 308.82916336915911870
44.009497869018218807469 864.65656082286182027 44.009497869018218807469 309.85619009586110906
46.009497869018190385759 874.18670950503826589 46.009497869018190385759 311.82851473675350462
48.009497869018218807469 883.24486944756256435 48.009497869018218807469 313.65785535624098657
50.009497869018190385759 891.86383119352353788 50.009497869018190385759 315.28714658165739593
52.009497869018190385759 900.07618619339018551 52.009497869018190385759 316.76535377811455874
54.009497869018218807469 907.91287860870636450 54.009497869018218807469 318.11345872668027823
56.009497869018190385759 915.39842011340499539 56.009497869018190385759 319.34564542966228373
58.009497869018218807469 922.55417478206516080 58.009497869018218807469 320.51074330167045900
60.009497869018190385759 929.40122161682745627 60.009497869018190385759 321.68786107692466203
62.009497869018190385759 935.95731547795969618 62.009497869018190385759 322.83755574999418059
64.009497869018218807469 942.24098190328572855 64.009497869018218807469 323.95962157896275357
66.009497869018190385759 948.27696731777109562 66.009497869018190385759 325.16674431247082566
68.009497869018190385759 954.08665210664969436 68.009497869018190385759 326.39869956863083189
70.009497869018190385759 959.68294952163603284 70.009497869018190385759 327.45865832662582307
72.009497869018190385759 965.07927586538789910 72.009497869018190385759 328.32874077815830560
74.009497869018218807469 970.28805689306943805 74.009497869018218807469 329.15122399398086372
76.009497869018190385759 975.31928178692658093 76.009497869018190385759 329.92844420814168416
78.009497869018190385759 980.18574466984830451 78.009497869018190385759 330.80560159686098132
80.009497869018218807469 984.89538328708692916 80.009497869018218807469 331.45625578436249725
82.009497869018190385759 989.44814796562639003 82.009497869018190385759 332.19606768617541093
84.009497869018218807469 993.84625376809231057 84.009497869018218807469 332.84086246169812284
86.009497869018190385759 998.09333289870630779 86.009497869018190385759 333.20515642100133391
88.009497869018190385759 1002.19961712310453095 88.009497869018190385759 333.64563431407492544
91.009497869018218807469 1008.10454474807465886 91.009497869018218807469 334.16419712470724335
94.009497869018218807469 1013.72421315654469254 94.009497869018218807469 334.91365576053539144
97.009497869018218807469 1019.09710275981706218 97.009497869018218807469 336.08026461833077292
99.504748934509137825444 1023.40586110798369646 99.504748934509137825444 336.32118739960327503
nan nan nan nan

