Time Pressure difference Time.1 Pressure.1 difference.1
(hr) (psi) (hr) (psi)
0.000200000000020850166 0.21993293523107221 0.000200000000020850166 0.17710037882783203
0.000399999999999067768 0.42193441962347378 0.000399999999999067768 0.40575438259034496
0.000600000000019917934 0.61356895713058957 0.000600000000019917934 0.57004648977962047
0.000799999999998135536 0.79744357621695527 0.000799999999998135536 0.72756581671059328
0.001007140329434719206 0.98126239220076339 0.001007140329434719206 0.88433857477507105
0.001267914553977789183 1.20469230994154120 0.001267914553977789183 1.07293349066415944
0.001596209851982166583 1.47536006571690548 0.001596209851982166583 1.29724579232723114
0.002009509145224797066 1.80208624752023838 0.002009509145224797066 1.56270930736936386
0.002529822128153114136 2.19499939993278304 0.002529822128153114136 1.87524418421673822
0.003184857364431081805 2.66564561347545892 0.003184857364431081805 2.24123341482617811
0.004009497869034817086 3.22709169938068019 0.004009497869034817086 2.66749401161531630
0.005047658755856332391 3.89402133659814176 0.005047658755856332391 3.16124978957802361
0.006354625877790454069 4.68282547319234599 0.006354625877790454069 3.73011517736379172
0.008000000000009777068 5.61169068005388105 0.008000000000009777068 4.38210132068393765
0.010071403294361402914 6.70069188604529575 0.010071403294361402914 5.12565632909642765
0.012679145539692626699 7.97189859466208706 0.012679145539692626699 5.96974962997259784
0.015962098519750611558 9.44950552054235082 0.015962098519750611558 6.92400381536448695
0.020095091452091651263 11.15999819407353577 0.020095091452091651263 7.99886612203898384
0.025298221281360611101 13.13236069730120903 0.025298221281360611101 9.20580786906501203
0.031848573644296607199 15.39833048414433492 0.031848573644296607199 10.55756947487047626
0.040094978690191851456 17.99271525224450130 0.040094978690191851456 12.06852800522819003
0.050476587558435426217 20.95381180246684849 0.050476587558435426217 13.75525093234667651
0.063546258777947173257 24.32397051707014057 0.063546258777947173257 15.63704940168888236
0.080000000000012505552 28.15025852097574344 0.080000000000012505552 17.73587515927507141
0.100714032943542974863 32.48496211609694484 0.100714032943542974863 20.07464089428416187
0.126791455396883634421 37.38545687612210600 0.126791455396883634421 22.67346838298671940
0.159620985197506115583 42.91295721689271403 0.159620985197506115583 25.54463803139362454
0.200950914520774404082 49.13002969728405134 0.200950914520774404082 28.68825134463482485
0.252982212813464002465 56.09730726310817772 0.252982212813464002465 32.09113828459675943
0.318485736442809752589 63.87045165951587933 0.318485736442809752589 35.72822532066455636
0.400949786901833249431 72.49743784431612426 0.400949786901833249431 39.57120076104530426
0.504765875584169521062 82.01941762534050895 0.504765875584169521062 43.59359130847979458
0.635462587779443310865 92.47023073023038364 0.635462587779443310865 47.77713519370693263
0.800000000000011368684 103.88003755737888412 0.800000000000011368684 52.12030740071831048
1.007140329435344483500 116.27852296598652515 1.007140329435344483500 56.64892263406066775
1.267914553968907398485 129.70303982102629448 1.267914553968907398485 61.37482441969403624
1.596209851975117999245 144.18260697982262286 1.596209851975117999245 66.37912286802466610
2.009509145207687197399 159.78315553383552583 2.009509145207687197399 71.70585329412665487
2.529822128134725289783 176.54283053505045586 2.529822128134725289783 77.44790618551243710
3.184857364427983839050 194.55427938463520832 3.184857364427983839050 83.73163531021249639
4.009497869018204596614 213.89250658988024156 4.009497869018204596614 90.60409221522050416
5.009497869018190385759 233.93818991373004224 5.009497869018190385759 97.85891317172088577
6.009497869018190385759 251.35127007518246955 6.009497869018190385759 104.23283861668262773
7.009497869018204596614 266.81668435456572297 7.009497869018204596614 109.91753881764331879
8.009497869018190385759 280.76372912637907575 8.009497869018190385759 115.01953678495824818
9.009497869018204596614 293.48217007412745261 9.009497869018204596614 119.63281599983982062
10.009497869018190385759 305.17905791633279478 10.009497869018190385759 123.81792507994404673
11.009497869018190385759 316.00889333688638771 11.009497869018190385759 127.59638720622538699
12.009497869018204596614 326.09103973063986359 12.009497869018204596614 131.05145253712581166
13.009497869018190385759 335.51977397503361544 13.009497869018190385759 134.21883057335625722
14.009497869018204596614 344.37223428013561488 14.009497869018204596614 137.12474593210720286
15.009497869018190385759 352.71065069673636572 15.009497869018190385759 139.80032417671517919
16.009497869018190385759 360.58665688737750088 16.009497869018190385759 142.27263751314879414
17.009497869018204596614 368.04544613543254172 17.009497869018204596614 144.56690569686816161
18.009497869018190385759 375.12613897133320506 18.009497869018190385759 146.70916994945812917
19.009497869018204596614 381.86198774621834673 19.009497869018204596614 148.70611683325554964
20.009497869018190385759 388.28299904796870123 20.009497869018190385759 150.56767282853084566
21.009497869018190385759 394.41375699283372569 21.009497869018190385759 152.30304651047541142
22.009497869018204596614 400.27529849677881657 22.009497869018204596614 153.92735484141965685
23.009497869018190385759 405.88685618403422950 23.009497869018190385759 155.44617010557053050
24.009497869018204596614 411.26620837747714177 24.009497869018204596614 156.87562556697042737
25.009497869018204596614 416.43002393165909325 25.009497869018204596614 158.22323680476620211
26.009497869018190385759 421.39297511801061091 26.009497869018190385759 159.49690492811510012
27.009497869018204596614 426.16844563942936475 27.009497869018204596614 160.70525642613839068
28.009497869018190385759 430.76805936018143939 28.009497869018190385759 161.85114895218762854
29.009497869018190385759 435.20224239802200827 29.009497869018190385759 162.92978071850717470
30.009497869018190385759 439.48067009729231813 30.009497869018190385759 163.96288268166338753
31.009497869018218807469 443.61220545435003260 31.009497869018218807469 164.94304922891754472
32.009497869018190385759 447.60501212799312043 32.009497869018190385759 165.87425441374097090
33.009497869018190385759 451.46664547705034920 33.009497869018190385759 166.75512165858930302
34.009497869018218807469 455.20437003232905226 34.009497869018218807469 167.60395813973141799
35.009497869018190385759 458.82465782149648703 35.009497869018190385759 168.41299257974222314
36.009497869018190385759 462.33349167269807367 36.009497869018190385759 169.19276643394238135
37.009497869018190385759 465.73641373184858594 37.009497869018190385759 169.94257724237155571
38.009497869018218807469 469.03870219677168052 38.009497869018218807469 170.66574637349555132
39.009497869018190385759 472.24518610876020830 39.009497869018190385759 171.36732159789536922
40.009497869018190385759 475.36038758117331327 40.009497869018190385759 172.04510865780841300
41.009497869018218807469 478.38864930583639534 41.009497869018218807469 172.69853461412279216
42.009497869018190385759 481.33394729041452820 42.009497869018190385759 173.32523639555216732
43.009497869018190385759 484.20001841434458356 43.009497869018190385759 173.93826442630802376
44.009497869018218807469 486.99047678528995675 44.009497869018218807469 174.51670476663443310
46.009497869018190385759 492.35803179019387699 46.009497869018190385759 175.62755427702208522
48.009497869018218807469 497.45975405667320501 48.009497869018218807469 176.65787255696332636
50.009497869018190385759 502.31411182163975582 50.009497869018190385759 177.57551933909439867
52.009497869018190385759 506.93946118938072232 52.009497869018190385759 178.40807281755877511
54.009497869018218807469 511.35323048076566010 54.009497869018218807469 179.16735031732565631
56.009497869018190385759 515.56922512134303815 56.009497869018190385759 179.86134052935000227
58.009497869018218807469 519.59947775081832333 58.009497869018218807469 180.51754507795232030
60.009497869018190385759 523.45586045085678961 60.009497869018190385759 181.18051945711849271
62.009497869018190385759 527.14837308528763060 62.009497869018190385759 181.82804864080134166
64.009497869018218807469 530.68744957771264126 64.009497869018218807469 182.46001675136983522
66.009497869018190385759 534.08702756977902482 66.009497869018190385759 183.13989047483988770
68.009497869018190385759 537.35914888765330488 68.009497869018190385759 183.83375033175761359
70.009497869018190385759 540.51108651218578416 70.009497869018190385759 184.43073859775478240
72.009497869018190385759 543.55039675177022218 72.009497869018190385759 184.92078503597420536
74.009497869018218807469 546.48407802023461954 74.009497869018218807469 185.38402270925359971
76.009497869018190385759 549.31775640872888289 76.009497869018190385759 185.82176742757405918
78.009497869018190385759 552.05863780255822348 78.009497869018190385759 186.31579860053093967
80.009497869018218807469 554.71119288583054185 80.009497869018218807469 186.68225900498578085
82.009497869018190385759 557.27539368178963741 82.009497869018190385759 187.09893467382295285
84.009497869018218807469 559.75248775444276816 84.009497869018218807469 187.46209494969207299
86.009497869018190385759 562.14452082800687549 86.009497869018190385759 187.66727200723065039
88.009497869018190385759 564.45725562105883455 88.009497869018190385759 187.91535725735255369
91.009497869018218807469 567.78301945581199561 91.009497869018218807469 188.20742136908796738
94.009497869018218807469 570.94812005368601149 94.009497869018218807469 188.62953025593373013
97.009497869018218807469 573.97423029001186023 97.009497869018218807469 189.28658581951961537
99.504748934509137825444 576.40100223323213413 99.504748934509137825444 189.42227796069610690
nan nan nan nan

