Time Pressure difference Time.1 Pressure.1 difference.1
(hr) (psi) (hr) (psi)
0.000200000000020850166 0.37179139050966969 0.000200000000020850166 0.29938397373276365
0.000399999999999067768 0.71327009031587241 0.000399999999999067768 0.68591812295034515
0.000600000000019917934 1.03722371324456808 0.000600000000019917934 0.96365001843697740
0.000799999999998135536 1.34805937884294824 0.000799999999998135536 1.22993269015362183
0.001007140329434719206 1.65880071062509993 0.001007140329434719206 1.49495330497690593
0.001267914553977789183 2.03650366680593864 0.001267914553977789183 1.81376851993226951
0.001596209851982166583 2.49406106347381629 0.001596209851982166583 2.19296312512460512
0.002009509145224797066 3.04638389461754633 0.002009509145224797066 2.64172287674344819
0.002529822128153114136 3.71059422369589509 0.002529822128153114136 3.17005564474734314
0.003184857364431081805 4.50621044182756147 0.003184857364431081805 3.78875172506330049
0.004009497869034817086 5.45532168228638881 0.004009497869034817086 4.50933511487351169
0.005047658755856332391 6.58275035472543113 0.005047658755856332391 5.34401750142951659
0.006354625877790454069 7.91620496658706241 0.006354625877790454069 6.30567089506736167
0.008000000000009777068 9.48642948294822830 0.008000000000009777068 7.40783794687046537
0.010071403294361402914 11.32736009307657099 0.010071403294361402914 8.66479998490110503
0.012679145539692626699 13.47630476716686232 0.012679145539692626699 10.09171961257272443
0.015962098519750611558 15.97416409425016681 0.015962098519750611558 11.70486359263996512
0.020095091452091651263 18.86571123283859563 0.020095091452091651263 13.52189273011351922
0.025298221281360611101 22.19994308353299672 0.025298221281360611101 15.56219901675275885
0.031848573644296607199 26.03051105652971131 0.031848573644296607199 17.84731982656675697
0.040094978690191851456 30.41625673593713586 0.040094978690191851456 20.40155924693336686
0.050476587558435426217 35.42191995178919939 0.050476587558435426217 23.25292419515747611
0.063546258777947173257 41.11909301695190777 0.063546258777947173257 26.43405970285501994
0.080000000000012505552 47.58734178545899596 0.080000000000012505552 29.98207467401261539
0.100714032943542974863 54.91505500578292498 0.100714032943542974863 33.93570246414704172
0.126791455396883634421 63.19922471915879214 0.126791455396883634421 38.32895845695374248
0.159620985197506115583 72.54333243808054021 0.159620985197506115583 43.18260238640350224
0.200950914520774404082 83.05314544064684412 0.200950914520774404082 48.49680584450172915
0.252982212813464002465 94.83116227811144938 0.252982212813464002465 54.24930519538975915
0.318485736442809752589 107.97147780537208916 0.318485736442809752589 60.39771423255198357
0.400949786901833249431 122.55519254634394599 0.400949786901833249431 66.89417271510039598
0.504765875584169521062 138.65187265236133385 0.504765875584169521062 73.69392816433489202
0.635462587779443310865 156.31872337729421929 0.635462587779443310865 80.76610949412362572
0.800000000000011368684 175.60673015652145068 0.800000000000011368684 88.10813870121428693
1.007140329435344483500 196.56607453773912653 1.007140329435344483500 95.76365492900731624
1.267914553968907398485 219.25990064983017191 1.267914553968907398485 103.75267937614944458
1.596209851975117999245 243.73726418017633932 1.596209851975117999245 112.21232675308930027
2.009509145207687197399 270.10962006910290256 2.009509145207687197399 121.21703771149982742
2.529822128134725289783 298.44145161877577266 2.529822128134725289783 130.92384140884243493
3.184857364427983839050 328.88937705497858133 3.184857364427983839050 141.54633588154968038
4.009497869018204596614 361.58018971146424292 4.009497869018204596614 153.16406064953940813
5.009497869018190385759 395.46694009225797117 5.009497869018190385759 165.42816274267102017
6.009497869018190385759 424.90333750804660440 6.009497869018190385759 176.20313194724920436
7.009497869018204596614 451.04725212319442562 7.009497869018204596614 185.81298228696846309
8.009497869018190385759 474.62439923745029091 8.009497869018190385759 194.43778837457227837
9.009497869018204596614 496.12462083959638903 9.009497869018204596614 202.23642704734828612
10.009497869018190385759 515.89793123951494636 10.009497869018190385759 209.31125430181018032
11.009497869018190385759 534.20551016473655181 11.009497869018190385759 215.69865456290486350
12.009497869018204596614 551.24913859227217472 12.009497869018204596614 221.53936024133173532
13.009497869018190385759 567.18818933874729282 13.009497869018190385759 226.89373739781652262
14.009497869018204596614 582.15306271165786711 14.009497869018204596614 231.80611812332409727
15.009497869018190385759 596.24895713019714094 15.009497869018190385759 236.32911944158993833
16.009497869018190385759 609.56315807151906938 16.009497869018190385759 240.50850627222772005
17.009497869018204596614 622.17206370513599722 17.009497869018204596614 244.38691201137234543
18.009497869018190385759 634.14180635630134475 18.009497869018190385759 248.00835872408396199
19.009497869018204596614 645.52859833289301150 19.009497869018204596614 251.38414988478919554
20.009497869018190385759 656.38316505728039374 20.009497869018190385759 254.53106597204023842
21.009497869018190385759 666.74706539264752791 21.009497869018190385759 257.46467386294654034
22.009497869018204596614 676.65586174455461332 22.009497869018204596614 260.21052842239993197
23.009497869018190385759 686.14206640634358791 23.009497869018190385759 262.77804946417876408
24.009497869018204596614 695.23573320954471910 24.009497869018204596614 265.19450988702141103
25.009497869018204596614 703.96504045589983889 25.009497869018204596614 267.47261459853336873
26.009497869018190385759 712.35479127092276030 26.009497869018190385759 269.62572023562319146
27.009497869018204596614 720.42761048570207549 27.009497869018204596614 271.66840967275771845
28.009497869018190385759 728.20314796602087881 28.009497869018190385759 273.60551370488860812
29.009497869018190385759 735.69902881570385489 29.009497869018190385759 275.42891502414306615
30.009497869018190385759 742.93160897399411624 30.009497869018190385759 277.17534929519285924
31.009497869018218807469 749.91587112521074232 31.009497869018218807469 278.83229750602731656
32.009497869018190385759 756.66561574017896419 32.009497869018190385759 280.40647769941926981
33.009497869018190385759 763.19361497310899267 33.009497869018190385759 281.89556280380571707
34.009497869018218807469 769.51214934036579507 34.009497869018218807469 283.33050066478409690
35.009497869018190385759 775.63215965062511259 35.009497869018190385759 284.69815412289761980
36.009497869018190385759 781.56375973241824795 36.009497869018190385759 286.01634325737876452
37.009497869018190385759 787.31631845145830084 37.009497869018190385759 287.28388057639000408
38.009497869018218807469 792.89875847549501486 38.009497869018218807469 288.50638077424241601
39.009497869018190385759 798.31924318385654260 39.009497869018190385759 289.69237698691836158
40.009497869018190385759 803.58541710150723247 40.009497869018190385759 290.83815987391420776
41.009497869018218807469 808.70462144558052842 41.009497869018218807469 291.94276089530285390
42.009497869018190385759 813.68357756236741807 42.009497869018190385759 293.00218533533819709
43.009497869018190385759 818.52860255758253061 43.009497869018190385759 294.03849462542547144
44.009497869018218807469 823.24580599418061411 44.009497869018218807469 295.01633424835819142
46.009497869018190385759 832.31952993104209781 46.009497869018190385759 296.89419889687064824
48.009497869018218807469 840.94386995294746612 48.009497869018218807469 298.63592741772367845
50.009497869018190385759 849.15004617467661774 50.009497869018190385759 300.18718745418340177
52.009497869018190385759 856.96908915347694347 52.009497869018190385759 301.59459928682554164
54.009497869018218807469 864.43046105081828046 54.009497869018218807469 302.87813982214572661
56.009497869018190385759 871.55749960988941893 56.009497869018190385759 304.05131375199641752
58.009497869018218807469 878.37054572162139721 58.009497869018218807469 305.16061191749082582
60.009497869018190385759 884.88966885740092039 60.009497869018190385759 306.28135432036697239
62.009497869018190385759 891.13177354893866777 62.009497869018190385759 307.37598698802128183
64.009497869018218807469 897.11449809565715441 64.009497869018218807469 308.44431403207755693
66.009497869018190385759 902.86140374891226656 66.009497869018190385759 309.59362437413409452
68.009497869018190385759 908.39284692912815444 68.009497869018190385759 310.76657794178078120
70.009497869018190385759 913.72112243726655834 70.009497869018190385759 311.77577239144261512
72.009497869018190385759 918.85900403275434201 72.009497869018190385759 312.60418422748023204
74.009497869018218807469 923.81832236753939469 74.009497869018218807469 313.38727648469063070
76.009497869018190385759 928.60858821475585501 76.009497869018190385759 314.12727350851804431
78.009497869018190385759 933.24198295194355524 78.009497869018190385759 314.96242144375463567
80.009497869018218807469 937.72606416414225805 80.009497869018218807469 315.58191403223781890
82.009497869018190385759 942.06078455731108079 82.009497869018190385759 316.28629432955779066
84.009497869018218807469 946.24825310870096473 84.009497869018218807469 316.90020812924137772
86.009497869018190385759 950.29192806639275659 86.009497869018190385759 317.24705505984223919
88.009497869018190385759 954.20155116893283775 88.009497869018190385759 317.66643726838168504
91.009497869018218807469 959.82367574672991850 91.009497869018218807469 318.16016469536299383
94.009497869018218807469 965.17420294789792479 94.009497869018218807469 318.87372971836418856
97.009497869018218807469 970.28977025216295260 97.009497869018218807469 319.98446650442605232
99.504748934509137825444 974.39217044189251737 99.504748934509137825444 320.21385083831961538
nan nan nan nan

