Time Pressure difference Time.1 Pressure.1 difference.1
(hr) (psi) (hr) (psi)
0.000200000000020850166 0.75854420518471855 0.000200000000020850166 0.61081559228374727
0.000399999999999067768 1.45524320237483828 0.000399999999999067768 1.39943858485241424
0.000600000000019917934 2.11618681132795183 0.000600000000019917934 1.96607870964807874
0.000799999999998135536 2.75036662001358012 0.000799999999998135536 2.50935965355286195
0.001007140329434719206 3.38435396493732643 0.001007140329434719206 3.05006569667320449
0.001267914553977789183 4.15495919143102999 0.001267914553977789183 3.70052571269883579
0.001596209851982166583 5.08848675726851063 0.001596209851982166583 4.47417426333269574
0.002009509145224797066 6.21535869042694511 0.002009509145224797066 5.38975250909025494
0.002529822128153114136 7.57050813446204707 0.002529822128153114136 6.46767892107405640
0.003184857364431081805 9.19375731994596990 0.003184857364431081805 7.72996830827804260
0.004009497869034817086 11.13017341214969491 0.004009497869034817086 9.20013240740792959
0.005047658755856332391 13.43040012010379591 0.005047658755856332391 10.90308600895277635
0.006354625877790454069 16.15096948917360464 0.006354625877790454069 12.86509112192817916
0.008000000000009777068 19.35460663120624503 0.008000000000009777068 15.11377802439970353
0.010071403294361402914 23.11054956615622658 0.010071403294361402914 17.67828407382237188
0.012679145539692626699 27.49491556118148239 0.012679145539692626699 20.58954464215038982
0.015962098519750611558 32.59115169329913186 0.015962098519750611558 23.88074785299180292
0.020095091452091651263 38.49060601629444278 0.020095091452091651263 27.58792601274669565
0.025298221281360611101 45.29324403763069995 0.025298221281360611101 31.75064346677524085
0.031848573644296607199 53.10852758817127750 0.031848573644296607199 36.41284165822674623
0.040094978690191851456 62.05650770672082217 0.040094978690191851456 41.62410679354211851
0.050476587558435426217 72.26926927789585875 0.050476587558435426217 47.44157974625689889
0.063546258777947173257 83.89287790581335003 0.063546258777947173257 53.93186426296778535
0.080000000000012505552 97.08966714377349660 0.080000000000012505552 61.17067146770380504
0.100714032943542974863 112.03997138000781320 0.100714032943542974863 69.23702675783722782
0.126791455396883634421 128.94167779723744616 0.126791455396883634421 78.20032972907665680
0.159620985197506115583 148.00591366642586877 0.159620985197506115583 88.10293525113310409
0.200950914520774404082 169.44846977226538343 0.200950914520774404082 98.94519341312827976
0.252982212813464002465 193.47846790745475687 0.252982212813464002465 110.68168102238473693
0.318485736442809752589 220.28788429506496982 0.318485736442809752589 123.22591998351651910
0.400949786901833249431 250.04218358549846357 0.400949786901833249431 136.48026384931949906
0.504765875584169521062 282.88329752413363849 0.504765875584169521062 150.35340675781807818
0.635462587779443310865 318.92793864099866141 0.635462587779443310865 164.78236423951983625
0.800000000000011368684 358.28012953463331769 0.800000000000011368684 179.76187654533458726
1.007140329435344483500 401.04225267860658732 1.007140329435344483500 195.38097806441331272
1.267914553968907398485 447.34313734190703826 1.267914553968907398485 211.68051687608760858
1.596209851975117999245 497.28286897122495702 1.596209851975117999245 228.94024009584012447
2.009509145207687197399 551.08884255547354769 2.009509145207687197399 247.31202462668173325
2.529822128134725289783 608.89261960048008859 2.529822128134725289783 267.11624786431838174
3.184857364427983839050 671.01373910210929807 3.184857364427983839050 288.78870137603900048
4.009497869018204596614 737.71089007530122217 4.009497869018204596614 312.49166498718903995
5.009497869018190385759 806.84804276368129194 5.009497869018190385759 337.51339440858839680
6.009497869018190385759 866.90540087154772664 6.009497869018190385759 359.49693318815030807
7.009497869018204596614 920.24529910044088865 7.009497869018204596614 379.10334816697388760
8.009497869018190385759 968.34837188485835213 8.009497869018190385759 396.70003503383554744
9.009497869018204596614 1012.21401515362322243 9.009497869018204596614 412.61114089740669897
10.009497869018190385759 1052.55634260939268643 10.009497869018190385759 427.04549670429679509
11.009497869018190385759 1089.90822395783266074 11.009497869018190385759 440.07733546636927713
12.009497869018204596614 1124.68134111179892898 12.009497869018204596614 451.99378528110742081
13.009497869018190385759 1157.20085309756495917 13.009497869018190385759 462.91800748769810525
14.009497869018204596614 1187.73280802740646322 14.009497869018204596614 472.94045025563508489
15.009497869018190385759 1216.49183607649888472 15.009497869018190385759 482.16846501765030553
16.009497869018190385759 1243.65602069319993461 16.009497869018190385759 490.69542325963567464
17.009497869018204596614 1269.38123258955306483 17.009497869018204596614 498.60830740348404788
18.009497869018190385759 1293.80239767663897510 18.009497869018190385759 505.99693309098819327
19.009497869018204596614 1317.03420263491625519 19.009497869018204596614 512.88436213918760131
20.009497869018190385759 1339.18013957360631139 20.009497869018190385759 519.30483077595329178
21.009497869018190385759 1360.32499860793677726 21.009497869018190385759 525.29009918919075517
22.009497869018204596614 1380.54133563174741539 22.009497869018204596614 530.89230547346778621
23.009497869018190385759 1399.89548357350577135 23.009497869018190385759 536.13066832329423050
24.009497869018204596614 1418.44875950599293901 24.009497869018204596614 541.06083103710193427
25.009497869018204596614 1436.25865396837502885 25.009497869018204596614 545.70871469398957743
26.009497869018190385759 1453.37577132538353908 26.009497869018190385759 550.10157005819303322
27.009497869018204596614 1469.84627169517489165 27.009497869018204596614 554.26914971464054815
28.009497869018190385759 1485.71024554838072618 28.009497869018190385759 558.22130965142264358
29.009497869018190385759 1501.00365235236154149 29.009497869018190385759 561.94148860056566264
30.009497869018190385759 1515.75986217229387876 30.009497869018190385759 565.50463618777780539
31.009497869018218807469 1530.00944330173797425 31.009497869018218807469 568.88521060585856048
32.009497869018190385759 1543.78055203328267453 32.009497869018190385759 572.09691828412701398
33.009497869018190385759 1557.09924664533696159 33.009497869018190385759 575.13501143472637978
34.009497869018218807469 1569.99058235640018211 34.009497869018218807469 578.06263113499210249
35.009497869018190385759 1582.47688105781458034 35.009497869018190385759 580.85297440768238175
36.009497869018190385759 1594.57877740175467807 36.009497869018190385759 583.54239851706654463
37.009497869018190385759 1606.31538613637576418 37.009497869018190385759 586.12848069307733567
38.009497869018218807469 1617.70491165825342250 38.009497869018218807469 588.62267626777031637
39.009497869018190385759 1628.76400923225469342 39.009497869018190385759 591.04239489886367664
40.009497869018190385759 1639.50827553506701406 40.009497869018190385759 593.38006863611474273
41.009497869018218807469 1649.95268842217024030 41.009497869018218807469 595.63372142421951594
42.009497869018190385759 1660.11096106285822316 42.009497869018190385759 597.79520307853715622
43.009497869018190385759 1669.99598187804576810 43.009497869018190385759 599.90952424583781522
44.009497869018218807469 1679.62021585130628409 44.009497869018218807469 601.90455317471867147
46.009497869018190385759 1698.13280352128117556 46.009497869018190385759 605.73585046564755885
48.009497869018218807469 1715.72853950158719272 48.009497869018218807469 609.28939718626122612
50.009497869018190385759 1732.47112036443081706 50.009497869018190385759 612.45434221034599886
52.009497869018190385759 1748.42385593888434414 52.009497869018190385759 615.32580216668225148
54.009497869018218807469 1763.64685614794711910 54.009497869018218807469 617.94453476791909452
56.009497869018190385759 1778.18773562259138998 56.009497869018190385759 620.33809284612550528
58.009497869018218807469 1792.08799469159771434 58.009497869018218807469 622.60132894232538092
60.009497869018190385759 1805.38857992234306948 60.009497869018190385759 624.88791404598009649
62.009497869018190385759 1818.12398064109402185 62.009497869018190385759 627.12122898562085993
64.009497869018218807469 1830.33018323741725908 64.009497869018218807469 629.30087410166333939
66.009497869018190385759 1842.05525835291155090 66.009497869018190385759 631.64574469893761943
68.009497869018190385759 1853.34073800027363177 68.009497869018190385759 634.03885318504160296
70.009497869018190385759 1864.21170654202887818 70.009497869018190385759 636.09785353103177385
72.009497869018190385759 1874.69422553161552969 72.009497869018190385759 637.78801369550296840
74.009497869018218807469 1884.81243235550300597 74.009497869018218807469 639.38571097681335687
76.009497869018190385759 1894.58573128724833623 76.009497869018190385759 640.89548357673504597
78.009497869018190385759 1904.03897527821072799 78.009497869018190385759 642.59938700999441608
80.009497869018218807469 1913.18758362664038941 80.009497869018218807469 643.86330146617535775
82.009497869018190385759 1922.03145984127445445 82.009497869018190385759 645.30040734440979122
84.009497869018218807469 1930.57490674491509708 84.009497869018218807469 646.55293972444815154
86.009497869018190385759 1938.82497999863608129 86.009497869018190385759 647.26059120861168594
88.009497869018190385759 1946.80155510120312101 88.009497869018190385759 648.11623217331793967
91.009497869018218807469 1958.27204669453544739 91.009497869018218807469 649.12355533420134179
94.009497869018218807469 1969.18841406271349115 94.009497869018218807469 650.57940027046527121
97.009497869018218807469 1979.62540651044923834 97.009497869018218807469 652.84557149997579018
99.504748934509137825444 1987.99529341665811444 99.504748934509137825444 653.31357092566611300
nan nan nan nan

