Time Pressure difference Time.1 Pressure.1 difference.1
(hr) (psi) (hr) (psi)
0.000200000000020850166 0.25733649564451988 0.000200000000020850166 0.20721949087338168
0.000399999999999067768 0.49369197398120740 0.000399999999999067768 0.47476022996965533
0.000600000000019917934 0.71791741922762864 0.000600000000019917934 0.66699317171493011
0.000799999999998135536 0.93306323203616537 0.000799999999998135536 0.85130149982463965
0.001007140329434719206 1.14814375141858038 0.001007140329434719206 1.03473629157355251
0.001267914553977789183 1.40957195448942230 0.001267914553977789183 1.25540517274990093
0.001596209851982166583 1.72627164151910018 0.001596209851982166583 1.51786582503594403
0.002009509145224797066 2.10856350049987107 0.002009509145224797066 1.82847619637775916
0.002529822128153114136 2.56829861760842659 0.002529822128153114136 2.19416326316516352
0.003184857364431081805 3.11898670420257762 0.003184857364431081805 2.62239556020477949
0.004009497869034817086 3.77591681832297299 0.004009497869034817086 3.12114945576758140
0.005047658755856332391 4.55626986323047856 0.005047658755856332391 3.69887730481238153
0.006354625877790454069 5.47922436319104467 0.006354625877790454069 4.36448850684742951
0.008000000000009777068 6.56605984332835035 0.008000000000009777068 5.12735664733086605
0.010071403294361402914 7.84026533605300013 0.010071403294361402914 5.99736658914684106
0.012679145539692626699 9.32766366178148942 0.012679145539692626699 6.98501317248494402
0.015962098519750611558 11.05656428253934997 0.015962098519750611558 8.10155548464416242
0.020095091452091651263 13.05795707061665212 0.020095091452091651263 9.35921750333813129
0.025298221281360611101 15.36575537371298061 0.025298221281360611101 10.77142145223933234
0.031848573644296607199 18.01709417192398277 0.031848573644296607199 12.35307448760354987
0.040094978690191851456 21.05270083936091297 0.040094978690191851456 14.12099875441665553
0.050476587558435426217 24.51738523826052685 0.050476587558435426217 16.09457932220155385
0.063546258777947173257 28.46070019684397678 0.063546258777947173257 18.29641154483325138
0.080000000000012505552 32.93771745311448029 0.080000000000012505552 20.75218045847151060
0.100714032943542974863 38.00961553720186714 0.100714032943542974863 23.48869546814201570
0.126791455396883634421 43.74352777342177490 0.126791455396883634421 26.52950042090963478
0.159620985197506115583 50.21107919255473462 0.159620985197506115583 29.88896422720886292
0.200950914520774404082 57.48547692471331061 0.200950914520774404082 33.56720565494686781
0.252982212813464002465 65.63766564118780877 0.252982212813464002465 37.54881486360981313
0.318485736442809752589 74.73277337031790069 0.318485736442809752589 41.80445411669594336
0.400949786901833249431 84.82693407634269533 0.400949786901833249431 46.30099680884212177
0.504765875584169521062 95.96829817386780803 0.504765875584169521062 51.00746738135050862
0.635462587779443310865 108.19646044625595493 0.635462587779443310865 55.90249832188838752
0.800000000000011368684 121.54671061135488230 0.800000000000011368684 60.98430525798333690
1.007140329435344483500 136.05378197380738925 1.007140329435344483500 66.28309315005738256
1.267914553968907398485 151.76137992664300214 1.267914553968907398485 71.81271972916580637
1.596209851975117999245 168.70345850700334722 1.596209851975117999245 77.66808934217850435
2.009509145207687197399 186.95716157700482540 2.009509145207687197399 83.90072630333187931
2.529822128134725289783 206.56712144237195616 2.529822128134725289783 90.61931880209618839
3.184857364427983839050 227.64174186501537633 3.184857364427983839050 97.97170934256155306
4.009497869018204596614 250.26878322081228134 4.009497869018204596614 106.01295143549610600
5.009497869018190385759 273.72359636164333097 5.009497869018190385759 114.50158547983667745
6.009497869018190385759 294.09808471381899153 6.009497869018190385759 121.95951185081230506
7.009497869018204596614 312.19367148969598702 7.009497869018204596614 128.61099780023573658
8.009497869018190385759 328.51266265127344468 8.009497869018190385759 134.58068249668585281
9.009497869018204596614 343.39410376020356352 9.009497869018204596614 139.97853300661532217
10.009497869018190385759 357.08025824223972222 10.009497869018190385759 144.87539533163521810
11.009497869018190385759 369.75190240778545103 11.009497869018190385759 149.29645305762429075
12.009497869018204596614 381.54869954877597138 12.009497869018204596614 153.33911453323565866
13.009497869018190385759 392.58096002520943557 13.009497869018190385759 157.04516230351890727
14.009497869018204596614 402.93894079036283529 14.009497869018204596614 160.44528095457442873
15.009497869018190385759 412.69545523699764544 15.009497869018190385759 163.57588951289122292
16.009497869018190385759 421.91091826278181998 16.009497869018190385759 166.46866430109926682
17.009497869018204596614 430.63820908363538820 17.009497869018204596614 169.15311414871646889
18.009497869018190385759 438.92310138142391907 18.009497869018190385759 171.65970905650880241
19.009497869018204596614 446.80450266904466616 19.009497869018204596614 173.99627275727863207
20.009497869018190385759 454.31752269558245416 20.009497869018190385759 176.17441990821293984
21.009497869018190385759 461.49092654943808611 21.009497869018190385759 178.20492516871954081
22.009497869018204596614 468.34932885337389052 22.009497869018204596614 180.10547641308968991
23.009497869018190385759 474.91523308608088882 23.009497869018190385759 181.88259359291242845
24.009497869018204596614 481.20944109473521166 24.009497869018204596614 183.55515372461843526
25.009497869018204596614 487.25145657309775515 25.009497869018204596614 185.13195054707338727
26.009497869018190385759 493.05844707685594130 26.009497869018190385759 186.62222889548164062
27.009497869018204596614 498.64607244885615955 27.009497869018204596614 188.03608234895105511
28.009497869018190385759 504.02793340102857655 28.009497869018190385759 189.37685455630116849
29.009497869018190385759 509.21622920040670124 29.009497869018190385759 190.63892709920568791
30.009497869018190385759 514.22228065805632014 30.009497869018190385759 191.84772667514357636
31.009497869018218807469 519.05645808264091556 31.009497869018218807469 192.99458821342730630
32.009497869018190385759 523.72831351030492897 32.009497869018190385759 194.08416162696221363
33.009497869018190385759 528.24668722484807404 33.009497869018190385759 195.11483622637661028
34.009497869018218807469 532.62007922150064587 34.009497869018218807469 196.10803265329118972
35.009497869018190385759 536.85606221290754547 35.009497869018190385759 197.05465798446027748
36.009497869018190385759 540.96163651499364278 36.009497869018190385759 197.96704643971489190
37.009497869018190385759 544.94328681549632165 37.009497869018190385759 198.84437609311501660
38.009497869018218807469 548.80718896493010561 38.009497869018218807469 199.69053317170906325
39.009497869018190385759 552.55899327011400146 39.009497869018190385759 200.51142391046261082
40.009497869018190385759 556.20399091130479974 40.009497869018190385759 201.30448087852414574
41.009497869018218807469 559.74726313335952455 41.009497869018218807469 202.06903369815725569
42.009497869018190385759 563.19346213572316628 42.009497869018190385759 202.80231741520390187
43.009497869018190385759 566.54696032154606655 43.009497869018190385759 203.51960191377534670
44.009497869018218807469 569.81198644265225539 44.009497869018218807469 204.19641646164026838
46.009497869018190385759 576.09239093818609945 46.009497869018190385759 205.49618595678774113
48.009497869018218807469 582.06175304590340147 48.009497869018218807469 206.70172843399788576
50.009497869018190385759 587.74168185933353925 50.009497869018190385759 207.77543759404241541
52.009497869018190385759 593.15365526920732009 52.009497869018190385759 208.74958180013678088
54.009497869018218807469 598.31806559654216926 54.009497869018218807469 209.63798812639464586
56.009497869018190385759 603.25106612837419107 56.009497869018190385759 210.45000388468162100
58.009497869018218807469 607.96673587170573683 58.009497869018218807469 211.21780784631155825
60.009497869018190385759 612.47896596971008876 60.009497869018190385759 211.99353297023390041
62.009497869018190385759 616.79945694332980111 62.009497869018190385759 212.75118616474713917
64.009497869018218807469 620.94041719296990323 64.009497869018218807469 213.49063184514020008
66.009497869018190385759 624.91815470749668293 66.009497869018190385759 214.28613035151332156
68.009497869018190385759 628.74675924269638472 68.009497869018190385759 215.09799358545788550
70.009497869018190385759 632.43474068092496054 70.009497869018190385759 215.79651046812122672
72.009497869018190385759 635.99094041703733637 72.009497869018190385759 216.36989813733038091
74.009497869018218807469 639.42354707129481994 74.009497869018218807469 216.91191772783415104
76.009497869018190385759 642.73914355307044843 76.009497869018190385759 217.42410882682133888
78.009497869018190385759 645.94616123836738097 78.009497869018190385759 218.00215890674365937
80.009497869018218807469 649.04983113172011144 80.009497869018218807469 218.43094250923505228
82.009497869018190385759 652.05012049842059696 82.009497869018190385759 218.91848138705813653
84.009497869018218807469 654.94848907322568721 84.009497869018218807469 219.34340361460567692
86.009497869018190385759 657.74733049263397788 86.009497869018190385759 219.58347472954875457
88.009497869018190385759 660.45338752940222093 88.009497869018190385759 219.87375134873903448
91.009497869018218807469 664.34475745850124895 91.009497869018218807469 220.21548622777640958
94.009497869018218807469 668.04814047097966068 94.009497869018218807469 220.70938234027622116
97.009497869018218807469 671.58889530532007939 97.009497869018218807469 221.47818204732908498
99.504748934509137825444 674.42838356541449230 99.504748934509137825444 221.63695108326345462
nan nan nan nan

