Time Pressure difference Time.1 Pressure.1 difference.1
(hr) (psi) (hr) (psi)
0.000200000000020850166 0.33438783009622208 0.000200000000020850166 0.26926486168721397
0.000399999999999067768 0.64151253595813873 0.000399999999999067768 0.61691227557103467
0.000600000000019917934 0.93287525114752901 0.000600000000019917934 0.86670333650166775
0.000799999999998135536 1.21243972302373826 0.000799999999998135536 1.10619700703957546
0.001007140329434719206 1.49191935140728305 0.001007140329434719206 1.34455558817842435
0.001267914553977789183 1.83162402225805754 0.001267914553977789183 1.63129683784652824
0.001596209851982166583 2.24314948767162159 0.001596209851982166583 1.97234309241589223
0.002009509145224797066 2.73990664163791342 0.002009509145224797066 2.37595598773505312
0.002529822128153114136 3.33729500602025153 0.002529822128153114136 2.85113656579891872
0.003184857364431081805 4.05286935110044233 0.003184857364431081805 3.40758957968469867
0.004009497869034817086 4.90649656334409556 0.004009497869034817086 4.05567967072124702
0.005047658755856332391 5.92050182809309344 0.005047658755856332391 4.80638998619515867
0.006354625877790454069 7.11980607658836373 0.006354625877790454069 5.67129756558372389
0.008000000000009777068 8.53206031967375900 0.008000000000009777068 6.66258262022353787
0.010071403294361402914 10.18778664306886839 0.010071403294361402914 7.79308972485069162
0.012679145539692626699 12.12053970004745906 0.012679145539692626699 9.07645607006037736
0.015962098519750611558 14.36710533225316766 0.015962098519750611558 10.52731192336029054
0.020095091452091651263 16.96775235629547751 0.020095091452091651263 12.16154134881437088
0.025298221281360611101 19.96654840712122692 0.025298221281360611101 13.99658543357843499
0.031848573644296607199 23.41174736875006346 0.031848573644296607199 16.05181481383367981
0.040094978690191851456 27.35627114882072064 0.040094978690191851456 18.34908849774490136
0.050476587558435426217 31.85834651599551037 0.050476587558435426217 20.91359580530259876
0.063546258777947173257 36.98236333717807156 0.063546258777947173257 23.77469755971064913
0.080000000000012505552 42.79988285332026265 0.080000000000012505552 26.96576937481617620
0.100714032943542974863 49.39040158467800268 0.100714032943542974863 30.52164789028919145
0.126791455396883634421 56.84115382185911614 0.126791455396883634421 34.47292641903083421
0.159620985197506115583 65.24521046241851252 0.159620985197506115583 38.83827619058826031
0.200950914520774404082 74.69769821321759196 0.200950914520774404082 43.61785153418968264
0.252982212813464002465 85.29080390003181833 0.252982212813464002465 48.79162861637670545
0.318485736442809752589 97.10915609457006781 0.318485736442809752589 54.32148543652059658
0.400949786901833249431 110.22569631431737491 0.400949786901833249431 60.16437666730357847
0.504765875584169521062 124.70299210383403476 0.504765875584169521062 66.28005209146418508
0.635462587779443310865 140.59249366126863379 0.635462587779443310865 72.64074636594217793
0.800000000000011368684 157.94005710254543828 0.800000000000011368684 79.24414084394928182
1.007140329435344483500 176.79081552991829085 1.007140329435344483500 86.12948441301061564
1.267914553968907398485 197.20156054421346425 1.267914553968907398485 93.31478406667767445
1.596209851975117999245 219.21641265299561496 1.596209851975117999245 100.92336027893544781
2.009509145207687197399 242.93561402593357457 2.009509145207687197399 109.02216470229461720
2.529822128134725289783 268.41716071145430078 2.529822128134725289783 117.75242879225869785
3.184857364427983839050 295.80191457459847015 3.184857364427983839050 127.30626184920062371
4.009497869018204596614 325.20391308053223156 4.009497869018204596614 137.75520142926382050
5.009497869018190385759 355.68153364434465402 5.009497869018190385759 148.78549043455521428
6.009497869018190385759 382.15652286941013926 6.009497869018190385759 158.47645871311948440
7.009497869018204596614 405.67026498806421841 7.009497869018204596614 167.11952330437608794
8.009497869018190385759 426.87546571255586514 8.009497869018190385759 174.87664266284468795
9.009497869018204596614 446.21268715352033496 9.009497869018204596614 181.89071004057277037
10.009497869018190385759 463.99673091360807575 10.009497869018190385759 188.25378405011903737
11.009497869018190385759 480.46250109383748850 11.009497869018190385759 193.99858871150595974
12.009497869018204596614 495.79147877413618062 12.009497869018204596614 199.25169824522188833
13.009497869018190385759 510.12700328857152954 13.009497869018190385759 204.06740566765390099
14.009497869018204596614 523.58635620143070355 14.009497869018204596614 208.48558310085689982
15.009497869018190385759 536.26415258993586122 15.009497869018190385759 212.55355410541389460
16.009497869018190385759 548.23889669611469344 16.009497869018190385759 216.31247948427724737
17.009497869018204596614 559.57930075693309391 17.009497869018204596614 219.80070355952400973
18.009497869018190385759 570.34484394621074443 18.009497869018190385759 223.05781961703326033
19.009497869018204596614 580.58608341006674891 19.009497869018204596614 226.09399396076614153
20.009497869018190385759 590.34864140966669765 20.009497869018190385759 228.92431889235814424
21.009497869018190385759 599.66989583604311065 21.009497869018190385759 231.56279520470241096
22.009497869018204596614 608.58183138795970990 22.009497869018204596614 234.03240685072989891
23.009497869018190385759 617.11368950429687175 23.009497869018190385759 236.34162597683680929
24.009497869018204596614 625.29250049228676289 24.009497869018204596614 238.51498172937337472
25.009497869018204596614 633.14360781446123383 25.009497869018204596614 240.56390085622618358
26.009497869018190385759 640.68931931207737307 26.009497869018190385759 242.50039626825665096
27.009497869018204596614 647.94998367627522384 27.009497869018204596614 244.33758374994508245
28.009497869018190385759 654.94327392517368480 28.009497869018190385759 246.07980810077503975
29.009497869018190385759 661.68504201331916192 29.009497869018190385759 247.71976864344458136
30.009497869018190385759 668.18999841323011424 30.009497869018190385759 249.29050530171272726
31.009497869018218807469 674.47161849691997304 31.009497869018218807469 250.78075852151749814
32.009497869018190385759 680.54231435786721249 32.009497869018190385759 252.19657048619802708
33.009497869018190385759 686.41357322531132468 33.009497869018190385759 253.53584823601843823
34.009497869018218807469 692.09644015119408778 34.009497869018218807469 254.82642615122432517
35.009497869018190385759 697.60075525921411099 35.009497869018190385759 256.05648871817948020
36.009497869018190385759 702.93561489012267884 36.009497869018190385759 257.24206325160622555
37.009497869018190385759 708.10944536781062197 37.009497869018190385759 258.38208172564657161
38.009497869018218807469 713.13027170733653293 38.009497869018218807469 259.48159397602893250
39.009497869018190385759 718.00543602250286312 39.009497869018190385759 260.54827467435114841
40.009497869018190385759 722.74181377137574600 40.009497869018190385759 261.57878765319850345
41.009497869018218807469 727.34600761805734237 41.009497869018218807469 262.57226181126833353
42.009497869018190385759 731.82406271705883682 42.009497869018190385759 263.52510431568646254
43.009497869018190385759 736.18166065038110446 43.009497869018190385759 264.45715713795806323
44.009497869018218807469 740.42429633681842915 44.009497869018218807469 265.33662255335229929
46.009497869018190385759 748.58517078304987535 46.009497869018190385759 267.02556721710499232
48.009497869018218807469 756.34187096371738335 48.009497869018218807469 268.59207154068911905
50.009497869018190385759 763.72247613698277746 50.009497869018190385759 269.98726919923535661
52.009497869018190385759 770.75489507365023201 52.009497869018190385759 271.25309030424750745
54.009497869018218807469 777.46562593504177130 54.009497869018218807469 272.40750201307673706
56.009497869018190385759 783.87565860285826602 56.009497869018190385759 273.46265039666479879
58.009497869018218807469 790.00328760073398371 58.009497869018218807469 274.46034914913155944
60.009497869018190385759 795.86656333854773493 60.009497869018190385759 275.46834080725159311
62.009497869018190385759 801.48068969089649727 62.009497869018190385759 276.45284946407548432
64.009497869018218807469 806.86153048039989244 64.009497869018218807469 277.41369893830716364
66.009497869018190385759 812.03027661119472214 66.009497869018190385759 278.44738449746063225
68.009497869018190385759 817.00523657408507461 68.009497869018190385759 279.50233468808045245
70.009497869018190385759 821.79746826852749564 70.009497869018190385759 280.41000052107614238
72.009497869018190385759 826.41846036748734150 72.009497869018190385759 281.15507112612402807
74.009497869018218807469 830.87885331647908060 74.009497869018218807469 281.85938146611005095
76.009497869018190385759 835.18720107041428946 76.009497869018190385759 282.52493210927076461
78.009497869018190385759 839.35445951613439775 78.009497869018190385759 283.27606113754194439
80.009497869018218807469 843.38742591825268846 80.009497869018218807469 283.83323052798851904
82.009497869018190385759 847.28605774068012124 82.009497869018190385759 284.46674761632260697
84.009497869018218807469 851.05225178991815937 84.009497869018218807469 285.01889946432771694
86.009497869018190385759 854.68911840176565420 86.009497869018190385759 285.33085233752410659
88.009497869018190385759 858.20541926058956506 88.009497869018190385759 285.70804317699520425
91.009497869018218807469 863.26193774404089254 91.009497869018218807469 286.15209983667455163
94.009497869018218807469 868.07418253060438929 94.009497869018218807469 286.79387763402172595
97.009497869018218807469 872.67510523685473345 97.009497869018218807469 287.79287027661655429
99.504748934509137825444 876.36478910971015921 99.504748934509137825444 287.99917771575223924
nan nan nan nan

