Time Pressure difference Time.1 Pressure.1 difference.1
(hr) (psi) (hr) (psi)
0.000200000000020850166 0.71365993268858130 0.000200000000020850166 0.57467265782908761
0.000399999999999067768 1.36913413714555765 0.000399999999999067768 1.31663156799724179
0.000600000000019917934 1.99096865681150481 0.000600000000019917934 1.84974269132570712
0.000799999999998135536 2.58762303303052876 0.000799999999998135536 2.36087683381600666
0.001007140329434719206 3.18409633387594626 0.001007140329434719206 2.86958843651502660
0.001267914553977789183 3.90910361797357231 0.001267914553977789183 3.48155969419594591
0.001596209851982166583 4.78739286630587735 0.001596209851982166583 4.20943022408224010
0.002009509145224797066 5.84758598685138686 0.002009509145224797066 5.07083224228018103
0.002529822128153114136 7.12254907325127551 0.002529822128153114136 6.08497602633594692
0.003184857364431081805 8.64974801107342728 0.003184857364431081805 7.27257373382371952
0.004009497869034817086 10.47158326941894302 0.004009497869034817086 8.65574587442521093
0.005047658755856332391 12.63570188814499140 0.005047658755856332391 10.25793299067154685
0.006354625877790454069 15.19529082117516516 0.006354625877790454069 12.10384312654781347
0.008000000000009777068 18.20936363527687973 0.008000000000009777068 14.21947163242338874
0.010071403294361402914 21.74306142614697990 0.010071403294361402914 16.63223176176187934
0.012679145539692626699 25.86799748063820203 0.012679145539692626699 19.37122839113557049
0.015962098519750611558 30.66268117890273004 0.015962098519750611558 22.46768584985618844
0.020095091452091651263 36.21305536444269535 0.020095091452091651263 25.95550435518772048
0.025298221281360611101 42.61317042593658044 0.025298221281360611101 29.87190716696605719
0.031848573644296607199 49.96601116283570576 0.031848573644296607199 34.25823564294705648
0.040094978690191851456 58.38452500218113528 0.040094978690191851456 39.16114189451596417
0.050476587558435426217 67.99298115494343620 0.050476587558435426217 44.63438567843104465
0.063546258777947173257 78.92880229008474657 0.063546258777947173257 50.74062969119454181
0.080000000000012505552 91.34471642520701096 0.080000000000012505552 57.55110510866808227
0.100714032943542974863 105.41038727468190928 0.100714032943542974863 65.14016126920780891
0.126791455396883634421 121.31199272047783211 0.126791455396883634421 73.57309128356915551
0.159620985197506115583 139.24816729563144690 0.159620985197506115583 82.88974381615481946
0.200950914520774404082 159.42193309935026946 0.200950914520774404082 93.09044824075382962
0.252982212813464002465 182.03003785375921098 0.252982212813464002465 104.13246912756908102
0.318485736442809752589 207.25309824210256693 0.318485736442809752589 115.93444542827884902
0.400949786901833249431 235.24678810706663512 0.400949786901833249431 128.40450859196334932
0.504765875584169521062 266.14464086590083980 0.504765875584169521062 141.45675547037319575
0.635462587779443310865 300.05646298176793607 0.635462587779443310865 155.03192848570208184
0.800000000000011368684 337.08012186986212555 0.800000000000011368684 169.12507911661654703
1.007140329435344483500 377.31194186922164135 1.007140329435344483500 183.81997344521727200
1.267914553968907398485 420.87312921516695496 1.267914553968907398485 199.15504250472147874
1.596209851975117999245 467.85784713860806505 1.596209851975117999245 215.39348032685552425
2.009509145207687197399 518.48003530367031999 2.009509145207687197399 232.67817701563549804
2.529822128134725289783 572.86347051169434508 2.529822128134725289783 251.31055272441790294
3.184857364427983839050 631.30878412565300550 3.184857364427983839050 271.70061253722013817
4.009497869018204596614 694.05935811818278580 4.009497869018204596614 294.00103392285836890
5.009497869018190385759 759.10555502618524315 5.009497869018190385759 317.54218763884944110
6.009497869018190385759 815.60922330518405943 6.009497869018190385759 338.22492530719466686
7.009497869018204596614 865.79291453828466274 7.009497869018204596614 356.67119738786300331
8.009497869018190385759 911.04965165498504120 8.009497869018190385759 373.22666017976246167
9.009497869018204596614 952.31969473033200302 9.009497869018204596614 388.19628048927614827
10.009497869018190385759 990.27490221830453265 10.009497869018190385759 401.77653240226743492
11.009497869018190385759 1025.41661307275376203 11.009497869018190385759 414.03725644469056988
12.009497869018204596614 1058.13214933003564511 12.009497869018204596614 425.24859088577562716
13.009497869018190385759 1088.72742983735406597 13.009497869018190385759 435.52640941150298204
14.009497869018204596614 1117.45276021513404885 14.009497869018204596614 444.95580822867441384
15.009497869018190385759 1144.51007062818530358 15.009497869018190385759 453.63778661423907579
16.009497869018190385759 1170.06690704271454706 16.009497869018190385759 461.66019111409508469
17.009497869018204596614 1194.26991705170962632 17.009497869018204596614 469.10485726126603367
18.009497869018190385759 1217.24604278453011830 18.009497869018190385759 476.05628616252732854
19.009497869018204596614 1239.10318472752510388 19.009497869018204596614 482.53617503035997061
20.009497869018190385759 1259.93871119646973966 20.009497869018190385759 488.57673428033479013
21.009497869018190385759 1279.83239514001161297 21.009497869018190385759 494.20784479929778854
22.009497869018204596614 1298.85249920383330391 22.009497869018204596614 499.47855958746384886
23.009497869018190385759 1317.06143129104975742 23.009497869018190385759 504.40696013848389612
24.009497869018204596614 1334.51688024528311871 24.009497869018204596614 509.04539724792431343
25.009497869018204596614 1351.27293479864874826 25.009497869018204596614 513.41825820322094387
26.009497869018190385759 1367.37720497476925630 26.009497869018190385759 517.55118129735319599
27.009497869018204596614 1382.87311952386289704 27.009497869018204596614 521.47215860726532810
28.009497869018190385759 1397.79839669936427526 28.009497869018190385759 525.19046292648636154
29.009497869018190385759 1412.18686818949981898 29.009497869018190385759 528.69051294372729899
30.009497869018190385759 1426.06992949937693993 30.009497869018190385759 532.04282339560154469
31.009497869018218807469 1439.47634014778896017 31.009497869018218807469 535.22336382444677838
32.009497869018190385759 1452.43259037450843607 32.009497869018190385759 538.24502962826147723
33.009497869018190385759 1464.96319654797980547 33.009497869018190385759 541.10335395338154285
34.009497869018218807469 1477.09173132939417883 34.009497869018218807469 543.85774171872026272
35.009497869018190385759 1488.83919578812128748 35.009497869018190385759 546.48297592202072792
36.009497869018190385759 1500.22500359099990419 36.009497869018190385759 549.01326251013949786
37.009497869018190385759 1511.26713843599827669 37.009497869018190385759 551.44632207218523945
38.009497869018218807469 1521.98272753646324418 38.009497869018218807469 553.79293210991409069
39.009497869018190385759 1532.38744063863009615 39.009497869018190385759 556.06947212378292988
40.009497869018190385759 1542.49595153890913934 40.009497869018190385759 558.26882197125587481
41.009497869018218807469 1552.32235182914268989 41.009497869018218807469 560.38912252337809150
42.009497869018190385759 1561.87954324848783472 42.009497869018190385759 562.42270585495509749
43.009497869018190385759 1571.17965158940387482 43.009497869018190385759 564.41191926087697084
44.009497869018218807469 1580.23440426247157120 44.009497869018218807469 566.28889914071169187
46.009497869018190385759 1597.65157254369046314 46.009497869018190385759 569.89349244992877175
48.009497869018218807469 1614.20614071451109339 48.009497869018218807469 573.23677013381973211
50.009497869018190385759 1629.95803631919829968 50.009497869018190385759 576.21444030440841289
52.009497869018190385759 1644.96682304309229039 52.009497869018190385759 578.91599138758863319
54.009497869018218807469 1659.28905400901521716 54.009497869018218807469 581.37976939703628432
56.009497869018190385759 1672.96952641415396101 56.009497869018190385759 583.63169681972760827
58.009497869018218807469 1686.04728494653295456 58.009497869018218807469 585.76101362029430675
60.009497869018190385759 1698.56085329971938336 60.009497869018190385759 587.91229783024164135
62.009497869018190385759 1710.54268001144350819 62.009497869018190385759 590.01346395688597113
64.009497869018218807469 1722.02662209910863567 64.009497869018218807469 592.06413598913889018
66.009497869018190385759 1733.05790578765049759 66.009497869018190385759 594.27025684692944196
68.009497869018190385759 1743.67560557422189049 68.009497869018190385759 596.52176128060125393
70.009497869018190385759 1753.90332153954182104 70.009497869018190385759 598.45892728659202930
72.009497869018190385759 1763.76557313329522003 72.009497869018190385759 600.04907797387556911
74.009497869018218807469 1773.28506949423058359 74.009497869018218807469 601.55223695451672938
76.009497869018190385759 1782.48006671403845758 76.009497869018190385759 602.97267389763828760
78.009497869018190385759 1791.37394715523987543 78.009497869018190385759 604.57575464253909558
80.009497869018218807469 1799.98121773157276948 80.009497869018218807469 605.76488126107631160
82.009497869018190385759 1808.30178766131734847 82.009497869018190385759 607.11695128852750258
84.009497869018218807469 1816.33970516237582160 84.009497869018218807469 608.29536932655173587
86.009497869018190385759 1824.10160840108369484 86.009497869018190385759 608.96114794183006325
88.009497869018190385759 1831.60619681119101188 88.009497869018190385759 609.76615926365423093
91.009497869018218807469 1842.39796109130861623 91.009497869018218807469 610.71387750377527937
94.009497869018218807469 1852.66838956196102117 94.009497869018218807469 612.08357776925447524
97.009497869018218807469 1862.48780849207923893 97.009497869018218807469 614.21565602660450622
99.504748934509137825444 1870.36243581803910274 99.504748934509137825444 614.65596317858535258
nan nan nan nan

