Time Pressure difference Time.1 Pressure.1 difference.1
(hr) (psi) (hr) (psi)
0.000200000000020850166 0.34037239976237366 0.000200000000020850166 0.27408391961450196
0.000399999999999067768 0.65299374465537607 0.000399999999999067768 0.62795321115172442
0.000600000000019917934 0.94957100508305525 0.000600000000019917934 0.88221480561131727
0.000799999999998135536 1.23413886795481176 0.000799999999998135536 1.12599471633782278
0.001007140329434719206 1.51862036888213381 0.001007140329434719206 1.36861922286618132
0.001267914553977789183 1.86440476538571831 0.001267914553977789183 1.66049230698024686
0.001596209851982166583 2.28329533979997290 0.001596209851982166583 2.00764229764928670
0.002009509145224797066 2.78894300211465485 0.002009509145224797066 2.41847868997639637
0.002529822128153114136 3.39702288084835446 0.002529822128153114136 2.90216361843066650
0.003184857364431081805 4.12540392561678182 0.003184857364431081805 3.46857552294527505
0.004009497869034817086 4.99430858237486319 0.004009497869034817086 4.12826454178560898
0.005047658755856332391 6.02646159235426815 0.005047658755856332391 4.89241038863265576
0.006354625877790454069 7.24722989898815584 0.006354625877790454069 5.77279729830110533
0.008000000000009777068 8.68475938579767437 0.008000000000009777068 6.78182347248704609
0.010071403294361402914 10.37011839507010258 0.010071403294361402914 7.93256336645875759
0.012679145539692626699 12.33746211078656430 0.012679145539692626699 9.23889823686235268
0.015962098519750611558 14.62423473417268660 0.015962098519750611558 10.71572019044504032
0.020095091452091651263 17.27142577654237598 0.020095091452091651263 12.37919756982223518
0.025298221281360611101 20.32389155534711023 0.025298221281360611101 14.24708360688632780
0.031848573644296607199 23.83074955879480683 0.031848573644296607199 16.33909561587097414
0.040094978690191851456 27.84586884275934437 0.040094978690191851456 18.67748381761505172
0.050476587558435426217 32.42851826572250218 0.050476587558435426217 21.28788834767937743
0.063546258777947173257 37.64424008594188109 0.063546258777947173257 24.20019550261374874
0.080000000000012505552 43.56587628246246169 0.080000000000012505552 27.44837822268760519
0.100714032943542974863 50.27434613205478797 0.100714032943542974863 31.06789662210644565
0.126791455396883634421 57.85844516542706373 0.126791455396883634421 35.08989154509849584
0.159620985197506115583 66.41290997852443923 0.159620985197506115583 39.53336838191869873
0.200950914520774404082 76.03456976960626434 0.200950914520774404082 44.39848422383960980
0.252982212813464002465 86.81726124052457294 0.252982212813464002465 49.66485686901879859
0.318485736442809752589 98.84712756829839009 0.318485736442809752589 55.29368204388561736
0.400949786901833249431 112.19841571144164050 0.400949786901833249431 61.24114403495106984
0.504765875584169521062 126.93481299159840603 0.504765875584169521062 67.46627226312348569
0.635462587779443310865 143.10869041583273997 0.635462587779443310865 73.94080446645121185
0.800000000000011368684 160.76672479118158776 0.800000000000011368684 80.66238050111168434
1.007140329435344483500 179.95485697116961887 1.007140329435344483500 87.67095169557008205
1.267914553968907398485 200.73089496111214203 1.267914553968907398485 94.98484731619315369
1.596209851975117999245 223.13974889734450358 1.596209851975117999245 102.72959491480006022
2.009509145207687197399 247.28345499284068865 2.009509145207687197399 110.97334438376745425
2.529822128134725289783 273.22104725662575220 2.529822128134725289783 119.85985481091211113
3.184857364427983839050 301.09590857145929021 3.184857364427983839050 129.58467369437647676
4.009497869018204596614 331.02411734148131472 4.009497869018204596614 140.22061890450791566
5.009497869018190385759 362.04719867601079386 5.009497869018190385759 151.44831800385375686
6.009497869018190385759 388.99601321159195777 6.009497869018190385759 161.31272643058025551
7.009497869018204596614 412.93058292968504475 7.009497869018204596614 170.11047674159087251
8.009497869018190385759 434.51529507653896189 8.009497869018190385759 178.00642597672108991
9.009497869018204596614 454.19859654329252407 9.009497869018204596614 185.14602476165686085
10.009497869018190385759 472.30092296575315913 10.009497869018190385759 191.62297929038962252
11.009497869018190385759 489.06138254518134545 11.009497869018190385759 197.47059924772977979
12.009497869018204596614 504.66470434503798970 12.009497869018204596614 202.81772416459949682
13.009497869018190385759 519.25679305659957663 13.009497869018190385759 207.71961874447993068
14.009497869018204596614 532.95702924306704062 14.009497869018204596614 212.21686870445165596
15.009497869018190385759 545.86172131637772509 15.009497869018190385759 216.35764455920204341
16.009497869018190385759 558.05077851617943452 16.009497869018190385759 220.18384377034934118
17.009497869018204596614 569.59414282864554480 17.009497869018204596614 223.73449691181974686
18.009497869018190385759 580.55235793182521320 18.009497869018190385759 227.04990587416136805
19.009497869018204596614 590.97688579771886452 19.009497869018204596614 230.14041890860983131
20.009497869018190385759 600.91416519328481627 20.009497869018190385759 233.02139842510723611
21.009497869018190385759 610.40224296509984470 21.009497869018190385759 235.70709579002146938
22.009497869018204596614 619.47367624501487171 22.009497869018204596614 238.22090630219707919
23.009497869018190385759 628.15822980862435543 23.009497869018190385759 240.57145373481151296
24.009497869018204596614 636.48341772704793584 24.009497869018204596614 242.78370623459707645
25.009497869018204596614 644.47503703709139700 25.009497869018204596614 244.86929505499531956
26.009497869018190385759 652.15579482549264867 26.009497869018190385759 246.84044810303527129
27.009497869018204596614 659.54640396578361106 27.009497869018204596614 248.71051589759514400
28.009497869018190385759 666.66485377170931770 28.009497869018190385759 250.48392099743321637
29.009497869018190385759 673.52727990170069461 29.009497869018190385759 252.15323206435633097
30.009497869018190385759 680.14865610295237275 30.009497869018190385759 253.75208034066955065
31.009497869018218807469 686.54269891744650067 31.009497869018218807469 255.26900475903909182
32.009497869018190385759 692.72204257903695179 32.009497869018190385759 256.71015564031341682
33.009497869018190385759 698.69837990495886970 33.009497869018190385759 258.07340256686438806
34.009497869018218807469 704.48295362146166099 34.009497869018218807469 259.38707807339386591
35.009497869018190385759 710.08577996183987580 35.009497869018190385759 260.63915518293441664
36.009497869018190385759 715.51611806488983802 36.009497869018190385759 261.84594805252982042
37.009497869018190385759 720.78254506119424150 37.009497869018190385759 263.00636954176553672
38.009497869018218807469 725.89322959024184456 38.009497869018218807469 264.12555986374309214
39.009497869018190385759 730.85564516831936999 39.009497869018190385759 265.21133104436188432
40.009497869018190385759 735.67679030419674291 40.009497869018190385759 266.26028720851303433
41.009497869018218807469 740.36338583046097028 41.009497869018218807469 267.27154166471387953
42.009497869018190385759 744.92158509230819163 42.009497869018190385759 268.24143727883080146
43.009497869018190385759 749.35717135553329626 43.009497869018190385759 269.19017113595288038
44.009497869018218807469 753.67573788199638329 44.009497869018218807469 270.08537642455331707
46.009497869018190385759 761.98266824672873554 46.009497869018190385759 271.80454828586755411
48.009497869018218807469 769.87819080199426480 48.009497869018218807469 273.39908848101464400
50.009497869018190385759 777.39088734301390105 50.009497869018190385759 274.81925612002703474
52.009497869018190385759 784.54916612642250584 52.009497869018190385759 276.10773174145998610
54.009497869018218807469 791.37999955356599457 54.009497869018218807469 277.28280406252781631
56.009497869018190385759 797.90475316398328687 56.009497869018190385759 278.35683653351787825
58.009497869018218807469 804.14204890007590620 58.009497869018218807469 279.37239119206907390
60.009497869018190385759 810.11026022156420368 60.009497869018190385759 280.39842296935000832
62.009497869018190385759 815.82486310818330821 62.009497869018190385759 281.40055146790683693
64.009497869018218807469 821.30200529884109528 64.009497869018218807469 282.37859735331045385
66.009497869018190385759 826.56325695322959746 66.009497869018190385759 283.43078287772834756
68.009497869018190385759 831.62725423089204924 68.009497869018190385759 284.50461360867251415
70.009497869018190385759 836.50525293552561834 70.009497869018190385759 285.42852402033474846
72.009497869018190385759 841.20894735393005703 72.009497869018190385759 286.18692922234106391
74.009497869018218807469 845.74916836464865355 74.009497869018218807469 286.90384466908295735
76.009497869018190385759 850.13462301350887174 76.009497869018190385759 287.58130673315031345
78.009497869018190385759 854.37646326586389023 78.009497869018190385759 288.34587878653593407
80.009497869018218807469 858.48160803759492410 80.009497869018218807469 288.91301988866842976
82.009497869018190385759 862.45001403134108386 82.009497869018190385759 289.55787509044029093
84.009497869018218807469 866.28361200092331273 84.009497869018218807469 290.11990885071389812
86.009497869018190385759 869.98556794810599513 86.009497869018190385759 290.43744477309502372
88.009497869018190385759 873.56480036592438410 88.009497869018190385759 290.82138623161705482
91.009497869018218807469 878.71181582447115943 91.009497869018218807469 291.27339021406470465
94.009497869018218807469 883.61018579737128675 94.009497869018218807469 291.92665396751647222
97.009497869018218807469 888.29345163930406670 97.009497869018218807469 292.94352567306611945
99.504748934509137825444 892.04917012285920919 99.504748934509137825444 293.15352541536299213
nan nan nan nan

