Time Pressure difference Time.1 Pressure.1 difference.1
(hr) (psi) (hr) (psi)
0.000200000000020850166 0.79669583680643508 0.000200000000020850166 0.64153708657020780
0.000399999999999067768 1.52843590781972649 0.000399999999999067768 1.46982454917931094
0.000600000000019917934 2.22262224266693176 0.000600000000019917934 2.06496432522209439
0.000799999999998135536 2.88869866894917493 0.000799999999998135536 2.63557005032918967
0.001007140329434719206 3.55457295133949991 0.001007140329434719206 3.20347136780765540
0.001267914553977789183 4.36393642886986832 0.001267914553977789183 3.88664682842629228
0.001596209851982166583 5.34441656458674963 0.001596209851982166583 4.69920669669558233
0.002009509145224797066 6.52796548846617064 0.002009509145224797066 5.66083473587881869
0.002529822128153114136 7.95127333649120338 0.002529822128153114136 6.79297638160145034
0.003184857364431081805 9.65616523248763059 0.003184857364431081805 8.11875369656421420
0.004009497869034817086 11.68997503347083189 0.004009497869034817086 9.66286096044323806
0.005047658755856332391 14.10589361726878010 0.005047658755856332391 11.45146607449182063
0.006354625877790454069 16.96329635697227545 0.006354625877790454069 13.51215191800148929
0.008000000000009777068 20.32806317774620197 0.008000000000009777068 15.87393845757956967
0.010071403294361402914 24.27291448516408323 0.010071403294361402914 18.56742853907379498
0.012679145539692626699 28.87779592964327691 0.012679145539692626699 21.62511345551297737
0.015962098519750611558 34.23035163053607022 0.015962098519750611558 25.08185055565706989
0.020095091452091651263 40.42652407036841566 0.020095091452091651263 28.97548442167182614
0.025298221281360611101 47.57130660757070473 0.025298221281360611101 33.34756932161305798
0.031848573644296607199 55.77966654970652627 0.031848573644296607199 38.24425677121448075
0.040094978690191851456 65.17769300557957024 0.040094978690191851456 43.71762695771435858
0.050476587558435426217 75.90411418240540797 0.050476587558435426217 49.82769470390887534
0.063546258777947173257 88.11234217918264733 0.063546258777947173257 56.64441364897503917
0.080000000000012505552 101.97287525455499235 0.080000000000012505552 64.24730287288417685
0.100714032943542974863 117.67511786953484432 0.100714032943542974863 72.71936242317222820
0.126791455396883634421 135.42691011248311383 0.126791455396883634421 82.13348240775802367
0.159620985197506115583 155.44999808160116572 0.159620985197506115583 92.53414797086465171
0.200950914520774404082 177.97102594424325162 0.200950914520774404082 103.92172680964657161
0.252982212813464002465 203.20963345309596093 0.252982212813464002465 116.24851113297806648
0.318485736442809752589 231.36745244008307054 0.318485736442809752589 129.42367335546853724
0.400949786901833249431 262.61826974216558028 0.400949786901833249431 143.34465581807228318
0.504765875584169521062 297.11115568363146622 0.504765875584169521062 157.91556035214617282
0.635462587779443310865 334.96869295134473532 0.635462587779443310865 173.07023463026493459
0.800000000000011368684 376.30013604968883101 0.800000000000011368684 188.80315435974492289
1.007140329435344483500 421.21301686658387098 1.007140329435344483500 205.20783199072997149
1.267914553968907398485 469.84264424963612328 1.267914553968907398485 222.32717009174879763
1.596209851975117999245 522.29413752894924983 1.596209851975117999245 240.45498589947706591
2.009509145207687197399 578.80632871950615481 2.009509145207687197399 259.75079509607110140
2.529822128134725289783 639.51739632594808427 2.529822128134725289783 280.55108873323382568
3.184857364427983839050 704.76295083209697623 3.184857364427983839050 303.31357688903500502
4.009497869018204596614 774.81469223885198971 4.009497869018204596614 328.20870139187019277
5.009497869018190385759 847.42915734055281973 5.009497869018190385759 354.48892016286646367
6.009497869018190385759 910.50715180295708251 6.009497869018190385759 377.57813988696256047
7.009497869018204596614 966.52982597827372047 7.009497869018204596614 398.17067632921816767
8.009497869018190385759 1017.05228408025061526 8.009497869018190385759 416.65240365979775561
9.009497869018204596614 1063.12418751342102041 9.009497869018204596614 433.36377224431771538
10.009497869018190385759 1105.49556694181774219 10.009497869018190385759 448.52411636102181092
11.009497869018190385759 1144.72609321014965644 11.009497869018190385759 462.21140263479611576
12.009497869018204596614 1181.24815412629754974 12.009497869018204596614 474.72720051713940848
13.009497869018190385759 1215.40326286874437756 13.009497869018190385759 486.20086585246406230
14.009497869018204596614 1247.47084866783825419 14.009497869018204596614 496.72739597855166949
15.009497869018190385759 1277.67633670756549691 15.009497869018190385759 506.41954166054989628
16.009497869018190385759 1306.20676729611227529 16.009497869018190385759 515.37537058334510220
17.009497869018204596614 1333.22585079671989661 17.009497869018204596614 523.68624002436922638
18.009497869018190385759 1358.87529933493146928 18.009497869018190385759 531.44648298018000787
19.009497869018204596614 1383.27556785619935908 19.009497869018204596614 538.68032118169105615
20.009497869018190385759 1406.53535369417227230 20.009497869018190385759 545.42371279722908639
21.009497869018190385759 1428.74371155567337155 21.009497869018190385759 551.71001542059968870
22.009497869018204596614 1449.97684659547439878 22.009497869018204596614 557.59398947657120971
23.009497869018190385759 1470.30442801359322402 23.009497869018190385759 563.09582028038300905
24.009497869018204596614 1489.79085687759607026 24.009497869018204596614 568.27394975790298304
25.009497869018204596614 1508.49651526264256063 25.009497869018204596614 573.15560271114293300
26.009497869018190385759 1526.47455272340584997 26.009497869018190385759 577.76940050490679823
27.009497869018204596614 1543.77345104079017801 27.009497869018204596614 582.14659215590950225
28.009497869018190385759 1560.43531707004490272 28.009497869018190385759 586.29752936761849469
29.009497869018190385759 1576.49791889079415341 29.009497869018190385759 590.20481790887799889
30.009497869018190385759 1591.99630494427310623 30.009497869018190385759 593.94717706112760425
31.009497869018218807469 1606.96258098259454528 31.009497869018218807469 597.49778037005842179
32.009497869018190385759 1621.42631944324034521 32.009497869018190385759 600.87102364161273726
33.009497869018190385759 1635.41488922809071482 33.009497869018190385759 604.06192029386943432
34.009497869018218807469 1648.95460572935508026 34.009497869018218807469 607.13678713882302418
35.009497869018190385759 1662.06891353705373149 35.009497869018190385759 610.06747312049481025
36.009497869018190385759 1674.77948514089598575 36.009497869018190385759 612.89216412295456848
37.009497869018190385759 1687.10639668169642391 37.009497869018190385759 615.60831552083561746
38.009497869018218807469 1699.06876816177509681 38.009497869018218807469 618.22795880194803431
39.009497869018190385759 1710.68409253683557836 39.009497869018190385759 620.76937925768231707
40.009497869018190385759 1721.96875093180119620 40.009497869018190385759 623.22462830124482025
41.009497869018218807469 1732.93847452624413563 41.009497869018218807469 625.59163048993457323
42.009497869018190385759 1743.60766620507297375 42.009497869018190385759 627.86182571858182655
43.009497869018190385759 1753.98986262339121822 43.009497869018190385759 630.08248848305447609
44.009497869018218807469 1764.09815570181581279 44.009497869018218807469 632.17785910362465529
46.009497869018190385759 1783.54184985223309923 46.009497869018190385759 636.20185477900861315
48.009497869018218807469 1802.02257847060195672 48.009497869018218807469 639.93413018083651878
50.009497869018190385759 1819.60724180287866147 50.009497869018190385759 643.25825883039294695
52.009497869018190385759 1836.36233390030770352 52.009497869018190385759 646.27414132891180998
54.009497869018218807469 1852.35098796603892879 54.009497869018218807469 649.02458533316951161
56.009497869018190385759 1867.62321344976294313 56.009497869018190385759 651.53852946856386552
58.009497869018218807469 1882.22259797490323763 58.009497869018218807469 653.91559696605179397
60.009497869018190385759 1896.19214755157327090 60.009497869018190385759 656.31718782935786294
62.009497869018190385759 1909.56808617629712899 62.009497869018190385759 658.66282926004555520
64.009497869018218807469 1922.38821020497971404 64.009497869018218807469 660.95210149730905869
66.009497869018190385759 1934.70300803338341211 66.009497869018190385759 663.41490937314449639
68.009497869018190385759 1946.55610056241744132 68.009497869018190385759 665.92838130381585415
70.009497869018190385759 1957.97383379414236515 70.009497869018190385759 668.09094083880552262
72.009497869018190385759 1968.98358007018805438 72.009497869018190385759 669.86610905888619527
74.009497869018218807469 1979.61069078758418982 74.009497869018218807469 671.54416389576567781
76.009497869018190385759 1989.87554617447699457 76.009497869018190385759 673.12987180396726217
78.009497869018190385759 1999.80424918273638468 78.009497869018190385759 674.91947452233137028
80.009497869018218807469 2009.41299463744758214 80.009497869018218807469 676.24695864050966065
82.009497869018190385759 2018.70168119423806274 82.009497869018190385759 677.75634499190971383
84.009497869018218807469 2027.67482809007333344 84.009497869018218807469 679.07187456266012759
86.009497869018190385759 2036.33984585655593946 86.009497869018190385759 679.81511798537633240
88.009497869018190385759 2044.71760964771328872 88.009497869018190385759 680.71379414653222284
91.009497869018218807469 2056.76501945727841303 91.009497869018218807469 681.77178149006363128
94.009497869018218807469 2068.23043488835310200 94.009497869018218807469 683.30084939649464104
97.009497869018218807469 2079.19236482606311256 97.009497869018218807469 685.68099965234148385
99.504748934509137825444 2087.98322237548381963 99.504748934509137825444 686.17253751068483325
nan nan nan nan

