Time Pressure difference Time.1 Pressure.1 difference.1
(hr) (psi) (hr) (psi)
0.000200000000020850166 0.36131839359390433 0.000200000000020850166 0.29095062236000979
0.000399999999999067768 0.69317797509570689 0.000399999999999067768 0.66659648568413821
0.000600000000019917934 1.00800614385739706 0.000600000000019917934 0.93650494749509072
0.000799999999998135536 1.31008587521356956 0.000799999999998135536 1.19528669888168881
0.001007140329434719206 1.61207393004411115 0.001007140329434719206 1.45284194427333091
0.001267914553977789183 1.97913736633253201 0.001267914553977789183 1.76267644894826203
0.001596209851982166583 2.42380582224920182 0.001596209851982166583 2.13118951596616535
0.002009509145224797066 2.96057026378324872 0.002009509145224797066 2.56730814782109773
0.002529822128153114136 3.60607044274671518 0.002529822128153114136 3.08075830264178441
0.003184857364431081805 4.37927493642396826 0.003184857364431081805 3.68202632435729216
0.004009497869034817086 5.30165064898254634 0.004009497869034817086 4.38231159051087715
0.005047658755856332391 6.39732076726837651 0.005047658755856332391 5.19348179716389602
0.006354625877790454069 7.69321327738742688 0.006354625877790454069 6.12804636281194259
0.008000000000009777068 9.21920611723137640 0.008000000000009777068 7.19916645540932620
0.010071403294361402914 11.00827952707441426 0.010071403294361402914 8.42072111208698892
0.012679145539692626699 13.09669054837342905 0.012679145539692626699 9.80744582066926718
0.015962098519750611558 15.52418764089100378 0.015962098519750611558 11.37514912524165744
0.020095091452091651263 18.33428274740652242 0.020095091452091651263 13.14099434334975669
0.025298221281360611101 21.57459257413770004 0.025298221281360611101 15.12382721346394732
0.031848573644296607199 25.29725722395140863 0.031848573644296607199 17.34457842300149721
0.040094978690191851456 29.55946077154453633 0.040094978690191851456 19.82686743716059752
0.050476587558435426217 34.42411938976696462 0.050476587558435426217 22.59791224599810988
0.063546258777947173257 39.96080870661523221 0.063546258777947173257 25.68943830277459739
0.080000000000012505552 46.24685328446015831 0.080000000000012505552 29.13750919023761554
0.100714032943542974863 53.36815204787354361 0.100714032943542974863 32.97976718346684066
0.126791455396883634421 61.41896486791488030 0.126791455396883634421 37.24926948633532930
0.159620985197506115583 70.49985828489518269 0.159620985197506115583 41.96619105157523677
0.200950914520774404082 80.71362021696666034 0.200950914520774404082 47.13069863761435840
0.252982212813464002465 92.15986193224915723 0.252982212813464002465 52.72115575326610326
0.318485736442809752589 104.93002772634751807 0.318485736442809752589 58.69637016966319720
0.400949786901833249431 119.10293360137650609 0.400949786901833249431 65.00982982171728963
0.504765875584169521062 134.74618609877370545 0.504765875584169521062 71.61804286393108043
0.635462587779443310865 151.91537905680706899 0.635462587779443310865 78.49100781823281636
0.800000000000011368684 170.66006170140818199 0.800000000000011368684 85.62621930118008606
1.007140329435344483500 191.02900201554930959 1.007140329435344483500 93.06608718452824291
1.267914553968907398485 213.08356542025748581 1.267914553968907398485 100.83006868949733814
1.596209851975117999245 236.87142575256572741 1.596209851975117999245 109.05141614032622499
2.009509145207687197399 262.50089837701546003 2.009509145207687197399 117.80247326892238391
2.529822128134725289783 290.03465016472574689 2.529822128134725289783 127.23584587619900788
3.184857364427983839050 319.62488756047213201 3.184857364427983839050 137.55911515249192689
4.009497869018204596614 351.39483225480324791 4.009497869018204596614 148.84958006786226292
5.009497869018190385759 384.32702628684222645 5.009497869018190385759 160.76821449639857065
6.009497869018190385759 412.93422940922835096 6.009497869018190385759 171.23966344169286913
7.009497869018204596614 438.34169572535802217 7.009497869018204596614 180.57881377184259009
8.009497869018190385759 461.25469785047982896 8.009497869018190385759 188.96066757528853941
9.009497869018204596614 482.14927940749515756 9.009497869018204596614 196.53962628545113489
10.009497869018190385759 501.36559514826103623 10.009497869018190385759 203.41516263133667053
11.009497869018190385759 519.15746762488481636 11.009497869018190385759 209.62263612451317840
12.009497869018204596614 535.72099384319415094 12.009497869018204596614 215.29881488242099863
13.009497869018190385759 551.21105724469805409 13.009497869018190385759 220.50236451337099197
14.009497869018204596614 565.75438488879433407 14.009497869018204596614 225.27636831703327402
15.009497869018190385759 579.45321185892396443 15.009497869018190385759 229.67196114746064950
16.009497869018190385759 592.39236488640585776 16.009497869018190385759 233.73361877160158429
17.009497869018204596614 604.64609007963917975 17.009497869018204596614 237.50277364485481257
18.009497869018190385759 616.27865688147608125 18.009497869018190385759 241.02220777410977348
19.009497869018204596614 627.34469415450166707 19.009497869018204596614 244.30290622606273132
20.009497869018190385759 637.89349843594857248 20.009497869018190385759 247.36117678972922818
21.009497869018190385759 647.96545791679830018 21.009497869018190385759 250.21214783863817388
22.009497869018204596614 657.59513324470810858 22.009497869018204596614 252.88065438233229543
23.009497869018190385759 666.81412087377043463 23.009497869018190385759 255.37585088772300423
24.009497869018204596614 675.65162804871249591 24.009497869018204596614 257.72424200287997564
25.009497869018204596614 684.13503931629702493 25.009497869018204596614 259.93817475068738077
26.009497869018190385759 692.28845912244594274 26.009497869018190385759 262.03062952476051350
27.009497869018204596614 700.13387497906251156 27.009497869018204596614 264.01577841437023153
28.009497869018190385759 707.69038323458380546 28.009497869018190385759 265.89831613573682034
29.009497869018190385759 714.97511251103617269 29.009497869018190385759 267.67035403754749723
30.009497869018190385759 722.00395801698016385 30.009497869018190385759 269.36759297701843252
31.009497869018218807469 728.79148038928940423 31.009497869018218807469 270.97786659036449919
32.009497869018190385759 735.35109135313166462 32.009497869018190385759 272.50770367971728092
33.009497869018190385759 741.69520328372561835 33.009497869018190385759 273.95484272482531196
34.009497869018218807469 747.83575076739771248 34.009497869018218807469 275.34935980098737218
35.009497869018190385759 753.78336642102999576 35.009497869018190385759 276.67848780957649524
36.009497869018190385759 759.54787917657540675 36.009497869018190385759 277.95954485576248771
37.009497869018190385759 765.13839398803690983 37.009497869018190385759 279.19137689818182935
38.009497869018218807469 770.56358218041066266 38.009497869018218807469 280.37944047074262244
39.009497869018190385759 775.83137717867748506 39.009497869018190385759 281.53202833939951688
40.009497869018190385759 780.94920816907040262 40.009497869018190385759 282.64553565211383557
41.009497869018218807469 785.92420957387400904 41.009497869018218807469 283.71902115177311998
42.009497869018190385759 790.76291340568104715 42.009497869018190385759 284.74860264983573188
43.009497869018190385759 795.47145882356619495 43.009497869018190385759 285.75572012893462670
44.009497869018218807469 800.05578329011927963 44.009497869018218807469 286.70601497375650979
46.009497869018190385759 808.87390936960434829 46.009497869018190385759 288.53098202653632143
48.009497869018218807469 817.25531023596306568 48.009497869018218807469 290.22364777215403819
50.009497869018190385759 825.23032656412237884 50.009497869018190385759 291.73121034279796504
52.009497869018190385759 832.82911481112546426 52.009497869018190385759 293.09897677170368979
54.009497869018218807469 840.08030721840088972 54.009497869018218807469 294.34636123560642318
56.009497869018190385759 847.00658412792074614 56.009497869018190385759 295.48648801250357110
58.009497869018218807469 853.62771344777286231 58.009497869018218807469 296.56453834235026079
60.009497869018190385759 859.96319931212201482 60.009497869018190385759 297.65371053669463208
62.009497869018190385759 866.02947006868680546 62.009497869018190385759 298.71750848131648581
64.009497869018218807469 871.84366716338513470 64.009497869018218807469 299.75574180582191275
66.009497869018190385759 877.42868815035137686 66.009497869018190385759 300.87267720866555010
68.009497869018190385759 882.80431602971611937 68.009497869018190385759 302.01258983074461639
70.009497869018190385759 887.98249927001961623 70.009497869018190385759 302.99335626774001184
72.009497869018190385759 892.97565180647961824 72.009497869018190385759 303.79843255910054722
74.009497869018218807469 897.79527103324244308 74.009497869018218807469 304.55946587948807291
76.009497869018190385759 902.45059981434019392 76.009497869018190385759 305.27861791672881964
78.009497869018190385759 906.95347638991688655 78.009497869018190385759 306.09024055801506847
80.009497869018218807469 911.31124545529314673 80.009497869018218807469 306.69228265104806042
82.009497869018190385759 915.52386104865445304 82.009497869018190385759 307.37682124985195742
84.009497869018218807469 919.59337273944174740 84.009497869018218807469 307.97344170306553224
86.009497869018190385759 923.52314136029713154 86.009497869018190385759 308.31051829759314842
88.009497869018190385759 927.32263423459664864 88.009497869018190385759 308.71808692279341813
91.009497869018218807469 932.78638910597703671 91.009497869018218807469 309.19790653493021182
94.009497869018218807469 937.98619723105571211 94.009497869018218807469 309.89137113474828311
97.009497869018218807469 942.95766404787661941 97.009497869018218807469 310.97081956063937014
99.504748934509137825444 946.94450366888145254 99.504748934509137825444 311.19374236400074096
nan nan nan nan

