Time Pressure difference Time.1 Pressure.1 difference.1
(hr) (psi) (hr) (psi)
0.000200000000020850166 0.14063738715456320 0.000200000000020850166 0.11324786129126674
0.000399999999999067768 0.26980840438507847 0.000399999999999067768 0.25946198614620697
0.000600000000019917934 0.39235021748486681 0.000600000000019917934 0.36451952407676408
0.000799999999998135536 0.50992990588022991 0.000799999999998135536 0.46524616850881467
0.001007140329434719206 0.62747391065899150 0.001007140329434719206 0.56549541516229029
0.001267914553977789183 0.77034746350003314 0.001267914553977789183 0.68609352464238771
0.001596209851982166583 0.94342752501625249 0.001596209851982166583 0.82953132298476007
0.002009509145224797066 1.15235447120341794 0.002009509145224797066 0.99928350267156607
0.002529822128153114136 1.40360505846041916 0.002529822128153114136 1.19913573684607755
0.003184857364431081805 1.70456250113396690 0.003184857364431081805 1.43316966662354228
0.004009497869034817086 2.06358244722302020 0.004009497869034817086 1.70574447001251550
0.005047658755856332391 2.49005446013758736 0.005047658755856332391 2.02147945728118517
0.006354625877790454069 2.99445982639510611 0.006354625877790454069 2.38524371885847897
0.008000000000009777068 3.58842805391200548 0.008000000000009777068 2.80216002819244991
0.010071403294361402914 4.28479617202896446 0.010071403294361402914 3.27763057778955247
0.012679145539692626699 5.09767665236895429 0.012679145539692626699 3.81739091984642265
0.015962098519750611558 6.04254094510871465 0.015962098519750611558 4.42759427649157722
0.020095091452091651263 7.13632537580212389 0.020095091452091651263 5.11492119368479248
0.025298221281360611101 8.39756398330825604 0.025298221281360611101 5.88670707273545002
0.031848573644296607199 9.84655146605147991 0.031848573644296607199 6.75109884787635828
0.040094978690191851456 11.50554580755770750 0.040094978690191851456 7.71729001694863825
0.050476587558435426217 13.39903611858424348 0.050476587558435426217 8.79587474585433782
0.063546258777947173257 15.55410359594961456 0.063546258777947173257 9.99920165822282314
0.080000000000012505552 18.00084558484163466 0.080000000000012505552 11.34130792497861684
0.100714032943542974863 20.77269686335450416 0.100714032943542974863 12.83684519770551979
0.126791455396883634421 23.90634657384678619 0.126791455396883634421 14.49868046259014953
0.159620985197506115583 27.44093862848921717 0.159620985197506115583 16.33466649626530653
0.200950914520774404082 31.41648157513402140 0.200950914520774404082 18.34486820677328822
0.252982212813464002465 35.87174750157938519 0.252982212813464002465 20.52086393708908574
0.318485736442809752589 40.84232963261559490 0.318485736442809752589 22.84662027307801324
0.400949786901833249431 46.35890583241983620 0.400949786901833249431 25.30403313971604362
0.504765875584169521062 52.44779086246263944 0.504765875584169521062 27.87617403399388394
0.635462587779443310865 59.13062373225616142 0.635462587779443310865 30.55136536196225450
0.800000000000011368684 66.42669068294976853 0.800000000000011368684 33.32863194331646639
1.007140329435344483500 74.35497386940635067 1.007140329435344483500 36.22448114014763831
1.267914553968907398485 82.93935879711885661 1.267914553968907398485 39.24648636361386878
1.596209851975117999245 92.19840174219949347 1.596209851975117999245 42.44651394281849122
2.009509145207687197399 102.17426272231658402 2.009509145207687197399 45.85272251461160664
2.529822128134725289783 112.89133381152885249 2.529822128134725289783 49.52451143835489233
3.184857364427983839050 124.40885892622932829 3.184857364427983839050 53.54267836163247551
4.009497869018204596614 136.77480013230439226 4.009497869018204596614 57.93731066823623621
5.009497869018190385759 149.59312824415391674 5.009497869018190385759 62.57644787851540258
6.009497869018190385759 160.72802304127316120 6.009497869018190385759 66.65229136032766633
7.009497869018204596614 170.61747162808964617 7.009497869018204596614 70.28740577454742322
8.009497869018190385759 179.53599005360291585 8.009497869018190385759 73.54990787609574454
9.009497869018204596614 187.66887065964615999 9.009497869018204596614 76.49989594547579941
10.009497869018190385759 195.14851322541008471 10.009497869018190385759 79.17608814635877934
11.009497869018190385759 202.07371410658041100 11.009497869018190385759 81.59224760125978548
12.009497869018204596614 208.52080091619149016 12.009497869018204596614 83.80160910537297525
13.009497869018190385759 214.55005954866098250 13.009497869018190385759 85.82700730541148459
14.009497869018204596614 220.21081647845409179 14.009497869018204596614 87.68521168447672665
15.009497869018190385759 225.54286507138243678 15.009497869018190385759 89.39612566402195171
16.009497869018190385759 230.57922277152027846 16.009497869018190385759 90.97706072269377842
17.009497869018204596614 235.34878868524256745 17.009497869018204596614 92.44414377894970869
18.009497869018190385759 239.87657866194095391 18.009497869018190385759 93.81402704251063085
19.009497869018204596614 244.18385610982670642 19.009497869018204596614 95.09098627432669559
20.009497869018190385759 248.28980891502760642 20.009497869018190385759 96.28136901960475313
21.009497869018190385759 252.21015753283245431 21.009497869018190385759 97.39106375499787305
22.009497869018204596614 255.95835414079738257 22.009497869018204596614 98.42973710947924815
23.009497869018190385759 259.54669715169535493 23.009497869018190385759 99.40095231240563578
24.009497869018204596614 262.98655501689017910 24.009497869018204596614 100.31502587275657845
25.009497869018204596614 266.28858673180923233 25.009497869018204596614 101.17676367107499402
26.009497869018190385759 269.46217456525846501 26.009497869018190385759 101.99121811729810361
27.009497869018204596614 272.51587680344465525 27.009497869018204596614 102.76390546977556539
28.009497869018190385759 275.45712639358538354 28.009497869018190385759 103.49665307146692328
29.009497869018190385759 278.29259037696641599 29.009497869018190385759 104.18639039142635738
30.009497869018190385759 281.02845570847267709 30.009497869018190385759 104.84701341548543496
31.009497869018218807469 283.67038988237351305 31.009497869018218807469 105.47378658175679789
32.009497869018190385759 286.22361319749222730 32.009497869018190385759 106.06925112171191472
33.009497869018190385759 288.69295697171924076 33.009497869018190385759 106.63252677488023323
34.009497869018218807469 291.08306655128524199 34.009497869018218807469 107.17532017098471897
35.009497869018190385759 293.39808051170524550 35.009497869018190385759 107.69266192173992636
36.009497869018190385759 295.64182460703142397 36.009497869018190385759 108.19129282170464990
37.009497869018190385759 297.81784279451539987 37.009497869018190385759 108.67076367879541010
38.009497869018218807469 299.92951024827573292 38.009497869018218807469 109.13319836128286511
39.009497869018190385759 301.97991492669024183 39.009497869018190385759 109.58182469525283409
40.009497869018190385759 303.97194852129445053 40.009497869018190385759 110.01523954989109200
41.009497869018218807469 305.90838799148718863 41.009497869018218807469 110.43307655596967720
42.009497869018190385759 307.79177581836034960 42.009497869018190385759 110.83382463389051509
43.009497869018190385759 309.62450157107747373 43.009497869018190385759 111.22582895287723659
44.009497869018218807469 311.40887631168203598 44.009497869018218807469 111.59571597322201342
46.009497869018190385759 314.84119039645054272 46.009497869018190385759 112.30605511591888046
48.009497869018218807469 318.10351619950529312 48.009497869018218807469 112.96489809765000700
50.009497869018190385759 321.20766334172878942 50.009497869018190385759 113.55169263860456397
52.009497869018190385759 324.16536974014820771 52.009497869018190385759 114.08407377449334774
54.009497869018218807469 326.98778003531958802 54.009497869018218807469 114.56959816209939618
56.009497869018190385759 329.68372218643708038 56.009497869018190385759 115.01337421604694100
58.009497869018218807469 332.26089053453688393 58.009497869018218807469 115.43298800903073698
60.009497869018190385759 334.72687675088809556 60.009497869018190385759 115.85693080931386589
62.009497869018190385759 337.08807530623835191 62.009497869018190385759 116.27099709003621797
64.009497869018218807469 339.35115823336724361 64.009497869018218807469 116.67511275257662362
66.009497869018190385759 341.52503803781792158 66.009497869018190385759 117.10986193629217667
68.009497869018190385759 343.61741493496197108 68.009497869018190385759 117.55355463391303772
70.009497869018190385759 345.63293967445895305 70.009497869018190385759 117.93530223257788236
72.009497869018190385759 347.57644418140409925 72.009497869018190385759 118.24866526109916265
74.009497869018218807469 349.45240363198672640 74.009497869018218807469 118.54488526986284569
76.009497869018190385759 351.26441566272455930 76.009497869018190385759 118.82480366116980974
78.009497869018190385759 353.01708811864267545 78.009497869018190385759 119.14071475135990852
80.009497869018218807469 354.71327980454475437 80.009497869018218807469 119.37504997597729073
82.009497869018190385759 356.35297283053211004 82.009497869018190385759 119.64149564176433671
84.009497869018218807469 357.93696495862332085 84.009497869018218807469 119.87372058007518660
86.009497869018190385759 359.46656433899767080 86.009497869018190385759 120.00492223591618313
88.009497869018190385759 360.94545597537097592 88.009497869018190385759 120.16356178361318996
91.009497869018218807469 363.07213489011110141 91.009497869018218807469 120.35032386866849663
94.009497869018218807469 365.09607676902379580 94.009497869018218807469 120.62024383712770259
97.009497869018218807469 367.03114045755864936 97.009497869018218807469 121.04040181656357333
99.504748934509137825444 368.58295380900557348 99.504748934509137825444 121.12717094085328995
nan nan nan nan

