Time Pressure difference Time.1 Pressure.1 difference.1
(hr) (psi) (hr) (psi)
0.000200000000020850166 0.03889970282998556 0.000200000000020850166 0.03132387652737165
0.000399999999999067768 0.07462785653204297 0.000399999999999067768 0.07176608127448279
0.000600000000019917934 0.10852240058092059 0.000600000000019917934 0.10082454921272199
0.000799999999998135536 0.14104444205197847 0.000799999999998135536 0.12868511043860834
0.001007140329434719206 0.17355661358652957 0.001007140329434719206 0.15641362547042073
0.001267914553977789183 0.21307483032979641 0.001267914553977789183 0.18977054936917107
0.001596209851982166583 0.26094803883428258 0.001596209851982166583 0.22944483401706128
0.002009509145224797066 0.31873634309881771 0.002009509145224797066 0.27639756456873099
0.002529822128153114136 0.38823118638266912 0.002529822128153114136 0.33167584210636192
0.003184857364431081805 0.47147473435620363 0.003184857364431081805 0.39640863119374575
0.004009497869034817086 0.57077812369998426 0.004009497869034817086 0.47180166191835532
0.005047658755856332391 0.68873846769763059 0.005047658755856332391 0.55913261584373197
0.006354625877790454069 0.82825484559864637 0.006354625877790454069 0.65974826266298359
0.008000000000009777068 0.99254392980544837 0.008000000000009777068 0.77506553971280534
0.010071403294361402914 1.18515638800801160 0.010071403294361402914 0.90657867045242946
0.012679145539692626699 1.40999566980417868 0.012679145539692626699 1.05587408421284046
0.015962098519750611558 1.67134111247687867 0.015962098519750611558 1.22465373605086159
0.020095091452091651263 1.97387723160484296 0.020095091452091651263 1.41476543655111264
0.025298221281360611101 2.32273046346824108 0.025298221281360611101 1.62823812650129440
0.031848573644296607199 2.72351423529083503 0.031848573644296607199 1.86732521324239720
0.040094978690191851456 3.18238501060106849 0.040094978690191851456 2.13456957915600620
0.050476587558435426217 3.70611637322542897 0.050476587558435426217 2.43290152544907201
0.063546258777947173257 4.30219886696478682 0.063546258777947173257 2.76573662887014304
0.080000000000012505552 4.97895728942428129 0.080000000000012505552 3.13695751116429777
0.100714032943542974863 5.74563955794911863 0.100714032943542974863 3.55061675681216515
0.126791455396883634421 6.61239373319166379 0.126791455396883634421 4.01027331943982812
0.159620985197506115583 7.59004685468850759 0.159620985197506115583 4.51809924364785154
0.200950914520774404082 8.68966511652643092 0.200950914520774404082 5.07411248272452653
0.252982212813464002465 9.92197271320280727 0.252982212813464002465 5.67598364217357698
0.318485736442809752589 11.29681457923410193 0.318485736442809752589 6.31927794787264219
0.400949786901833249431 12.82267608130761438 0.400949786901833249431 6.99898788970869301
0.504765875584169521062 14.50683577046839012 0.504765875584169521062 7.71043111578554186
0.635462587779443310865 16.35527890466659784 0.635462587779443310865 8.45037765330870982
0.800000000000011368684 18.37333997613504266 0.800000000000011368684 9.21855777155561995
1.007140329435344483500 20.56626936813367124 1.007140329435344483500 10.01953733663658141
1.267914553968907398485 22.94067370984138776 1.267914553968907398485 10.85541112185064527
1.596209851975117999245 25.50168558826794651 1.596209851975117999245 11.74052513312000734
2.009509145207687197399 28.26096628489607809 2.009509145207687197399 12.68266792957342304
2.529822128134725289783 31.22526254361436671 2.529822128134725289783 13.69826912124709928
3.184857364427983839050 34.41096097959534461 3.184857364427983839050 14.80967699364302526
4.009497869018204596614 37.83132769616928925 4.009497869018204596614 16.02521358908661853
5.009497869018190385759 41.37682270582980948 5.009497869018190385759 17.30837920044043088
6.009497869018190385759 44.45668722418194108 6.009497869018190385759 18.43574016349488787
7.009497869018204596614 47.19206662053543511 7.009497869018204596614 19.44119734189609616
8.009497869018190385759 49.65889086589017154 8.009497869018190385759 20.34359154019669802
9.009497869018204596614 51.90841103351914398 9.009497869018204596614 21.15954568704649930
10.009497869018190385759 53.97724833894321961 10.009497869018190385759 21.89976906175881055
11.009497869018190385759 55.89272943373501334 11.009497869018190385759 22.56806848545483035
12.009497869018204596614 57.67596621086148190 12.009497869018204596614 23.17916847595422780
13.009497869018190385759 59.34363349218281769 13.009497869018190385759 23.73938499936913615
14.009497869018204596614 60.90937477063622651 14.009497869018204596614 24.25335642336590070
15.009497869018190385759 62.38419672187173148 15.009497869018190385759 24.72658794962309514
16.009497869018190385759 63.77723183042049726 16.009497869018190385759 25.16386785946849614
17.009497869018204596614 65.09647346613091656 17.009497869018204596614 25.56965678992225577
18.009497869018190385759 66.34884090649431698 18.009497869018190385759 25.94856067133272504
19.009497869018204596614 67.54021551973930571 19.009497869018204596614 26.30176216098398001
20.009497869018190385759 68.67590459351826837 20.009497869018190385759 26.63101696286940268
21.009497869018190385759 69.76025633886855815 21.009497869018190385759 26.93795380457388333
22.009497869018204596614 70.79699157085883598 22.009497869018204596614 27.22524643453681392
23.009497869018190385759 71.78951197812850182 23.009497869018190385759 27.49388042683560229
24.009497869018204596614 72.74096202594834892 24.009497869018204596614 27.74670928395395109
25.009497869018204596614 73.65428994709616006 25.009497869018204596614 27.98506229199946560
26.009497869018190385759 74.53209083719916350 26.009497869018190385759 28.21033692606117427
27.009497869018204596614 75.37673188180384898 27.009497869018204596614 28.42405895972515850
28.009497869018190385759 76.19026900248107381 28.009497869018190385759 28.62673382827808410
29.009497869018190385759 76.97454627448009035 29.009497869018190385759 28.81751223592643996
30.009497869018190385759 77.73127498319456663 30.009497869018190385759 29.00023775321937691
31.009497869018218807469 78.46202273342245803 31.009497869018218807469 29.17360054389017776
32.009497869018190385759 79.16823343760422915 32.009497869018190385759 29.33830350175010437
33.009497869018190385759 79.85124341770959688 33.009497869018190385759 29.49410315049878761
34.009497869018218807469 80.51233755673847270 34.009497869018218807469 29.64423749410215692
35.009497869018190385759 81.15266056706741438 35.009497869018190385759 29.78733202090679200
36.009497869018190385759 81.77327063598741574 36.009497869018190385759 29.92525120600341282
37.009497869018190385759 82.37514800699362638 37.009497869018190385759 30.05787080477320217
38.009497869018218807469 82.95922623888478142 38.009497869018218807469 30.18577827014206960
39.009497869018190385759 83.52635944780793409 39.009497869018190385759 30.30986640506992913
40.009497869018190385759 84.07734746333677833 40.009497869018190385759 30.42974710954434414
41.009497869018218807469 84.61295838062412145 41.009497869018218807469 30.54531904739586778
42.009497869018190385759 85.13389543912093416 42.009497869018190385759 30.65616426043779796
43.009497869018190385759 85.64081958348951673 43.009497869018190385759 30.76459098696604499
44.009497869018218807469 86.13437004365673033 44.009497869018218807469 30.86690016280608617
46.009497869018190385759 87.08373351391185224 46.009497869018190385759 31.06337694695628571
48.009497869018218807469 87.98607894879934577 48.009497869018218807469 31.24561011211596195
50.009497869018190385759 88.84467283920159275 50.009497869018190385759 31.40791498514594693
52.009497869018190385759 89.66276184301970886 52.009497869018190385759 31.55516934188114320
54.009497869018218807469 90.44342852040753655 54.009497869018218807469 31.68946332143174516
56.009497869018190385759 91.18911464731237970 56.009497869018190385759 31.81220988954489570
58.009497869018218807469 91.90194844572296518 58.009497869018218807469 31.92827327909360946
60.009497869018190385759 92.58402973960734528 60.009497869018190385759 32.04553405364000440
62.009497869018190385759 93.23712721236380219 62.009497869018190385759 32.16006302490363566
64.009497869018218807469 93.86308631986754847 64.009497869018218807469 32.27183969752119452
66.009497869018190385759 94.46437222322623484 66.009497869018190385759 32.39208947174038400
68.009497869018190385759 95.04311476924480928 68.009497869018190385759 32.51481298384828733
70.009497869018190385759 95.60060033548865022 70.009497869018190385759 32.62040274518111715
72.009497869018190385759 96.13816541187772202 72.009497869018190385759 32.70707762541040609
74.009497869018218807469 96.65704781310272153 74.009497869018218807469 32.78901081932376371
76.009497869018190385759 97.15824263011529638 76.009497869018190385759 32.86643505521718112
78.009497869018190385759 97.64302437324157324 78.009497869018190385759 32.95381471846125265
80.009497869018218807469 98.11218377572512850 80.009497869018218807469 33.01863084441924912
82.009497869018190385759 98.56571588929611494 82.009497869018190385759 33.09232858176459757
84.009497869018218807469 99.00384137153410791 84.009497869018218807469 33.15656101151015633
86.009497869018190385759 99.42692205121211657 86.009497869018190385759 33.19285083121086188
88.009497869018190385759 99.83597718467706272 88.009497869018190385759 33.23672985504195054
91.009497869018218807469 100.42420752279669216 91.009497869018218807469 33.28838745303597335
94.009497869018218807469 100.98402123398528829 94.009497869018218807469 33.36304616771617049
97.009497869018218807469 101.51925161592046720 97.009497869018218807469 33.47926007692183958
99.504748934509137825444 101.94847658546963487 99.504748934509137825444 33.50326004747005726
nan nan nan nan

