Time Pressure difference Time.1 Pressure.1 difference.1
(hr) (psi) (hr) (psi)
0.000200000000020850166 0.61865488923842427 0.000200000000020850166 0.49817011323339144
0.000399999999999067768 1.18686994907691434 0.000399999999999067768 1.14135671565379360
0.000600000000019917934 1.72592356308502559 0.000600000000019917934 1.60349811921002061
0.000799999999998135536 2.24314910724973471 0.000799999999998135536 2.04658819870632813
0.001007140329434719206 2.76021768146269109 0.001007140329434719206 2.48757823584688342
0.001267914553977789183 3.38870932082195431 0.001267914553977789183 3.01808162169816274
0.001596209851982166583 4.15007746376830244 0.001596209851982166583 3.64905534100210938
0.002009509145224797066 5.06913376428312024 0.002009509145224797066 4.39578434419885689
0.002529822128153114136 6.17436906035514088 0.002529822128153114136 5.27492156580694793
0.003184857364431081805 7.49826164062654588 0.003184857364431081805 6.30442188456207120
0.004009497869034817086 9.07756746730551889 0.004009497869034817086 7.50346104627845900
0.005047658755856332391 10.95359063049885506 0.005047658755856332391 8.89235910197627710
0.006354625877790454069 13.17243764057847244 0.006354625877790454069 10.49253486965937299
0.008000000000009777068 15.78526596055972853 0.008000000000009777068 12.32652310274019314
0.010071403294361402914 18.84854486312741173 0.010071403294361402914 14.41808770123382821
0.012679145539692626699 22.42435421015492025 0.012679145539692626699 16.79245899315420942
0.015962098519750611558 26.58075192343035908 0.015962098519750611558 19.47670460988581809
0.020095091452091651263 31.39223981802317454 0.020095091452091651263 22.50021184668788621
0.025298221281360611101 36.94034794785067533 0.025298221281360611101 25.89524866570328143
0.031848573644296607199 43.31435139587539851 0.031848573644296607199 29.69765291060504708
0.040094978690191851456 50.61216161090545285 0.040094978690191851456 33.94786619157724772
0.050476587558435426217 58.94150462802749502 0.050476587558435426217 38.69249156819966373
0.063546258777947173257 68.42150890345919834 0.063546258777947173257 43.98584984760784522
0.080000000000012505552 79.18457073757463149 0.080000000000012505552 49.88968964870912259
0.100714032943542974863 91.37776758507541786 0.100714032943542974863 56.46846265160885991
0.126791455396883634421 105.16249264133665520 0.126791455396883634421 63.77876990724495698
0.159620985197506115583 120.71093747744990310 0.159620985197506115583 71.85515527878409614
0.200950914520774404082 138.19909714167994252 0.200950914520774404082 80.69790429256123332
0.252982212813464002465 157.79752757343698022 0.252982212813464002465 90.26997061687592350
0.318485736442809752589 179.66280109666541875 0.318485736442809752589 100.50082428635913345
0.400949786901833249431 203.92986767771918721 0.400949786901833249431 111.31082663055940429
0.504765875584169521062 230.71448427264149927 0.504765875584169521062 122.62551024528158905
0.635462587779443310865 260.11183950306298129 0.635462587779443310865 134.39350614012121810
0.800000000000011368684 292.20677231276306429 0.800000000000011368684 146.61052455916342296
1.007140329435344483500 327.08278398935664200 1.007140329435344483500 159.34918033458563968
1.267914553968907398485 364.84494534690054479 1.267914553968907398485 172.64278841866314451
1.596209851975117999245 405.57488425956904621 1.596209851975117999245 186.71950548250475777
2.009509145207687197399 449.45805995402025701 2.009509145207687197399 201.70319957225424901
2.529822128134725289783 496.60177160709764621 2.529822128134725289783 217.85516467829518206
3.184857364427983839050 547.26662942548750834 3.184857364427983839050 235.53082449505350837
4.009497869018204596614 601.66361547561552925 4.009497869018204596614 254.86253150335832629
5.009497869018190385759 658.05062264848561426 5.009497869018190385759 275.26979997623527652
6.009497869018190385759 707.03231412304739933 6.009497869018190385759 293.19917529250517418
7.009497869018204596614 750.53536721505395235 7.009497869018204596614 309.18981157207832666
8.009497869018190385759 789.76736050175327364 8.009497869018190385759 323.54135007197436380
9.009497869018204596614 825.54338316769872108 9.009497869018204596614 336.51815929206645706
10.009497869018190385759 858.44585339050081529 10.009497869018190385759 348.29055796297183178
11.009497869018190385759 888.90937003267026739 11.009497869018190385759 358.91908918213744073
12.009497869018204596614 917.26969339197012232 12.009497869018204596614 368.63792941565662886
13.009497869018190385759 943.79201726990754651 13.009497869018190385759 377.54752681688989924
14.009497869018204596614 968.69332567915705567 14.009497869018204596614 385.72164927160770276
15.009497869018190385759 992.14866709592172356 15.009497869018190385759 393.24785066035184400
16.009497869018190385759 1014.30328314918767774 16.009497869018190385759 400.20228307270087953
17.009497869018204596614 1035.28429916327468163 17.009497869018204596614 406.65588779357130989
18.009497869018190385759 1055.20175826289982979 18.009497869018190385759 412.68191683061860431
19.009497869018204596614 1074.14919682354616270 19.009497869018204596614 418.29917898334133497
20.009497869018190385759 1092.21102113153096980 20.009497869018190385759 423.53559669794219644
21.009497869018190385759 1109.45638446623638629 21.009497869018190385759 428.41707300735771469
22.009497869018204596614 1125.94446209808188542 22.009497869018204596614 432.98613079542201376
23.009497869018190385759 1141.72935395985132345 23.009497869018190385759 437.25844448063543268
24.009497869018204596614 1156.86106914344782126 24.009497869018204596614 441.27939572749841091
25.009497869018204596614 1171.38649588939483692 25.009497869018204596614 445.07012529776073961
26.009497869018190385759 1185.34690619930188404 26.009497869018190385759 448.65285842024218255
27.009497869018204596614 1198.77994742791861427 27.009497869018204596614 452.05186076332125822
28.009497869018190385759 1211.71831663561238202 28.009497869018190385759 455.27517069203798883
29.009497869018190385759 1224.19134171144287393 29.009497869018190385759 458.30928113675315672
30.009497869018190385759 1236.22623867503648398 30.009497869018190385759 461.21531965216200888
31.009497869018218807469 1247.84793847193009242 31.009497869018218807469 463.97245480379189075
32.009497869018190385759 1259.07940486343636621 32.009497869018190385759 466.59186530667955140
33.009497869018190385759 1269.94189050857380607 33.009497869018190385759 469.06967895120186540
34.009497869018218807469 1280.45582998889835835 34.009497869018218807469 471.45739245427853348
35.009497869018190385759 1290.63942863393731386 35.009497869018190385759 473.73314579403677271
36.009497869018190385759 1300.50951569156904952 36.009497869018190385759 475.92659129547735120
37.009497869018190385759 1310.08168080353311780 37.009497869018190385759 478.03575299129687437
38.009497869018218807469 1319.37077114534076827 38.009497869018218807469 480.06997364245177096
39.009497869018190385759 1328.39037044879137284 39.009497869018190385759 482.04345224986218454
40.009497869018190385759 1337.15319908037531604 40.009497869018190385759 483.95001653063798130
41.009497869018218807469 1345.67147270723353358 41.009497869018218807469 485.78805484993046093
42.009497869018190385759 1353.95637554140421344 42.009497869018190385759 487.55092006503969060
43.009497869018190385759 1362.01841914511214782 43.009497869018190385759 489.27532204271000182
44.009497869018218807469 1369.86776973277142133 44.009497869018218807469 490.90243143539680659
46.009497869018190385759 1384.96630030779056142 46.009497869018190385759 494.02716798332403414
48.009497869018218807469 1399.31706328186646715 48.009497869018218807469 496.92537620615189553
50.009497869018190385759 1412.97200842345591809 50.009497869018190385759 499.50664793684035203
52.009497869018190385759 1425.98277008033278435 52.009497869018190385759 501.84855857184049910
54.009497869018218807469 1438.39837281494283161 54.009497869018218807469 503.98434936200101220
56.009497869018190385759 1450.25765025629493721 56.009497869018190385759 505.93649189718524894
58.009497869018218807469 1461.59444931947882651 58.009497869018218807469 507.78234618866184746
60.009497869018190385759 1472.44216528183210357 60.009497869018190385759 509.64724350692853250
62.009497869018190385759 1482.82892701201672025 62.009497869018190385759 511.46869464606356814
64.009497869018218807469 1492.78408435635492424 64.009497869018218807469 513.24637365096202757
66.009497869018190385759 1502.34684285784805979 66.009497869018190385759 515.15880756017884323
68.009497869018190385759 1511.55107527241261778 68.009497869018190385759 517.11058341620253032
70.009497869018190385759 1520.41723995094457678 70.009497869018190385759 518.78986673586121015
72.009497869018190385759 1528.96659222351695462 72.009497869018190385759 520.16833069643098497
74.009497869018218807469 1537.21881810453714934 74.009497869018218807469 521.47138360732219553
76.009497869018190385759 1545.18974336741075604 76.009497869018190385759 522.70272674355010167
78.009497869018190385759 1552.89963762828438121 78.009497869018190385759 524.09239946475872785
80.009497869018218807469 1560.36107658701325818 80.009497869018218807469 525.12322516028302744
82.009497869018190385759 1567.57398154707493632 82.009497869018190385759 526.29530263691003711
84.009497869018218807469 1574.54186181266732092 84.009497869018218807469 527.31684531767120916
86.009497869018190385759 1581.27047185293122311 86.009497869018190385759 527.89399302714195983
88.009497869018190385759 1587.77602176399886957 88.009497869018190385759 528.59183827153253787
91.009497869018218807469 1597.13114656447828565 91.009497869018218807469 529.41339276270662140
94.009497869018218807469 1606.03433770203537279 94.009497869018218807469 530.60075347502447585
97.009497869018218807469 1614.54655935319669879 97.009497869018218807469 532.44900160796839828
99.504748934509137825444 1621.37288723429605852 99.504748934509137825444 532.83069344726425243
nan nan nan nan

