Time Pressure difference Time.1 Pressure.1 difference.1
(hr) (psi) (hr) (psi)
0.000200000000020850166 0.07929554807650904 0.000200000000020850166 0.06385251753656528
0.000399999999999067768 0.15212601523839531 0.000399999999999067768 0.14629239644413797
0.000600000000019917934 0.22121873964572278 0.000600000000019917934 0.20552696570285633
0.000799999999998135536 0.28751367033672537 0.000799999999998135536 0.26231964820177850
0.001007140329434719206 0.35378848154177178 0.001007140329434719206 0.31884315961278070
0.001267914553977789183 0.43434484644150806 0.001267914553977789183 0.38683996602177179
0.001596209851982166583 0.53193254070065299 0.001596209851982166583 0.46771446934247113
0.002009509145224797066 0.64973177631682066 0.002009509145224797066 0.56342580469779779
0.002529822128153114136 0.79139434147236387 0.002529822128153114136 0.67610844737066078
0.003184857364431081805 0.96108311234149191 0.003184857364431081805 0.80806374820263549
0.004009497869034817086 1.16350925215766043 0.004009497869034817086 0.96174954160280124
0.005047658755856332391 1.40396687646055462 0.005047658755856332391 1.13977033229683844
0.006354625877790454069 1.68836564679724077 0.006354625877790454069 1.34487145850531253
0.008000000000009777068 2.02326262614187558 0.008000000000009777068 1.57994129249148751
0.010071403294361402914 2.41589571401633130 0.010071403294361402914 1.84802575130687541
0.012679145539692626699 2.87422194229313321 0.012679145539692626699 2.15235871012617475
0.015962098519750611558 3.40696457543363707 0.015962098519750611558 2.49640953887291017
0.020095091452091651263 4.02367281827141099 0.020095091452091651263 2.88394492835419136
0.025298221281360611101 4.73479671399295299 0.025298221281360611101 3.31910079632956201
0.031848573644296607199 5.55177901809285679 0.031848573644296607199 3.80647062699411753
0.040094978690191851456 6.48716944468679291 0.040094978690191851456 4.35123798827955088
0.050476587558435426217 7.55477568388260501 0.050476587558435426217 4.95937618649233958
0.063546258777947173257 8.76986692112052602 0.063546258777947173257 5.63784774346606010
0.080000000000012505552 10.14941293613411233 0.080000000000012505552 6.39456723429645280
0.100714032943542974863 11.71226525274243535 0.100714032943542974863 7.23779569657864386
0.126791455396883634421 13.47911030227531448 0.126791455396883634421 8.17478792039657343
0.159620985197506115583 15.47201858840349331 0.159620985197506115583 9.20997153512831268
0.200950914520774404082 17.71354812215002994 0.200950914520774404082 10.34338313786153485
0.252982212813464002465 20.22555976152879964 0.252982212813464002465 11.57027434750767547
0.318485736442809752589 23.02812202690028442 0.318485736442809752589 12.88160504758653779
0.400949786901833249431 26.13853201189629161 0.400949786901833249431 14.26716762132925886
0.504765875584169521062 29.57162676287787306 0.504765875584169521062 15.71741727448591064
0.635462587779443310865 33.33960699797422222 0.635462587779443310865 17.22576983174467813
0.800000000000011368684 37.45334687442912269 0.800000000000011368684 18.79167545740184053
1.007140329435344483500 41.92354909658018158 1.007140329435344483500 20.42444149391302943
1.267914553968907398485 46.76368102390743786 1.267914553968907398485 22.12833805608016391
1.596209851975117999245 51.98420523762311518 1.596209851975117999245 23.93260892520616778
2.009509145207687197399 57.60889281151892050 2.009509145207687197399 25.85313077951505178
2.529822128134725289783 63.65149672352158916 2.529822128134725289783 27.92339474715754477
3.184857364427983839050 70.14542045840589424 3.184857364427983839050 30.18895694858001377
4.009497869018204596614 77.11770645757587772 4.009497869018204596614 32.66678154698426084
5.009497869018190385759 84.34506166957613971 5.009497869018190385759 35.28246529320549030
6.009497869018190385759 90.62324703390933678 6.009497869018190385759 37.58054725635496141
7.009497869018204596614 96.19921272647607680 7.009497869018204596614 39.63013304309588847
8.009497869018190385759 101.22773907277611727 8.009497869018190385759 41.46962890886249653
9.009497869018204596614 105.81329941448133525 9.009497869018204596614 43.13292005436401411
10.009497869018190385759 110.03054469092272427 10.009497869018190385759 44.64183693358526739
11.009497869018190385759 113.93517923030599093 11.009497869018190385759 46.00413960496561572
12.009497869018204596614 117.57023881444840185 12.009497869018204596614 47.24984343175284351
13.009497869018190385759 120.96971442637266136 13.009497869018190385759 48.39182326794477262
14.009497869018204596614 124.16141780168155151 14.009497869018204596614 49.43953424763049043
15.009497869018190385759 127.16778562535392894 15.009497869018190385759 50.40419851269322749
16.009497869018190385759 130.00743411585716558 16.009497869018190385759 51.29557679045500862
17.009497869018204596614 132.69665745018997427 17.009497869018204596614 52.12276191791844582
18.009497869018190385759 135.24956030939225116 18.009497869018190385759 52.89514290694748411
19.009497869018204596614 137.67813163639166874 19.009497869018204596614 53.61513055892887536
20.009497869018190385759 139.99319013294109482 20.009497869018190385759 54.28630380892608542
21.009497869018190385759 142.20359946000127138 21.009497869018190385759 54.91198275547753127
22.009497869018204596614 144.31694435598149084 22.009497869018204596614 55.49761773194042291
23.009497869018190385759 146.34015903233887457 23.009497869018190385759 56.04521779316488050
24.009497869018204596614 148.27965336058701951 24.009497869018204596614 56.56059969421382050
25.009497869018204596614 150.14143719984988934 25.009497869018204596614 57.04647313369121520
26.009497869018190385759 151.93080055275211748 26.009497869018190385759 57.50568681081701072
27.009497869018204596614 153.65256883598473792 27.009497869018204596614 57.94135095636281818
28.009497869018190385759 155.31093296659599901 28.009497869018190385759 58.35449588072070526
29.009497869018190385759 156.90965202105556386 29.009497869018190385759 58.74339032708081731
30.009497869018190385759 158.45221438881966947 30.009497869018190385759 59.11586926617795967
31.009497869018218807469 159.94181557197654797 31.009497869018218807469 59.46926264716075394
32.009497869018190385759 161.38139893050094997 32.009497869018190385759 59.80500329202906329
33.009497869018190385759 162.77368850533110844 33.009497869018190385759 60.12259488370906269
34.009497869018218807469 164.12130348104381028 34.009497869018218807469 60.42863796874670612
35.009497869018190385759 165.42657730979124153 35.009497869018190385759 60.72033065800230389
36.009497869018190385759 166.69166706566664971 36.009497869018190385759 61.00147361223772435
37.009497869018190385759 167.91857093733315764 37.009497869018190385759 61.27181356357614561
38.009497869018218807469 169.10919194849591918 38.009497869018218807469 61.53254801221267201
39.009497869018190385759 170.26527118206999489 39.009497869018190385759 61.78549690264255645
40.009497869018190385759 171.38843905987880589 40.009497869018190385759 62.02986910791731390
41.009497869018218807469 172.48026131434917829 41.009497869018218807469 62.26545805815312207
42.009497869018190385759 173.54217147205420702 42.009497869018190385759 62.49141176166166645
43.009497869018190385759 174.57551684326710983 43.009497869018190385759 62.71243547343078006
44.009497869018218807469 175.58160047360794920 44.009497869018218807469 62.92098879341240547
46.009497869018190385759 177.51684139374339111 46.009497869018190385759 63.32149916110320476
48.009497869018218807469 179.35623785716788348 48.009497869018218807469 63.69297445931331225
50.009497869018190385759 181.10644847991090955 50.009497869018190385759 64.02382670048982050
52.009497869018190385759 182.77409144923248618 52.009497869018190385759 64.32399904306541316
54.009497869018218807469 184.36545044544612892 54.009497869018218807469 64.59775215522626013
56.009497869018190385759 185.88550293490598619 56.009497869018190385759 64.84796631330306127
58.009497869018218807469 187.33858721628143940 58.009497869018218807469 65.08455706892158332
60.009497869018190385759 188.72898369996880774 60.009497869018190385759 65.32358864780462682
62.009497869018190385759 190.06029777904927869 62.009497869018190385759 65.55705155076510948
64.009497869018218807469 191.33629134434539765 64.009497869018218807469 65.78490399879319739
66.009497869018190385759 192.56198953196118850 66.009497869018190385759 66.03002853854771104
68.009497869018190385759 193.74173395269130538 68.009497869018190385759 66.28019569784459009
70.009497869018190385759 194.87814683772685953 70.009497869018190385759 66.49543636517688583
72.009497869018190385759 195.97395257036612293 72.009497869018190385759 66.67211977487505692
74.009497869018218807469 197.03167438824783630 74.009497869018218807469 66.83913743939075403
76.009497869018190385759 198.05334074600429517 76.009497869018190385759 66.99696376640424944
78.009497869018190385759 199.04154968391554803 78.009497869018190385759 67.17508384917100273
80.009497869018218807469 199.99791308128587275 80.009497869018218807469 67.30720902900847591
82.009497869018190385759 200.92242085125749895 82.009497869018190385759 67.45743903205860192
84.009497869018218807469 201.81552279581950415 84.009497869018218807469 67.58837436961687217
86.009497869018190385759 202.67795648900928995 86.009497869018190385759 67.66234977131443884
88.009497869018190385759 203.51179964568785863 88.009497869018190385759 67.75179547373934952
91.009497869018218807469 204.71088456570095104 91.009497869018218807469 67.85709750041948496
94.009497869018218807469 205.85204328466232937 94.009497869018218807469 68.00928641880604175
97.009497869018218807469 206.94308983245326772 97.009497869018218807469 68.24618400295605625
99.504748934509137825444 207.81804842422656066 99.504748934509137825444 68.29510701984281695
nan nan nan nan

