Time Pressure difference Time.1 Pressure.1 difference.1
(hr) (psi) (hr) (psi)
0.000200000000020850166 0.41891987663061375 0.000200000000020850166 0.33733405491015622
0.000399999999999067768 0.80368460880661674 0.000399999999999067768 0.77286549064827614
0.000600000000019917934 1.16870277548683732 0.000600000000019917934 1.08580283767546759
0.000799999999998135536 1.51894014517515274 0.000799999999998135536 1.38583965087732031
0.001007140329434719206 1.86907122323954922 0.001007140329434719206 1.68445442814299251
0.001267914553977789183 2.29465201893626913 0.001267914553977789183 2.04368283936030348
0.001596209851982166583 2.81020964898458203 0.001596209851982166583 2.47094436633758319
0.002009509145224797066 3.43254523337188289 0.002009509145224797066 2.97658915689402592
0.002529822128153114136 4.18095123796720536 0.002529822128153114136 3.57189368422235853
0.003184857364431081805 5.07742021614373140 0.003184857364431081805 4.26901602824033866
0.004009497869034817086 6.14684133215367634 0.004009497869034817086 5.08094097450536530
0.005047658755856332391 7.41718349828217516 0.005047658755856332391 6.02142817062480695
0.006354625877790454069 8.91966756798542271 0.006354625877790454069 7.10498129021674618
0.008000000000009777068 10.68893462867405830 0.008000000000009777068 8.34685965844559519
0.010071403294361402914 12.76322264008627805 0.010071403294361402914 9.76315491256462487
0.012679145539692626699 15.18456875173730936 0.012679145539692626699 11.37095167613828117
0.015962098519750611558 17.99905813436638269 0.015962098519750611558 13.18857869593235499
0.020095091452091651263 21.25713941728292156 0.020095091452091651263 15.23593547055044439
0.025298221281360611101 25.01402037581182825 0.025298221281360611101 17.53487213155240099
0.031848573644296607199 29.33015330313206803 0.031848573644296607199 20.10965614261042944
0.040094978690191851456 34.27183857570381065 0.040094978690191851456 22.98767239091083781
0.050476587558435426217 39.91202248088923454 0.050476587558435426217 26.20047796637462056
0.063546258777947173257 46.33137241346693713 0.063546258777947173257 29.78485600321692317
0.080000000000012505552 53.61954003995379736 0.080000000000012505552 33.78261935100012892
0.100714032943542974863 61.87611831637512694 0.100714032943542974863 38.23741122720792873
0.126791455396883634421 71.21039404975638831 0.126791455396883634421 43.18755882473661245
0.159620985197506115583 81.73896612741468459 0.159620985197506115583 48.65645339313070394
0.200950914520774404082 93.58100894720770668 0.200950914520774404082 54.64428827549490109
0.252982212813464002465 106.85201383449177115 0.252982212813464002465 61.12597768494621420
0.318485736442809752589 121.65800316098264489 0.318485736442809752589 68.05376251555152578
0.400949786901833249431 138.09035779869739713 0.400949786901833249431 75.37371573532439584
0.504765875584169521062 156.22746214350573268 0.504765875584169521062 83.03541201615199441
0.635462587779443310865 176.13377281948643827 0.635462587779443310865 91.00406703563226074
0.800000000000011368684 197.86673820453120243 0.800000000000011368684 99.27677600136821923
1.007140329435344483500 221.48290088759338801 1.007140329435344483500 107.90270977916317463
1.267914553968907398485 247.05340918290721675 1.267914553968907398485 116.90442746608388802
1.596209851975117999245 274.63353710442402189 1.596209851975117999245 126.43642451052316744
2.009509145207687197399 304.34886768349622344 2.009509145207687197399 136.58257770309839430
2.529822128134725289783 336.27205816200086019 2.529822128134725289783 147.51982130573799168
3.184857364427983839050 370.57957978025757484 3.184857364427983839050 159.48882916230948581
4.009497869018204596614 407.41429826643854994 4.009497869018204596614 172.57922326708668948
5.009497869018190385759 445.59655221662865188 5.009497869018190385759 186.39792985089690092
6.009497869018190385759 478.76432395272854592 6.009497869018190385759 198.53874022225264184
7.009497869018204596614 508.22225591345846851 7.009497869018204596614 209.36674060503489159
8.009497869018190385759 534.78805547881722759 8.009497869018190385759 219.08483197134904685
9.009497869018204596614 559.01365728405232858 9.009497869018204596614 227.87203047588539562
10.009497869018190385759 581.29344365015776930 10.009497869018190385759 235.84366681894104545
11.009497869018190385759 601.92170159406941821 11.009497869018190385759 243.04073753566746063
12.009497869018204596614 621.12578996312367963 12.009497869018204596614 249.62181435643012151
13.009497869018190385759 639.08528376196886711 13.009497869018190385759 255.65491537782142473
14.009497869018204596614 655.94711291454405000 14.009497869018204596614 261.18999225163281608
15.009497869018190385759 671.82981085092637841 15.009497869018190385759 266.28633176517178072
16.009497869018190385759 686.83172740452857852 16.009497869018190385759 270.99550002504531676
17.009497869018204596614 701.03894501987156218 17.009497869018204596614 275.36553466070120066
18.009497869018190385759 714.52597899301565576 18.009497869018190385759 279.44603799896782448
19.009497869018204596614 727.35616713565400460 19.009497869018204596614 283.24974634905822768
20.009497869018190385759 739.58666485327364626 20.009497869018190385759 286.79556729243972768
21.009497869018190385759 751.26429903396910959 21.009497869018190385759 290.10104097233408993
22.009497869018204596614 762.42913999386439627 22.009497869018204596614 293.19496160270415430
23.009497869018190385759 773.11782130292237980 23.009497869018190385759 296.08794305822959814
24.009497869018204596614 783.36420643328983715 24.009497869018204596614 298.81071536565792712
25.009497869018204596614 793.20004558411255857 25.009497869018204596614 301.37759391384042829
26.009497869018190385759 802.65328593906781407 26.009497869018190385759 303.80362843450495802
27.009497869018204596614 811.74942026557982899 27.009497869018204596614 306.10525033550169383
28.009497869018190385759 820.51058925748850470 28.009497869018190385759 308.28790276607168153
29.009497869018190385759 828.95665218670853847 29.009497869018190385759 310.34243946382315471
30.009497869018190385759 837.10603828055684517 30.009497869018190385759 312.31025272697786477
31.009497869018218807469 844.97562943685727532 31.009497869018218807469 314.17723662650956840
32.009497869018190385759 852.58097548189175541 32.009497869018190385759 315.95096078807807771
33.009497869018190385759 859.93646757533406344 33.009497869018190385759 317.62880315921773899
34.009497869018218807469 867.05594291872193935 34.009497869018218807469 319.24563455186938654
35.009497869018190385759 873.95172918380296778 35.009497869018190385759 320.78665253284231085
36.009497869018190385759 880.63522223371057862 36.009497869018190385759 322.27193606465209541
37.009497869018190385759 887.11697853685438986 37.009497869018190385759 323.70014712832676196
38.009497869018218807469 893.40705180337465663 38.009497869018218807469 325.07761213999151551
39.009497869018190385759 899.51464020716230152 39.009497869018190385759 326.41394590075310589
40.009497869018190385759 905.44835729747285313 40.009497869018190385759 327.70496887201602476
41.009497869018218807469 911.21647486825975193 41.009497869018218807469 328.94958974118623019
42.009497869018190385759 916.82656626745620088 42.009497869018190385759 330.14330742009934738
43.009497869018190385759 922.28574936065638212 43.009497869018190385759 331.31097985963430119
44.009497869018218807469 927.60090816245713086 44.009497869018218807469 332.41277098406555979
46.009497869018190385759 937.82482245751225491 46.009497869018190385759 334.52867481337540312
48.009497869018218807469 947.54238867937760915 48.009497869018218807469 336.49118582278725853
50.009497869018190385759 956.78878442217080647 50.009497869018190385759 338.23908445541792389
52.009497869018190385759 965.59897369405848622 52.009497869018190385759 339.82490060487384653
54.009497869018218807469 974.00615329669653875 54.009497869018218807469 341.27114346157264890
56.009497869018190385759 982.03661927874873072 56.009497869018190385759 342.59302957971431169
58.009497869018218807469 989.71329095393969055 58.009497869018218807469 343.84294300562345370
60.009497869018190385759 997.05878181115599546 60.009497869018190385759 345.10575134689236165
62.009497869018190385759 1004.09213921007165027 62.009497869018190385759 346.33914026819297760
64.009497869018218807469 1010.83323729088124310 64.009497869018218807469 347.54288905022826839
66.009497869018190385759 1017.30862394243638391 66.009497869018190385759 348.83788661874262971
68.009497869018190385759 1023.54123597648253963 68.009497869018190385759 350.15952444144306810
70.009497869018190385759 1029.54492668987768411 70.009497869018190385759 351.29664494810430142
72.009497869018190385759 1035.33408905099076946 72.009497869018190385759 352.23006673518898424
74.009497869018218807469 1040.92205337187533587 74.009497869018218807469 353.11242420810208387
76.009497869018190385759 1046.31953601662644360 76.009497869018190385759 353.94622367156961218
78.009497869018190385759 1051.54026248106310959 78.009497869018190385759 354.88723542958268808
80.009497869018218807469 1056.59274835396286107 80.009497869018218807469 355.58525524759193104
82.009497869018190385759 1061.47694034626601933 82.009497869018190385759 356.37892318823418236
84.009497869018218807469 1066.19521477036732904 84.009497869018218807469 357.07065704703251185
86.009497869018190385759 1070.75146824382272825 86.009497869018190385759 357.46147048996311923
88.009497869018190385759 1075.15667737344551824 88.009497869018190385759 357.93401382352868723
91.009497869018218807469 1081.49146563011822764 91.009497869018218807469 358.49032641731042759
94.009497869018218807469 1087.52022867368782499 94.009497869018218807469 359.29434334463570622
97.009497869018218807469 1093.28424817145105408 97.009497869018218807469 360.54587775146598005
99.504748934509137825444 1097.90667092044213859 99.504748934509137825444 360.80433897275446498
nan nan nan nan

