Time Pressure difference Time.1 Pressure.1 difference.1
(hr) (psi) (hr) (psi)
0.000200000000020850166 0.51317684887250181 0.000200000000020850166 0.41323421726494142
0.000399999999999067768 0.98451364578810541 0.000399999999999067768 0.94676022604413834
0.000600000000019917934 1.43166089997137558 0.000600000000019917934 1.33010847615244776
0.000799999999998135536 1.86070167783956242 0.000799999999998135536 1.69765357232471747
0.001007140329434719206 2.28961224846844758 0.001007140329434719206 2.06345667447516590
0.001267914553977789183 2.81094872319692923 0.001267914553977789183 2.50351147821637232
0.001596209851982166583 3.44250682000611308 0.001596209851982166583 3.02690684876353933
0.002009509145224797066 4.20486791088055600 0.002009509145224797066 3.64632171719518228
0.002529822128153114136 5.12166526650982767 0.002529822128153114136 4.37556976317238977
0.003184857364431081805 6.21983976477607037 0.003184857364431081805 5.22954463459441410
0.004009497869034817086 7.52988063188825407 0.004009497869034817086 6.22415269376907165
0.005047658755856332391 9.08604978539566410 0.005047658755856332391 7.37624950901538856
0.006354625877790454069 10.92659277078214330 0.006354625877790454069 8.70360208051551432
0.008000000000009777068 13.09394492012572364 0.008000000000009777068 10.22490308159585481
0.010071403294361402914 15.63494773410569039 0.010071403294361402914 11.95986476789166630
0.012679145539692626699 18.60109672087820343 0.012679145539692626699 13.92941580326939466
0.015962098519750611558 22.04884621459882155 0.015962098519750611558 16.15600890251713651
0.020095091452091651263 26.03999578617158051 0.020095091452091651263 18.66402095142429474
0.025298221281360611101 30.64217496036948774 0.025298221281360611101 21.48021836115169236
0.031848573644296607199 35.92943779633678503 0.031848573644296607199 24.63432877469777438
0.040094978690191851456 41.98300225523716733 0.040094978690191851456 28.15989867886577613
0.050476587558435426217 48.89222753908930486 0.050476587558435426217 32.09558550880890948
0.063546258777947173257 56.75593120649699586 0.063546258777947173257 36.48644860394072253
0.080000000000012505552 65.68393654894340727 0.080000000000012505552 41.38370870497516307
0.100714032943542974863 75.79824493755953085 0.100714032943542974863 46.84082875332971696
0.126791455396883634421 87.23273271095156645 0.126791455396883634421 52.90475956030234528
0.159620985197506115583 100.13023350608300177 0.159620985197506115583 59.60415540658511446
0.200950914520774404082 114.63673596032944602 0.200950914520774404082 66.93925313748125916
0.252982212813464002465 130.89371694725241468 0.252982212813464002465 74.87932266405910298
0.318485736442809752589 149.03105387220372791 0.318485736442809752589 83.36585908155062441
0.400949786901833249431 169.16068830340429940 0.400949786901833249431 92.33280177577236714
0.504765875584169521062 191.37864112579453035 0.504765875584169521062 101.71837971978618498
0.635462587779443310865 215.76387170387090464 0.635462587779443310865 111.47998211864951656
0.800000000000011368684 242.38675430055073434 0.800000000000011368684 121.61405060167606962
1.007140329435344483500 271.31655358730188254 1.007140329435344483500 132.18081947947490562
1.267914553968907398485 302.64042624906136325 1.267914553968907398485 143.20792364595274648
1.596209851975117999245 336.42608295291938703 1.596209851975117999245 154.88462002539088758
2.009509145207687197399 372.82736291228286518 2.009509145207687197399 167.31365768629552804
2.529822128134725289783 411.93327124845109211 2.529822128134725289783 180.71178109952901991
3.184857364427983839050 453.95998523081550502 3.184857364427983839050 195.37381572382915351
4.009497869018204596614 499.08251537638727768 4.009497869018204596614 211.40954850218119532
5.009497869018190385759 545.85577646537001328 5.009497869018190385759 228.33746406734874768
6.009497869018190385759 586.48629684209242896 6.009497869018190385759 243.20995677225943155
7.009497869018204596614 622.57226349398672482 7.009497869018204596614 256.47425724116777701
8.009497869018190385759 655.11536796155110096 8.009497869018190385759 268.37891916490258382
9.009497869018204596614 684.79173017296409398 9.009497869018204596614 279.14323733295958618
10.009497869018190385759 712.08446847144318781 10.009497869018190385759 288.90849185320280412
11.009497869018190385759 737.35408445273503730 11.009497869018190385759 297.72490348119259806
12.009497869018204596614 760.87909270482646207 12.009497869018204596614 305.78672258662692229
13.009497869018190385759 782.87947260841178831 13.009497869018190385759 313.17727133783125737
14.009497869018204596614 803.53521332031652946 14.009497869018204596614 319.95774050825014001
15.009497869018190385759 822.99151829238485334 15.009497869018190385759 326.20075641233540864
16.009497869018190385759 841.36886607054736942 16.009497869018190385759 331.96948753068056703
17.009497869018204596614 858.77270764934257841 17.009497869018204596614 337.32277995935902482
18.009497869018190385759 875.29432426644416410 18.009497869018190385759 342.32139654873560630
19.009497869018204596614 891.01130474117621816 19.009497869018204596614 346.98093927759634880
20.009497869018190385759 905.99366444526037867 20.009497869018190385759 351.32456993323859251
21.009497869018190385759 920.29876631661215924 21.009497869018190385759 355.37377519110930280
22.009497869018204596614 933.97569649248384849 22.009497869018204596614 359.16382796331254212
23.009497869018190385759 947.06933109607984989 23.009497869018190385759 362.70773024633120940
24.009497869018204596614 959.62115288078007325 24.009497869018204596614 366.04312632293095930
25.009497869018204596614 971.67005584053777056 25.009497869018204596614 369.18755254445449054
26.009497869018190385759 983.25027527535803529 26.009497869018190385759 372.15944483226854800
27.009497869018204596614 994.39303982533533599 27.009497869018204596614 374.97893166098958773
28.009497869018190385759 1005.12547184042330173 28.009497869018190385759 377.65268088843782834
29.009497869018190385759 1015.47189892871801931 29.009497869018190385759 380.16948834318338868
30.009497869018190385759 1025.45489689368218933 30.009497869018190385759 382.58005959054793266
31.009497869018218807469 1035.09514606015000027 31.009497869018218807469 384.86711486747424260
32.009497869018190385759 1044.41169496531733785 32.009497869018190385759 387.03992696539563667
33.009497869018190385759 1053.42217277978420498 33.009497869018190385759 389.09528387004172600
34.009497869018218807469 1062.14353007543445528 34.009497869018218807469 391.07590232604002267
35.009497869018190385759 1070.59086825015856448 35.009497869018190385759 392.96364935273186347
36.009497869018190385759 1078.77814723629558102 36.009497869018190385759 394.78312167919887088
37.009497869018190385759 1086.71829870764668158 37.009497869018190385759 396.53268023220027771
38.009497869018218807469 1094.42363845913405385 38.009497869018218807469 398.22007487148960081
39.009497869018190385759 1101.90543425377381936 39.009497869018190385759 399.85708372842253766
40.009497869018190385759 1109.17423768940443551 40.009497869018190385759 401.43858686821965875
41.009497869018218807469 1116.24018171361808527 41.009497869018218807469 402.96324743295315329
42.009497869018190385759 1123.11254367763399387 42.009497869018190385759 404.42555158962176165
43.009497869018190385759 1129.80004296680408515 43.009497869018190385759 405.85595032805207438
44.009497869018218807469 1136.31111249900982330 44.009497869018218807469 407.20564445548029653
46.009497869018190385759 1148.83540751045234174 46.009497869018190385759 409.79762664638485603
48.009497869018218807469 1160.73942613223744047 48.009497869018218807469 412.20170263291441870
50.009497869018190385759 1172.06626091715929761 50.009497869018190385759 414.34287845788691129
52.009497869018190385759 1182.85874277522157172 52.009497869018190385759 416.28550324097045632
54.009497869018218807469 1193.15753778845328270 54.009497869018218807469 418.05715074042649348
56.009497869018190385759 1202.99485861646689955 56.009497869018190385759 419.67646123514998635
58.009497869018218807469 1212.39878141857616356 58.009497869018218807469 421.20760518188876631
60.009497869018190385759 1221.39700771866614559 60.009497869018190385759 422.75454539994314018
62.009497869018190385759 1230.01287053233795632 62.009497869018190385759 424.26544682853642598
64.009497869018218807469 1238.27071568132964785 64.009497869018218807469 425.74003908652963446
66.009497869018190385759 1246.20306432948450492 66.009497869018190385759 427.32641110795975692
68.009497869018190385759 1253.83801407119085525 68.009497869018190385759 428.94541744076775558
70.009497869018190385759 1261.19253519510016304 70.009497869018190385759 430.33839006142778771
72.009497869018190385759 1268.28425908746385176 72.009497869018190385759 431.48183175060648864
74.009497869018218807469 1275.12951538054721823 74.009497869018218807469 432.56271965492504705
76.009497869018190385759 1281.74143162036739341 76.009497869018190385759 433.58412399767280476
78.009497869018190385759 1288.13682153930244567 78.009497869018190385759 434.73686340123879290
80.009497869018218807469 1294.32611673360452187 80.009497869018218807469 435.59193767830009847
82.009497869018190385759 1300.30925192417589642 82.009497869018190385759 436.56418090558685208
84.009497869018218807469 1306.08913809369983028 84.009497869018218807469 437.41155488261483697
86.009497869018190385759 1311.67054859868289896 86.009497869018190385759 437.89030135020482248
88.009497869018190385759 1317.06692978247065184 88.009497869018190385759 438.46916693382257790
91.009497869018218807469 1324.82704539689507328 91.009497869018218807469 439.15064986120529511
94.009497869018218807469 1332.21228012526762541 94.009497869018218807469 440.13557059717868469
97.009497869018218807469 1339.27320401002771177 97.009497869018218807469 441.66870024554583551
99.504748934509137825444 1344.93567187754183578 99.504748934509137825444 441.98531524162422102
nan nan nan nan

