Time Pressure difference Time.1 Pressure.1 difference.1
(hr) (psi) (hr) (psi)
0.000200000000020850166 0.27154984860163001 0.000200000000020850166 0.21866475345069056
0.000399999999999067768 0.52095984463714629 0.000399999999999067768 0.50098245197379332
0.000600000000019917934 0.75756983482450335 0.000600000000019917934 0.70383291085034771
0.000799999999998135536 0.98459870124746507 0.000799999999998135536 0.89832105940797735
0.001007140329434719206 1.21155866792135058 0.001007140329434719206 1.09188742395697558
0.001267914553977789183 1.48742621941761710 0.001267914553977789183 1.32474441194248249
0.001596209851982166583 1.82161804032393437 0.001596209851982166583 1.60170143746525495
0.002009509145224797066 2.22502485663213134 0.002009509145224797066 1.92946761420094903
0.002529822128153114136 2.71015232032517073 0.002529822128153114136 2.31535251316556501
0.003184857364431081805 3.29125631867888302 0.003184857364431081805 2.76723717544864822
0.004009497869034817086 3.98447036352104433 0.004009497869034817086 3.29353852454544205
0.005047658755856332391 4.80792430335076659 0.005047658755856332391 3.90317576060143701
0.006354625877790454069 5.78185594139055059 0.006354625877790454069 4.60555037205121209
0.008000000000009777068 6.92872012537264936 0.008000000000009777068 5.41055367145669841
0.010071403294361402914 8.27330324705592624 0.010071403294361402914 6.32861648796599763
0.012679145539692626699 9.84285438728686302 0.012679145539692626699 7.37081331863963563
0.015962098519750611558 11.66724661209821079 0.015962098519750611558 8.54902511897043738
0.020095091452091651263 13.77918144370303821 0.020095091452091651263 9.87615102823180457
0.025298221281360611101 16.21444535074945392 0.025298221281360611101 11.36635461384557466
0.031848573644296607199 19.01222437328025094 0.031848573644296607199 13.03536639244211770
0.040094978690191851456 22.21549536246514833 0.040094978690191851456 14.90093763910827462
0.050476587558435426217 25.87154314386212661 0.050476587558435426217 16.98352411034640497
0.063546258777947173257 30.03265747515803241 0.063546258777947173257 19.30696915922811030
0.080000000000012505552 34.75695184732720122 0.080000000000012505552 21.89837647216615579
0.100714032943542974863 40.10898383722172866 0.100714032943542974863 24.78603620620799930
0.126791455396883634421 46.15959471439565931 0.126791455396883634421 27.99479259532034092
0.159620985197506115583 52.98436554330631054 0.159620985197506115583 31.53980818161865685
0.200950914520774404082 60.66054687113643240 0.200950914520774404082 35.42120829286544392
0.252982212813464002465 69.26300182485806545 0.252982212813464002465 39.62273196363477012
0.318485736442809752589 78.86045562042266965 0.318485736442809752589 44.11342105918786416
0.400949786901833249431 89.51214264451277813 0.400949786901833249431 48.85831930700491199
0.504765875584169521062 101.26887278230817913 0.504765875584169521062 53.82474028904137953
0.635462587779443310865 114.17242773834567515 0.635462587779443310865 58.99013631059733598
0.800000000000011368684 128.26004637186576929 0.800000000000011368684 64.35262444374403401
1.007140329435344483500 143.56838039677927554 1.007140329435344483500 69.94407794613613305
1.267914553968907398485 160.14354916677737606 1.267914553968907398485 75.77911994676507845
1.596209851975117999245 178.02138208733202873 1.596209851975117999245 81.95789660235698193
2.009509145207687197399 197.28328387340914674 2.009509145207687197399 88.53477804682985663
2.529822128134725289783 217.97635198715411775 2.529822128134725289783 95.62445559639800763
3.184857364427983839050 240.21497760755980266 3.184857364427983839050 103.38293747485418805
4.009497869018204596614 264.09176834056643202 4.009497869018204596614 111.86831793920083555
5.009497869018190385759 288.84205081185035624 5.009497869018190385759 120.82580095692068767
6.009497869018190385759 310.34187427650084601 6.009497869018190385759 128.69564767978161512
7.009497869018204596614 329.43692660104545666 7.009497869018204596614 135.71451221362082151
8.009497869018190385759 346.65725739073332079 8.009497869018190385759 142.01391786714233945
9.009497869018204596614 362.36063856091249136 9.009497869018204596614 147.70990546919000508
10.009497869018190385759 376.80271436608438762 10.009497869018190385759 152.87723402727786493
11.009497869018190385759 390.17424585472707577 11.009497869018190385759 157.54247808115584917
12.009497869018204596614 402.62261027966764004 12.009497869018204596614 161.80842609175741131
13.009497869018190385759 414.26421072427621084 13.009497869018190385759 165.71916836098068870
14.009497869018204596614 425.19428926424910742 14.009497869018204596614 169.30708426311196035
15.009497869018190385759 435.48968096229691582 15.009497869018190385759 172.61060434063813318
16.009497869018190385759 445.21413758543542372 16.009497869018190385759 175.66315448052046122
17.009497869018204596614 454.42345900395241642 17.009497869018204596614 178.49587336041881258
18.009497869018190385759 463.16594709725836765 18.009497869018190385759 181.14091391718807245
19.009497869018204596614 471.48265833971862548 19.009497869018204596614 183.60653200840738464
20.009497869018190385759 479.41064168167565640 20.009497869018190385759 185.90498379849216803
21.009497869018190385759 486.98025098094774421 21.009497869018190385759 188.04763905885229747
22.009497869018204596614 494.21746038887994246 22.009497869018204596614 190.05316261032427860
23.009497869018190385759 501.14601630885852046 23.009497869018190385759 191.92843451810236388
24.009497869018204596614 507.78786952729319637 24.009497869018204596614 193.69337442452467712
25.009497869018204596614 514.16360097684435004 25.009497869018204596614 195.35726176915011365
26.009497869018190385759 520.29132642121714980 26.009497869018190385759 196.92985200308089588
27.009497869018204596614 526.18757063643829497 27.009497869018204596614 198.42179619961984827
28.009497869018190385759 531.86668553655056257 28.009497869018190385759 199.83662268586431310
29.009497869018190385759 537.34154418531295505 29.009497869018190385759 201.16840272387111099
30.009497869018190385759 542.62409267114662725 30.009497869018190385759 202.44396739266602481
31.009497869018218807469 547.72527408139137606 31.009497869018218807469 203.65417302754104867
32.009497869018190385759 552.65516803558341508 32.009497869018190385759 204.80392636798632111
33.009497869018190385759 557.42310308901107874 33.009497869018190385759 205.89152776213578022
34.009497869018218807469 562.03804871338593330 34.009497869018218807469 206.93958096844389161
35.009497869018190385759 566.50799588164363740 35.009497869018190385759 207.93849083825315915
36.009497869018190385759 570.84033155506597268 36.009497869018190385759 208.90127284190845103
37.009497869018190385759 575.04189858728238960 37.009497869018190385759 209.82705965639752321
38.009497869018218807469 579.11921393683041970 38.009497869018218807469 210.71995215503019949
39.009497869018190385759 583.07823999142840421 39.009497869018190385759 211.58618278923816547
40.009497869018190385759 586.92456017675476687 40.009497869018190385759 212.42304232239609973
41.009497869018218807469 590.66353638781833979 41.009497869018218807469 213.22982335009038479
42.009497869018190385759 594.30007777694038396 42.009497869018190385759 214.00360820267158601
43.009497869018190385759 597.83879824628263577 43.009497869018190385759 214.76051015901296637
44.009497869018218807469 601.28416011244985384 44.009497869018218807469 215.47470690574249375
46.009497869018190385759 607.91144741442315080 46.009497869018190385759 216.84626599509871880
48.009497869018218807469 614.21051266181075334 48.009497869018218807469 218.11839366727105016
50.009497869018190385759 620.20415847365711670 50.009497869018190385759 219.25140653092265097
52.009497869018190385759 625.91504901954147044 52.009497869018190385759 220.27935521351642478
54.009497869018218807469 631.36470294053719954 54.009497869018218807469 221.21683049384085962
56.009497869018190385759 636.57016571104600189 56.009497869018190385759 222.07369595970766341
58.009497869018218807469 641.54629395764300170 58.009497869018218807469 222.88390769828805560
60.009497869018190385759 646.30774606687430150 60.009497869018190385759 223.70247810521772180
62.009497869018190385759 650.86686880938577815 62.009497869018190385759 224.50197842384653768
64.009497869018218807469 655.23654488676766050 64.009497869018218807469 225.28226558077295749
66.009497869018190385759 659.43398301982927023 66.009497869018190385759 226.12170150464925200
68.009497869018190385759 663.47405117761275051 68.009497869018190385759 226.97840602186397518
70.009497869018190385759 667.36572926504572933 70.009497869018190385759 227.71550377886049432
72.009497869018190385759 671.11834700983865787 72.009497869018190385759 228.32056111584572022
74.009497869018218807469 674.74054531069782570 74.009497869018218807469 228.89251783489476111
76.009497869018190385759 678.23927066792032292 76.009497869018190385759 229.43299855853530289
78.009497869018190385759 681.62342014397495404 78.009497869018190385759 230.04297582310451276
80.009497869018218807469 684.89851366515813424 80.009497869018218807469 230.49544224084976918
82.009497869018190385759 688.06451668874024108 82.009497869018190385759 231.00990913808749383
84.009497869018218807469 691.12296957436308276 84.009497869018218807469 231.45830090727284301
86.009497869018190385759 694.07639816519224496 86.009497869018190385759 231.71163176402967565
88.009497869018190385759 696.93191765457265774 88.009497869018190385759 232.01794110346588695
91.009497869018218807469 701.03821789952314703 91.009497869018218807469 232.37855087407800170
94.009497869018218807469 704.94614822955122690 94.009497869018218807469 232.89972613232635013
97.009497869018218807469 708.68246801113707534 97.009497869018218807469 233.71098861389668855
99.504748934509137825444 711.67878847164377021 99.504748934509137825444 233.87852686983904960
nan nan nan nan

