Time Pressure difference Time.1 Pressure.1 difference.1
(hr) (psi) (hr) (psi)
0.000200000000020850166 0.09051661620054333 0.000200000000020850166 0.07288825115023019
0.000399999999999067768 0.17365328154571538 0.000399999999999067768 0.16699415065793108
0.000600000000019917934 0.25252327827483451 0.000600000000019917934 0.23461097028344921
0.000799999999998135536 0.32819956708248837 0.000799999999998135536 0.29944035313599243
0.001007140329434719206 0.40385288930711688 0.001007140329434719206 0.36396247465232517
0.001267914553977789183 0.49580873980587237 0.001267914553977789183 0.44158147064749420
0.001596209851982166583 0.60720601344131142 0.001596209851982166583 0.53390047915508498
0.002009509145224797066 0.74167495221071034 0.002009509145224797066 0.64315587140031638
0.002529822128153114136 0.90338410677505698 0.002529822128153114136 0.77178417105518826
0.003184857364431081805 1.09708543955962767 0.003184857364431081805 0.92241239181621604
0.004009497869034817086 1.32815678784034796 0.004009497869034817086 1.09784617484848068
0.005047658755856332391 1.60264143445025575 0.005047658755856332391 1.30105858686714582
0.006354625877790454069 1.92728531379685020 0.006354625877790454069 1.53518345735040396
0.008000000000009777068 2.30957337512421645 0.008000000000009777068 1.80351789048556599
0.010071403294361402914 2.75776774901864208 0.010071403294361402914 2.10953882932199921
0.012679145539692626699 3.28095146242895463 0.012679145539692626699 2.45693777287987869
0.015962098519750611558 3.88908220403273708 0.015962098519750611558 2.84967503965681290
0.020095091452091651263 4.59306048123434607 0.020095091452091651263 3.29205034274393560
0.025298221281360611101 5.40481511691648375 0.025298221281360611101 3.78878487128185881
0.031848573644296607199 6.33740812442675061 0.031848573644296607199 4.34512213081403953
0.040094978690191851456 7.40516512082171641 0.040094978690191851456 4.96697921303609125
0.050476587558435426217 8.62384771462070887 0.050476587558435426217 5.66117470344880225
0.063546258777947173257 10.01088582505267688 0.063546258777947173257 6.43565638640937010
0.080000000000012505552 11.58565061577573019 0.080000000000012505552 7.29945882405538526
0.100714032943542974863 13.36966127907391133 0.100714032943542974863 8.26201206873599858
0.126791455396883634421 15.38653157146521799 0.126791455396883634421 9.33159753177344697
0.159620985197506115583 17.66145518110210233 0.159620985197506115583 10.51326939387288384
0.200950914520774404082 20.22018229037880843 0.200950914520774404082 11.80706943095514916
0.252982212813464002465 23.08766727495268611 0.252982212813464002465 13.20757732121159123
0.318485736442809752589 26.28681854014089225 0.318485736442809752589 14.70447368639595531
0.400949786901833249431 29.83738088150425938 0.400949786901833249431 16.28610643566830518
0.504765875584169521062 33.75629092743606208 0.504765875584169521062 17.94158009634712414
0.635462587779443310865 38.05747591278189645 0.635462587779443310865 19.66337877019911318
0.800000000000011368684 42.75334879062192073 0.800000000000011368684 21.45087481458134349
1.007140329435344483500 47.85612679892642518 1.007140329435344483500 23.31469264871204672
1.267914553968907398485 53.38118305559245158 1.267914553968907398485 25.25970664892169637
1.596209851975117999245 59.34046069577733817 1.596209851975117999245 27.31929886745232494
2.009509145207687197399 65.76109462446972032 2.009509145207687197399 29.51159268227661769
2.529822128134725289783 72.65878399571803925 2.529822128134725289783 31.87481853213266803
3.184857364427983839050 80.07165920251993896 3.184857364427983839050 34.46097915828472935
4.009497869018204596614 88.03058944685547260 4.009497869018204596614 37.28943931306694282
5.009497869018190385759 96.28068360395012348 5.009497869018190385759 40.27526698564022922
6.009497869018190385759 103.44729142550028200 6.009497869018190385759 42.89854922659386460
7.009497869018204596614 109.81230886701514748 7.009497869018204596614 45.23817073787360954
8.009497869018190385759 115.55241913024443079 8.009497869018190385759 47.33797262238077508
9.009497869018204596614 120.78687952030416852 9.009497869018204596614 49.23663515639665889
10.009497869018190385759 125.60090478869479114 10.009497869018190385759 50.95907800909262164
11.009497869018190385759 130.05808195157572982 11.009497869018190385759 52.51415936038528542
12.009497869018204596614 134.20753675988922282 12.009497869018204596614 53.93614203058579903
13.009497869018190385759 138.08807024142541309 13.009497869018190385759 55.23972278699356053
14.009497869018204596614 141.73142975474971195 14.009497869018204596614 56.43569475437065108
15.009497869018190385759 145.16322698743232422 15.009497869018190385759 57.53686811354604913
16.009497869018190385759 148.40471252847848405 16.009497869018190385759 58.55438482684015611
17.009497869018204596614 151.47448633465080547 17.009497869018204596614 59.49862445347294226
18.009497869018190385759 154.38864903241943694 18.009497869018190385759 60.38030463906269318
19.009497869018204596614 157.16088611323954183 19.009497869018204596614 61.20217733613579725
20.009497869018190385759 159.80354722722520933 20.009497869018190385759 61.96832793283071794
21.009497869018190385759 162.32675032698259088 21.009497869018190385759 62.68254635295076582
22.009497869018204596614 164.73915346295999029 22.009497869018204596614 63.35105420344143567
23.009497869018190385759 167.04867210295284963 23.009497869018190385759 63.97614483936746410
24.009497869018204596614 169.26262317576441774 24.009497869018204596614 64.56445814150822571
25.009497869018204596614 171.38786699228145949 25.009497869018204596614 65.11908725638338069
26.009497869018190385759 173.43044214040571660 26.009497869018190385759 65.64328400102697003
27.009497869018204596614 175.39585687881279341 27.009497869018204596614 66.14059873320661609
28.009497869018190385759 177.28889517885016858 28.009497869018190385759 66.61220756195477577
29.009497869018190385759 179.11384806177093765 29.009497869018190385759 67.05613424129036559
30.009497869018190385759 180.87469755704890417 30.009497869018190385759 67.48132246422200353
31.009497869018218807469 182.57509136046380149 31.009497869018218807469 67.88472434251367815
32.009497869018190385759 184.21838934519448117 32.009497869018190385759 68.26797545599544037
33.009497869018190385759 185.80770102967039747 33.009497869018190385759 68.63050925404525060
34.009497869018218807469 187.34601623779528268 34.009497869018218807469 68.97986032281463054
35.009497869018190385759 188.83599862721453633 35.009497869018190385759 69.31283027941771024
36.009497869018190385759 190.28011051835531475 36.009497869018190385759 69.63375761396947894
37.009497869018190385759 191.68063286242747267 37.009497869018190385759 69.94235321879918388
38.009497869018218807469 193.03973797894346376 38.009497869018218807469 70.23998405167672843
39.009497869018190385759 194.35941333047614421 39.009497869018190385759 70.52872759641273603
40.009497869018190385759 195.64152005891827457 40.009497869018190385759 70.80768077413203798
41.009497869018218807469 196.88784546260612274 41.009497869018218807469 71.07660778336345686
42.009497869018190385759 198.10002592564680413 42.009497869018190385759 71.33453606755718113
43.009497869018190385759 199.27959941542755473 43.009497869018190385759 71.58683671967098405
44.009497869018218807469 200.42805337081662742 44.009497869018218807469 71.82490230191416458
46.009497869018190385759 202.63714913814104079 46.009497869018190385759 72.28208866503290153
48.009497869018218807469 204.73683755393693673 48.009497869018218807469 72.70613122242367865
50.009497869018190385759 206.73471949121906732 50.009497869018190385759 73.08380217697423120
52.009497869018190385759 208.63834967318047120 52.009497869018190385759 73.42645173783880352
54.009497869018218807469 210.45490098017907599 54.009497869018218807469 73.73894349794694847
56.009497869018190385759 212.19005523701531502 56.009497869018190385759 74.02456531990254973
58.009497869018218807469 213.84876465254768618 58.009497869018218807469 74.29463589942935187
60.009497869018190385759 215.43591535562475769 60.009497869018190385759 74.56749270173924060
62.009497869018190385759 216.95562293646193552 62.009497869018190385759 74.83399280794884589
64.009497869018218807469 218.41218162892258192 64.009497869018218807469 75.09408852692430969
66.009497869018190385759 219.81132767327642341 66.009497869018190385759 75.37390050154975540
68.009497869018190385759 221.15801705920424070 68.009497869018190385759 75.65946867395466313
70.009497869018190385759 222.45524308834859539 70.009497869018190385759 75.90516792628683618
72.009497869018190385759 223.70611566994625719 72.009497869018190385759 76.10685370528192095
74.009497869018218807469 224.91351510356591348 74.009497869018218807469 76.29750594496491090
76.009497869018190385759 226.07975688930676483 76.009497869018190385759 76.47766618617843903
78.009497869018190385759 227.20780671465828959 78.009497869018190385759 76.68099194103483285
80.009497869018218807469 228.29950455505272089 80.009497869018218807469 76.83181408028326587
82.009497869018190385759 229.35483889624677545 82.009497869018190385759 77.00330304602915987
84.009497869018218807469 230.37432319145435144 84.009497869018218807469 77.15276696909094767
86.009497869018190385759 231.35879938839741499 86.009497869018190385759 77.23721058800987294
88.009497869018190385759 232.31063921819088591 88.009497869018190385759 77.33931370115529091
91.009497869018218807469 233.67940596650771568 91.009497869018218807469 77.45951695802601478
94.009497869018218807469 234.98204940985039002 94.009497869018218807469 77.63324204410878338
97.009497869018218807469 236.22748933704571073 97.009497869018218807469 77.90366287129889145
99.504748934509137825444 237.22626282388125674 99.504748934509137825444 77.95950895661302127
nan nan nan nan

