Time Pressure difference Time.1 Pressure.1 difference.1
(hr) (psi) (hr) (psi)
0.000200000000020850166 0.31867833472257406 0.000200000000020850166 0.25661483462808315
0.000399999999999067768 0.61137436312789062 0.000399999999999067768 0.58792981967172431
0.000600000000019917934 0.88904889706677270 0.000600000000019917934 0.82598573008883780
0.000799999999998135536 1.15547946757967002 0.000799999999998135536 1.05422802013167582
0.001007140329434719206 1.42182918053579987 0.001007140329434719206 1.28138854712306194
0.001267914553977789183 1.74557457154794737 0.001267914553977789183 1.55465873137051691
0.001596209851982166583 2.13776662583470012 0.001596209851982166583 1.87968267867823280
0.002009509145224797066 2.61118619538646790 0.002009509145224797066 2.26433389435152721
0.002529822128153114136 3.18050933459648189 0.002529822128153114136 2.71719055264058040
0.003184857364431081805 3.86246609299505250 0.003184857364431081805 3.24750147862568594
0.004009497869034817086 4.67599001338833276 0.004009497869034817086 3.86514438417729567
0.005047658755856332391 5.64235744690751151 0.005047658755856332391 4.58058642979672737
0.006354625877790454069 6.78531854278891000 0.006354625877790454069 5.40486076720059572
0.008000000000009777068 8.13122527109848114 0.008000000000009777068 6.34957538303182734
0.010071403294361402914 9.70916579406563329 0.010071403294361402914 7.42697141562951746
0.012679145539692626699 11.55111837185731005 0.012679145539692626699 8.65004538220519059
0.015962098519750611558 13.69214065221442844 0.015962098519750611558 10.03274022226282725
0.020095091452091651263 16.17060962814736769 0.020095091452091651263 11.59019376866872975
0.025298221281360611101 19.02852264302828189 0.025298221281360611101 13.33902772864522213
0.031848573644296607199 22.31186661988260767 0.031848573644296607199 15.29770270848579194
0.040094978690191851456 26.07107720223182667 0.040094978690191851456 17.48705078308574201
0.050476587558435426217 30.36164567296216532 0.050476587558435426217 19.93107788156355298
0.063546258777947173257 35.24493687167306177 0.063546258777947173257 22.65776545959001709
0.080000000000012505552 40.78915010182200263 0.080000000000012505552 25.69892114915367287
0.100714032943542974863 47.07004714781393062 0.100714032943542974863 29.08774496926888986
0.126791455396883634421 54.17076404499324838 0.126791455396883634421 32.85339296310321089
0.159620985197506115583 62.17999923264046203 0.159620985197506115583 37.01365918834586211
0.200950914520774404082 71.18841037769730917 0.200950914520774404082 41.56869072385862296
0.252982212813464002465 81.28385338123838721 0.252982212813464002465 46.49940445319122517
0.318485736442809752589 92.54698097603321116 0.318485736442809752589 51.76946934218741347
0.400949786901833249431 105.04730789686622927 0.400949786901833249431 57.33786232722890475
0.504765875584169521062 118.84446227345259217 0.504765875584169521062 63.16622414085846771
0.635462587779443310865 133.98747718053789413 0.635462587779443310865 69.22809385210595678
0.800000000000011368684 150.52005441987552103 0.800000000000011368684 75.52126174389796631
1.007140329435344483500 168.48520674663353702 1.007140329435344483500 82.08313279629199144
1.267914553968907398485 187.93705769985444931 1.267914553968907398485 88.93086803669952189
1.596209851975117999245 208.91765501157971130 1.596209851975117999245 96.18199435979082068
2.009509145207687197399 231.52253148780246761 2.009509145207687197399 103.90031803842842351
2.529822128134725289783 255.80695853037920529 2.529822128134725289783 112.22043549329353596
3.184857364427983839050 281.90518033283876775 3.184857364427983839050 121.32543075561402190
4.009497869018204596614 309.92587689554079589 4.009497869018204596614 131.28348055674806005
5.009497869018190385759 338.97166293622109379 5.009497869018190385759 141.79556806514656842
6.009497869018190385759 364.20286072118278753 6.009497869018190385759 151.03125595478502419
7.009497869018204596614 386.61193039130949956 7.009497869018204596614 159.26827053168725001
8.009497869018190385759 406.82091363210025747 8.009497869018190385759 166.66096146391907951
9.009497869018204596614 425.24967500536837406 9.009497869018204596614 173.34550889772708615
10.009497869018190385759 442.19822677672709688 10.009497869018190385759 179.40964654440873005
11.009497869018190385759 457.89043728405988531 11.009497869018190385759 184.88456105391844631
12.009497869018204596614 472.49926165051908811 12.009497869018204596614 189.89088020685579750
13.009497869018190385759 486.16130514749772829 13.009497869018190385759 194.48034634098561924
14.009497869018204596614 498.98833946713529031 14.009497869018204596614 198.69095839142065074
15.009497869018190385759 511.07053468302615329 15.009497869018190385759 202.56781666421994714
16.009497869018190385759 522.48270691844481917 16.009497869018190385759 206.15014823333805793
17.009497869018204596614 533.29034031868798138 17.009497869018204596614 209.47449600974772466
18.009497869018190385759 543.55011973397267866 18.009497869018190385759 212.57859319207196336
19.009497869018204596614 553.31022714247967542 19.009497869018204596614 215.47212847267644520
20.009497869018190385759 562.61414147766890892 20.009497869018190385759 218.16948511889162887
21.009497869018190385759 571.49748462226932588 21.009497869018190385759 220.68400616823987548
22.009497869018204596614 579.99073863818966856 22.009497869018204596614 223.03759579062850094
23.009497869018190385759 588.12177120543731235 23.009497869018190385759 225.23832811215319794
24.009497869018204596614 595.91634275103842810 24.009497869018204596614 227.30957990316119322
25.009497869018204596614 603.39860610505706973 25.009497869018204596614 229.26224108445717320
26.009497869018190385759 610.58982108936231725 26.009497869018190385759 231.10776020196269087
27.009497869018204596614 617.50938041631604847 27.009497869018204596614 232.85863686236379522
28.009497869018190385759 624.17412682801796109 28.009497869018190385759 234.51901174704738651
29.009497869018190385759 630.59916755631763863 29.009497869018190385759 236.08192716355119956
30.009497869018190385759 636.79852197770924249 30.009497869018190385759 237.57887082445105875
31.009497869018218807469 642.78503239303779537 31.009497869018218807469 238.99911214802338577
32.009497869018190385759 648.57052777729620630 32.009497869018190385759 240.34840945664507217
33.009497869018190385759 654.16595569123626319 33.009497869018190385759 241.62476811754777373
34.009497869018218807469 659.58184229174207758 34.009497869018218807469 242.85471485552918125
35.009497869018190385759 664.82756541482149260 35.009497869018190385759 244.02698924819793547
36.009497869018190385759 669.91179405635841704 36.009497869018190385759 245.15686564918178192
37.009497869018190385759 674.84255867267859230 37.009497869018190385759 246.24332620833430951
38.009497869018218807469 679.62750726471006146 38.009497869018218807469 247.29118352077924214
39.009497869018190385759 684.27363701473416313 39.009497869018190385759 248.30775170307288136
40.009497869018190385759 688.78750037272050122 40.009497869018190385759 249.28985132049791673
41.009497869018218807469 693.17538981049756330 41.009497869018218807469 250.23665219597384635
42.009497869018190385759 697.44306648202928045 42.009497869018190385759 251.14473028743276473
43.009497869018190385759 701.59594504935648729 43.009497869018190385759 252.03299539322179612
44.009497869018218807469 705.63926228072625690 44.009497869018218807469 252.87114364144989054
46.009497869018190385759 713.41673994089330790 46.009497869018190385759 254.48074191160341684
48.009497869018218807469 720.80903138824078269 48.009497869018218807469 255.97365207233460183
50.009497869018190385759 727.84289672115141911 50.009497869018190385759 257.30330353215720152
52.009497869018190385759 734.54493356012301319 52.009497869018190385759 258.50965653156475810
54.009497869018218807469 740.94039518641557152 54.009497869018218807469 259.60983413326778191
56.009497869018190385759 747.04928537990519999 56.009497869018190385759 260.61541178742550073
58.009497869018218807469 752.88903918996118136 58.009497869018218807469 261.56623878642074033
60.009497869018190385759 758.47685902062937657 60.009497869018190385759 262.52687513174316791
62.009497869018190385759 763.82723447051887433 62.009497869018190385759 263.46513170401829029
64.009497869018218807469 768.95528408199186288 64.009497869018218807469 264.38084059892361211
66.009497869018190385759 773.88120321335338758 66.009497869018190385759 265.36596374925778719
68.009497869018190385759 778.62244022496702200 68.009497869018190385759 266.37135252152637577
70.009497869018190385759 783.18953351765708248 70.009497869018190385759 267.23637633552220905
72.009497869018190385759 787.59343202807519901 72.009497869018190385759 267.94644362355450085
74.009497869018218807469 791.84427631503376688 74.009497869018218807469 268.61766555830627112
76.009497869018190385759 795.95021846979079783 76.009497869018190385759 269.25194872158687076
78.009497869018190385759 799.92169967309439471 78.009497869018190385759 269.96778980893253674
80.009497869018218807469 803.76519785497896464 80.009497869018218807469 270.49878345620385289
82.009497869018190385759 807.48067247769517962 82.009497869018190385759 271.10253799676388553
84.009497869018218807469 811.06993123602944706 84.009497869018218807469 271.62874982506400556
86.009497869018190385759 814.53593834262233031 86.009497869018190385759 271.92604719415049885
88.009497869018190385759 817.88704385908522454 88.009497869018190385759 272.28551765861283229
91.009497869018218807469 822.70600778291134247 91.009497869018218807469 272.70871259602546388
94.009497869018218807469 827.29217395534112711 94.009497869018218807469 273.32033975859786779
97.009497869018218807469 831.67694593042540419 97.009497869018218807469 274.27239986093661628
99.504748934509137825444 835.19328895019350512 99.504748934509137825444 274.46901500427389919
nan nan nan nan

