Time Pressure difference Time.1 Pressure.1 difference.1
(hr) (psi) (hr) (psi)
0.000200000000020850166 0.06957062236901265 0.000200000000020850166 0.05602154840472238
0.000399999999999067768 0.13346905110538457 0.000399999999999067768 0.12835087612551729
0.000600000000019917934 0.19408813950049261 0.000600000000019917934 0.18032082839967584
0.000799999999998135536 0.25225255982373074 0.000799999999998135536 0.23014837059212642
0.001007140329434719206 0.31039932814513943 0.001007140329434719206 0.27973975324517553
0.001267914553977789183 0.38107613885905894 0.001267914553977789183 0.33939732867947903
0.001596209851982166583 0.46669553099208233 0.001596209851982166583 0.41035326083820578
0.002009509145224797066 0.57004769054211635 0.002009509145224797066 0.49432641355561507
0.002529822128153114136 0.69433654487669660 0.002529822128153114136 0.59318948684407036
0.003184857364431081805 0.84321442875244113 0.003184857364431081805 0.70896159040419915
0.004009497869034817086 1.02081472123266415 0.004009497869034817086 0.84379912612321240
0.005047658755856332391 1.23178225953614695 0.005047658755856332391 0.99998717833590534
0.006354625877790454069 1.48130193539757893 0.006354625877790454069 1.17993439283956669
0.008000000000009777068 1.77512664369051332 0.008000000000009777068 1.38617490756328632
0.010071403294361402914 2.11960661701432818 0.010071403294361402914 1.62138108369376810
0.012679145539692626699 2.52172302484208899 0.012679145539692626699 1.88839018907296441
0.015962098519750611558 2.98912929731441723 0.015962098519750611558 2.19024610486019489
0.020095091452091651263 3.53020351037020008 0.020095091452091651263 2.53025356921641320
0.025298221281360611101 4.15411409812589305 0.025298221281360611101 2.91204126470423841
0.031848573644296607199 4.87090045927014703 0.031848573644296607199 3.33963932368351779
0.040094978690191851456 5.69157319203652623 0.040094978690191851456 3.81759559349054944
0.050476587558435426217 6.62824659057624732 0.050476587558435426217 4.35115080513007157
0.063546258777947173257 7.69431720437933109 0.063546258777947173257 4.94641358624852501
0.080000000000012505552 8.90467361377804068 0.080000000000012505552 5.61032785650537846
0.100714032943542974863 10.27585536325515392 0.100714032943542974863 6.35014150737560268
0.126791455396883634421 11.82601186897739964 0.126791455396883634421 7.17221959053661529
0.159620985197506115583 13.57450687473136774 0.159620985197506115583 8.08044672421634935
0.200950914520774404082 15.54113184301842487 0.200950914520774404082 9.07485501718040410
0.252982212813464002465 17.74506658322809827 0.252982212813464002465 10.15127843696428123
0.318485736442809752589 20.20391838209176072 0.318485736442809752589 11.30178556061837725
0.400949786901833249431 22.93286299156939023 0.400949786901833249431 12.51742064890208539
0.504765875584169521062 25.94491782026077331 0.504765875584169521062 13.78980949553952584
0.635462587779443310865 29.25078727180757099 0.635462587779443310865 15.11317541841749978
0.800000000000011368684 32.86001188039536203 0.800000000000011368684 16.48703601451293466
1.007140329435344483500 36.78198175454675578 1.007140329435344483500 17.91955715975388586
1.267914553968907398485 41.02851259644709359 1.267914553968907398485 19.41448527561750126
1.596209851975117999245 45.60878384055613566 1.596209851975117999245 20.99747764192616728
2.009509145207687197399 50.54365124029489920 2.009509145207687197399 22.68246379712169869
2.529822128134725289783 55.84518108761800192 2.529822128134725289783 24.49882746684577128
3.184857364427983839050 61.54268021350706164 3.184857364427983839050 26.48653770016925435
4.009497869018204596614 67.65987453353353942 4.009497869018204596614 28.66047814971260976
5.009497869018190385759 74.00085599311867668 5.009497869018190385759 30.95537049309537991
6.009497869018190385759 79.50907522786384618 6.009497869018190385759 32.97161221548123677
7.009497869018204596614 84.40119607134221269 7.009497869018204596614 34.76983370762186354
8.009497869018190385759 88.81301635630357794 8.009497869018190385759 36.38373102381331847
9.009497869018204596614 92.83619665610154925 9.009497869018204596614 37.84303363260239195
10.009497869018190385759 96.53623260618691404 10.009497869018190385759 39.16689466814556653
11.009497869018190385759 99.96199687187223049 11.009497869018190385759 40.36212248360191523
12.009497869018204596614 103.15124726173301895 12.009497869018204596614 41.45505131276429012
13.009497869018190385759 106.13380605332696405 13.009497869018190385759 42.45697701810248503
14.009497869018204596614 108.93407410902248955 14.009497869018204596614 43.37619514178901881
15.009497869018190385759 111.57173644488599962 15.009497869018190385759 44.22255152528745725
16.009497869018190385759 114.06312615825206080 16.009497869018190385759 45.00460982558788459
17.009497869018204596614 116.42253908365724158 17.009497869018204596614 45.73034772043788365
18.009497869018190385759 118.66235008276866836 18.009497869018190385759 46.40800273911430196
19.009497869018204596614 120.79307775645682455 19.009497869018204596614 47.03969001868289013
20.009497869018190385759 122.82421398456152417 20.009497869018190385759 47.62854956820873298
21.009497869018190385759 124.76353537528414961 21.009497869018190385759 48.17749430433406133
22.009497869018204596614 126.61769646326676764 22.009497869018204596614 48.69130612330621943
23.009497869018190385759 128.39278103780674201 23.009497869018190385759 49.17174768645597993
24.009497869018204596614 130.09441285409994293 24.009497869018204596614 49.62392237322533362
25.009497869018204596614 131.72786471307583156 25.009497869018204596614 50.05020756069135501
26.009497869018190385759 133.29777784345233727 26.009497869018190385759 50.45310257930171360
27.009497869018204596614 134.80838586553380765 27.009497869018204596614 50.83533621643153566
28.009497869018190385759 136.26336571597573766 28.009497869018190385759 51.19781242365119311
29.009497869018190385759 137.66601545243551641 29.009497869018190385759 51.53901226809920644
30.009497869018190385759 139.01939564302105623 30.009497869018190385759 51.86580982787311456
31.009497869018218807469 140.32630988862092636 31.009497869018218807469 52.17586251118820684
32.009497869018190385759 141.58934057109988203 32.009497869018190385759 52.47042741659153364
33.009497869018190385759 142.81087765090367725 33.009497869018190385759 52.74906909608436933
34.009497869018218807469 143.99321909185917434 34.009497869018218807469 53.01757859522116689
35.009497869018190385759 145.13841216802441636 35.009497869018190385759 53.27349765277559612
36.009497869018190385759 146.24834940666980287 36.009497869018190385759 53.52016081073687559
37.009497869018190385759 147.32478393558474750 37.009497869018190385759 53.75734586238283441
38.009497869018218807469 148.36938538877470251 38.009497869018218807469 53.98610344467715549
39.009497869018190385759 149.38368132011802913 39.009497869018190385759 54.20803030137507506
40.009497869018190385759 150.36910219404461486 40.009497869018190385759 54.42243233053123674
41.009497869018218807469 151.32702171919314083 41.009497869018218807469 54.62912829630415246
42.009497869018190385759 152.25869761227397703 42.009497869018190385759 54.82737069655222228
43.009497869018190385759 153.16531194739471289 43.009497869018190385759 55.02128772668927326
44.009497869018218807469 154.04800796269378793 44.009497869018218807469 55.20426375271089370
46.009497869018190385759 155.74590801526542805 46.009497869018190385759 55.55565492436413422
48.009497869018218807469 157.35971811996805059 48.009497869018218807469 55.88157193128431999
50.009497869018190385759 158.89528027011050426 50.009497869018190385759 56.17184795420332222
52.009497869018190385759 160.35840098847754120 52.009497869018190385759 56.43520670759511404
54.009497869018218807469 161.75459331534426610 54.009497869018218807469 56.67538632486832029
56.009497869018190385759 163.08822427307791258 56.009497869018190385759 56.89491384091684267
58.009497869018218807469 164.36310010485067323 58.009497869018218807469 57.10248874914817918
60.009497869018190385759 165.58297626506697497 60.009497869018190385759 57.31220513439462394
62.009497869018190385759 166.75101597595832459 62.009497869018190385759 57.51703579453918991
64.009497869018218807469 167.87051976437851408 64.009497869018218807469 57.71694407441290053
66.009497869018190385759 168.94589647615461558 66.009497869018190385759 57.93200617061261681
68.009497869018190385759 169.98095526038011371 68.009497869018190385759 58.15149245188251115
70.009497869018190385759 170.97799675385471119 70.009497869018190385759 58.34033567888160832
72.009497869018190385759 171.93941121739669597 72.009497869018190385759 58.49535036852245895
74.009497869018218807469 172.86741243497218079 74.009497869018218807469 58.64188473455980954
76.009497869018190385759 173.76378008847547108 76.009497869018190385759 58.78035500259995416
78.009497869018190385759 174.63079359060512274 78.009497869018190385759 58.93663016955569844
80.009497869018218807469 175.46986713735455510 80.009497869018218807469 59.05255131790365652
82.009497869018190385759 176.28099187893346311 82.009497869018190385759 59.18435688661746497
84.009497869018218807469 177.06456245293597362 84.009497869018218807469 59.29923411673932776
86.009497869018190385759 177.82122597620627857 86.009497869018190385759 59.36413706351173403
88.009497869018190385759 178.55280534951862137 88.009497869018190385759 59.44261300997886366
91.009497869018218807469 179.60483268500178156 91.009497869018218807469 59.53500063716047919
94.009497869018218807469 180.60603797616599309 94.009497869018218807469 59.66852487687700091
97.009497869018218807469 181.56327692847312960 97.009497869018218807469 59.87636898372559813
99.504748934509137825444 182.33092927785915549 99.504748934509137825444 59.91929200797529376
nan nan nan nan

