Time Pressure difference Time.1 Pressure.1 difference.1
(hr) (psi) (hr) (psi)
0.000200000000020850166 0.40994302213138634 0.000200000000020850166 0.33010546801922430
0.000399999999999067768 0.78646279576076061 0.000399999999999067768 0.75630408727724163
0.000600000000019917934 1.14365914458354800 0.000600000000019917934 1.06253563401099305
0.000799999999998135536 1.48639142777854261 0.000799999999998135536 1.35614308692994934
0.001007140329434719206 1.82901969702727318 0.001007140329434719206 1.64835897611135684
0.001267914553977789183 2.24548090424477742 0.001267914553977789183 1.99988963565972599
0.001596209851982166583 2.74999087079205484 0.001596209851982166583 2.41799555848749215
0.002009509145224797066 3.35899069265677097 0.002009509145224797066 2.91280510353201150
0.002529822128153114136 4.09135942572505140 0.002529822128153114136 3.49535310527473708
0.003184857364431081805 4.96861835436922217 0.003184857364431081805 4.17753711334947386
0.004009497869034817086 6.01512330360752667 0.004009497869034817086 4.97206366790882104
0.005047658755856332391 7.25824385189041443 0.005047658755856332391 5.89239756696856087
0.006354625877790454069 8.72853183438573410 0.006354625877790454069 6.95273169114067269
0.008000000000009777068 10.45988602948818702 0.008000000000009777068 8.16799838005033330
0.010071403294361402914 12.48972501208442942 0.010071403294361402914 9.55394445015252636
0.012679145539692626699 14.85918513562865328 0.012679145539692626699 11.12728842593531731
0.015962098519750611558 17.61336403148710517 0.015962098519750611558 12.90596629530523387
0.020095091452091651263 20.80162928691257562 0.020095091452091651263 14.90945113903864971
0.025298221281360611101 24.47800565347300150 0.025298221281360611101 17.15912487159056354
0.031848573644296607199 28.70165001806495297 0.031848573644296607199 19.67873493955449149
0.040094978690191851456 33.53744203479586616 0.040094978690191851456 22.49507941110560338
0.050476587558435426217 39.05676485629874861 0.050476587558435426217 25.63903915280944901
0.063546258777947173257 45.33855729032121218 0.063546258777947173257 29.14660908886227375
0.080000000000012505552 52.47054989624049881 0.080000000000012505552 33.05870607919298010
0.100714032943542974863 60.55020149530994189 0.100714032943542974863 37.41803812948204211
0.126791455396883634421 69.68445703440445982 0.126791455396883634421 42.26211113563510935
0.159620985197506115583 79.98741685325579454 0.159620985197506115583 47.61381510613504986
0.200950914520774404082 91.57570161262469810 0.200950914520774404082 53.47333924102001390
0.252982212813464002465 104.56232782375266765 0.252982212813464002465 59.81613530598308159
0.318485736442809752589 119.05104595039014725 0.318485736442809752589 66.59546760450399461
0.400949786901833249431 135.13127870301102007 0.400949786901833249431 73.75856468385315168
0.504765875584169521062 152.87973081185919000 0.504765875584169521062 81.25608175866301508
0.635462587779443310865 172.35947768764032162 0.635462587779443310865 89.05397988486870986
0.800000000000011368684 193.62673667157696400 0.800000000000011368684 97.14941651562460834
1.007140329435344483500 216.73683872571641018 1.007140329435344483500 105.59050885532396080
1.267914553968907398485 241.75940755755922851 1.267914553968907398485 114.39933259181064784
1.596209851975117999245 268.74853273790068897 1.596209851975117999245 123.72707255672621329
2.009509145207687197399 297.82710623313556653 2.009509145207687197399 133.65580818088915294
2.529822128134725289783 329.06622834424371149 2.529822128134725289783 144.35868227775787886
3.184857364427983839050 362.63858878496631633 3.184857364427983839050 156.07121139454571335
4.009497869018204596614 398.68399187501483993 4.009497869018204596614 168.88109705422053253
5.009497869018190385759 436.04805466912949896 5.009497869018190385759 182.40368849694914388
6.009497869018190385759 468.50508843945584658 6.009497869018190385759 194.28433864606148518
7.009497869018204596614 497.33177900102725744 7.009497869018204596614 204.88031044921271473
8.009497869018190385759 523.32831143284249720 8.009497869018190385759 214.39015700053442970
9.009497869018204596614 547.03479319939413017 9.009497869018204596614 222.98905839425924569
10.009497869018190385759 568.83715557194011581 10.009497869018190385759 230.78987395853516773
11.009497869018190385759 589.02337941705366120 11.009497869018190385759 237.83272173133170213
12.009497869018204596614 607.81595160677102285 12.009497869018204596614 244.27277547736377983
13.009497869018190385759 625.39059910992659752 13.009497869018190385759 250.17659576258242282
14.009497869018204596614 641.89110335208954439 14.009497869018204596614 255.59306384624065345
15.009497869018190385759 657.43345776126375313 15.009497869018190385759 260.58019608448950066
16.009497869018190385759 672.11390467443152374 16.009497869018190385759 265.18845359593717603
17.009497869018204596614 686.01668191230282901 17.009497869018204596614 269.46484463225760919
18.009497869018190385759 699.21470801459395261 18.009497869018190385759 273.45790861327566290
19.009497869018204596614 711.76996355417577433 19.009497869018204596614 277.18010892729267880
20.009497869018190385759 723.73837917784635465 20.009497869018190385759 280.64994799331600461
21.009497869018190385759 735.16577834038400852 21.009497869018190385759 283.88459009435553071
22.009497869018204596614 746.09137270828171040 22.009497869018204596614 286.91221242550335546
23.009497869018190385759 756.55101084643115428 23.009497869018190385759 289.74320142126748578
24.009497869018204596614 766.57783058114796404 24.009497869018204596614 292.40762860782240296
25.009497869018204596614 776.20290175016725698 25.009497869018204596614 294.91950261568666747
26.009497869018190385759 785.45357266894484383 26.009497869018190385759 297.29355068233701331
27.009497869018204596614 794.35478983131736186 27.009497869018204596614 299.54585211402667255
28.009497869018190385759 802.92821948768505536 28.009497869018190385759 301.68173342108440238
29.009497869018190385759 811.19329535413623944 29.009497869018190385759 303.69224433245557293
30.009497869018190385759 819.16805174597345740 30.009497869018190385759 305.61789016854265810
31.009497869018218807469 826.86900880606742703 31.009497869018218807469 307.44486727022723471
32.009497869018190385759 834.31138315013686224 32.009497869018190385759 309.18058305690493626
33.009497869018190385759 841.50925755586263222 33.009497869018190385759 310.82247166294877161
34.009497869018218807469 848.47617271332080691 34.009497869018218807469 312.40465666861507543
35.009497869018190385759 855.22419212986426373 35.009497869018190385759 313.91265283570999145
36.009497869018190385759 861.76446747155966932 36.009497869018190385759 315.36610886326678838
37.009497869018190385759 868.10732899677896057 37.009497869018190385759 316.76371540414834271
38.009497869018218807469 874.26261497901668918 38.009497869018218807469 318.11166330842024763
39.009497869018190385759 880.23932648843742754 39.009497869018190385759 319.41936134573694517
40.009497869018190385759 886.04589249824130093 40.009497869018190385759 320.68271953904428528
41.009497869018218807469 891.69040754965408269 41.009497869018218807469 321.90066996101796803
42.009497869018190385759 897.18028270458216866 42.009497869018190385759 323.06880797538298111
43.009497869018190385759 902.52248330292798073 43.009497869018190385759 324.21145886264218916
44.009497869018218807469 907.72374584469014280 44.009497869018218807469 325.28964017726417524
46.009497869018190385759 917.72857626199413517 46.009497869018190385759 327.36020321023164570
48.009497869018218807469 927.23790892196223012 48.009497869018218807469 329.28066041229897110
50.009497869018190385759 936.28616761312434846 50.009497869018190385759 330.99110407423034985
52.009497869018190385759 944.90756711490007547 52.009497869018190385759 332.54293844905510014
54.009497869018218807469 953.13459286891020383 54.009497869018218807469 333.95819038739608686
56.009497869018190385759 960.99297743706119945 56.009497869018190385759 335.25175037443472092
58.009497869018218807469 968.50514900492669312 58.009497869018218807469 336.47487994121729571
60.009497869018190385759 975.69323648663123549 60.009497869018190385759 337.71062810374468199
62.009497869018190385759 982.57587908414166122 62.009497869018190385759 338.91758726244597710
64.009497869018218807469 989.17252506321960936 64.009497869018218807469 340.09554142772333307
66.009497869018190385759 995.50915342938412778 66.009497869018190385759 341.36278904834097148
68.009497869018190385759 1001.60820949127207768 68.009497869018190385759 342.65610606055503240
70.009497869018190385759 1007.48324968938038637 70.009497869018190385759 343.76885969921636388
72.009497869018190385759 1013.14835857132675301 72.009497869018190385759 344.68227959086351575
74.009497869018218807469 1018.61658079962080592 74.009497869018218807469 345.54572940364278111
76.009497869018190385759 1023.89840310198439965 76.009497869018190385759 346.36166173575026050
78.009497869018190385759 1029.00725685646875718 78.009497869018190385759 347.28250895609164672
80.009497869018218807469 1033.95147517494956446 80.009497869018218807469 347.96557120657206497
82.009497869018190385759 1038.73100591027468909 82.009497869018190385759 348.74223197705771327
84.009497869018218807469 1043.34817445385942847 84.009497869018218807469 349.41914296745324009
86.009497869018190385759 1047.80679392431216002 86.009497869018190385759 349.80158183660671511
88.009497869018190385759 1052.11760571544300547 88.009497869018190385759 350.26399924159591137
91.009497869018218807469 1058.31664850947277046 91.009497869018218807469 350.80839085122522647
94.009497869018218807469 1064.21622377353742195 94.009497869018218807469 351.59517884439350155
97.009497869018218807469 1069.85672856777705420 97.009497869018218807469 352.81989465679168916
99.504748934509137825444 1074.38009940071833626 99.504748934509137825444 353.07281742333827879
nan nan nan nan

