Time Pressure difference Time.1 Pressure.1 difference.1
(hr) (psi) (hr) (psi)
0.000200000000020850166 0.12866824782225994 0.000200000000020850166 0.10360974543669084
0.000399999999999067768 0.24684598699060370 0.000399999999999067768 0.23738011498482767
0.000600000000019917934 0.35895870961381432 0.000600000000019917934 0.33349658585746506
0.000799999999998135536 0.46653161601808268 0.000799999999998135536 0.42565074991231983
0.001007140329434719206 0.57407187570929019 0.001007140329434719206 0.51736814578677626
0.001267914553977789183 0.70478597724471115 0.001267914553977789183 0.62770258637495047
0.001596209851982166583 0.86313582075955009 0.001596209851982166583 0.75893291251797201
0.002009509145224797066 1.05428175024993553 0.002009509145224797066 0.91423809818887958
0.002529822128153114136 1.28414930880421330 0.002529822128153114136 1.09708163158258176
0.003184857364431081805 1.55949335210128881 0.003184857364431081805 1.31119778010238974
0.004009497869034817086 1.88795840916148649 0.004009497869034817086 1.56057472788379070
0.005047658755856332391 2.27813493161523928 0.005047658755856332391 1.84943865240619076
0.006354625877790454069 2.73961218159552233 0.006354625877790454069 2.18224425342371475
0.008000000000009777068 3.28302992166417518 0.008000000000009777068 2.56367832366543302
0.010071403294361402914 3.92013266802650007 0.010071403294361402914 2.99868329457342053
0.012679145539692626699 4.66383183089074471 0.012679145539692626699 3.49250658624247201
0.015962098519750611558 5.52828214126967499 0.015962098519750611558 4.05077774232208121
0.020095091452091651263 6.52897853530832606 0.020095091452091651263 4.67960875166906565
0.025298221281360611101 7.68287768685649031 0.025298221281360611101 5.38571072611966617
0.031848573644296607199 9.00854708596199139 0.031848573644296607199 6.17653724380177493
0.040094978690191851456 10.52635041968045648 0.040094978690191851456 7.06049937720832776
0.050476587558435426217 12.25869261913026342 0.050476587558435426217 8.04728966110077693
0.063546258777947173257 14.23035009842198839 0.063546258777947173257 9.14820577241662569
0.080000000000012505552 16.46885872655724015 0.080000000000012505552 10.37609022923575530
0.100714032943542974863 19.00480776860093357 0.100714032943542974863 11.74434773407100785
0.126791455396883634421 21.87176388671088745 0.126791455396883634421 13.26475021045481739
0.159620985197506115583 25.10553959627736731 0.159620985197506115583 14.94448211360443146
0.200950914520774404082 28.74273846235665530 0.200950914520774404082 16.78360282747343390
0.252982212813464002465 32.81883282059390439 0.252982212813464002465 18.77440743180490657
0.318485736442809752589 37.36638668515895034 0.318485736442809752589 20.90222705834797168
0.400949786901833249431 42.41346703817134767 0.400949786901833249431 23.15049840442106088
0.504765875584169521062 47.98414908693390402 0.504765875584169521062 25.50373369067525431
0.635462587779443310865 54.09823022312797747 0.635462587779443310865 27.95124916094419376
0.800000000000011368684 60.77335530567744115 0.800000000000011368684 30.49215262899166845
1.007140329435344483500 68.02689098690369462 1.007140329435344483500 33.14154657502869128
1.267914553968907398485 75.88068996332150107 1.267914553968907398485 35.90635986458290319
1.596209851975117999245 84.35172925350167361 1.596209851975117999245 38.83404467108925218
2.009509145207687197399 93.47858078850241270 2.009509145207687197399 41.95036315166593965
2.529822128134725289783 103.28356072118597808 2.529822128134725289783 45.30965940104809420
3.184857364427983839050 113.82087093250768817 3.184857364427983839050 48.98585467128077653
4.009497869018204596614 125.13439161040614067 4.009497869018204596614 53.00647571774805300
5.009497869018190385759 136.86179818082166548 5.009497869018190385759 57.25079273991833873
6.009497869018190385759 147.04904235690949577 6.009497869018190385759 60.97975592540615253
7.009497869018204596614 156.09683574484799351 7.009497869018204596614 64.30549890011786829
8.009497869018190385759 164.25633132563672234 8.009497869018190385759 67.29034124834292641
9.009497869018204596614 171.69705188010178176 9.009497869018204596614 69.98926650330766108
10.009497869018190385759 178.54012912111986111 10.009497869018190385759 72.43769766581760905
11.009497869018190385759 184.87595120389272552 11.009497869018190385759 74.64822652881214538
12.009497869018204596614 190.77434977438798569 12.009497869018204596614 76.66955726661782933
13.009497869018190385759 196.29048001260471779 13.009497869018190385759 78.52258115175945363
14.009497869018204596614 201.46947039518141764 14.009497869018204596614 80.22264047728721437
15.009497869018190385759 206.34772761849882272 15.009497869018190385759 81.78794475644561146
16.009497869018190385759 210.95545913139090999 16.009497869018190385759 83.23433215054963341
17.009497869018204596614 215.31910454181769410 17.009497869018204596614 84.57655707435823444
18.009497869018190385759 219.46155069071195953 18.009497869018190385759 85.82985452825440120
19.009497869018204596614 223.40225133452233308 19.009497869018204596614 86.99813637863931604
20.009497869018190385759 227.15876134779122708 20.009497869018190385759 88.08720995410646992
21.009497869018190385759 230.74546327471904306 21.009497869018190385759 89.10246258435977040
22.009497869018204596614 234.17466442668694526 22.009497869018204596614 90.05273820654484496
23.009497869018190385759 237.45761654304044441 23.009497869018190385759 90.94129679645621422
24.009497869018204596614 240.60472054736760583 24.009497869018204596614 91.77757686230921763
25.009497869018204596614 243.62572828654887758 25.009497869018204596614 92.56597527353669363
26.009497869018190385759 246.52922353842797065 26.009497869018190385759 93.31111444774082031
27.009497869018204596614 249.32303622442807978 27.009497869018204596614 94.01804117447552755
28.009497869018190385759 252.01396670051428828 28.009497869018190385759 94.68842727815058424
29.009497869018190385759 254.60811460020335062 29.009497869018190385759 95.31946354960284395
30.009497869018190385759 257.11114032902816007 30.009497869018190385759 95.92386333757178818
31.009497869018218807469 259.52822904132045778 31.009497869018218807469 96.49729410671365315
32.009497869018190385759 261.86415675515246448 32.009497869018190385759 97.04208081348110682
33.009497869018190385759 264.12334361242403702 33.009497869018190385759 97.55741811318830514
34.009497869018218807469 266.31003961075032294 34.009497869018218807469 98.05401632664559486
35.009497869018190385759 268.42803110645377274 35.009497869018190385759 98.52732899223013874
36.009497869018190385759 270.48081825749682139 36.009497869018190385759 98.98352321985744595
37.009497869018190385759 272.47164340774816083 37.009497869018190385759 99.42218804655750830
38.009497869018218807469 274.40359448246505281 38.009497869018218807469 99.84526658585453163
39.009497869018190385759 276.27949663505700073 39.009497869018190385759 100.25571195523130541
40.009497869018190385759 278.10199545565239987 40.009497869018190385759 100.65224043926207287
41.009497869018218807469 279.87363156667976227 41.009497869018218807469 101.03451684907862784
42.009497869018190385759 281.59673106786158314 42.009497869018190385759 101.40115870760195094
43.009497869018190385759 283.27348016077303328 43.009497869018190385759 101.75980095688767335
44.009497869018218807469 284.90599322132612770 44.009497869018218807469 102.09820823082013419
46.009497869018190385759 288.04619546909304972 46.009497869018190385759 102.74809297839387057
48.009497869018218807469 291.03087652295170074 48.009497869018218807469 103.35086421699894288
50.009497869018190385759 293.87084092966676963 50.009497869018190385759 103.88771879702120771
52.009497869018190385759 296.57682763460366004 52.009497869018190385759 104.37479090006839044
54.009497869018218807469 299.15903279827108463 54.009497869018218807469 104.81899406319732293
56.009497869018190385759 301.62553306418709553 56.009497869018190385759 105.22500194234081050
58.009497869018218807469 303.98336793585286841 58.009497869018218807469 105.60890392315577913
60.009497869018190385759 306.23948298485504438 60.009497869018190385759 105.99676648511695021
62.009497869018190385759 308.39972847166490055 62.009497869018190385759 106.37559308237356959
64.009497869018218807469 310.47020859648495161 64.009497869018218807469 106.74531592257010004
66.009497869018190385759 312.45907735374834147 66.009497869018190385759 107.14306517575666078
68.009497869018190385759 314.37337962134819236 68.009497869018190385759 107.54899679272894275
70.009497869018190385759 316.21737034046248027 70.009497869018190385759 107.89825523406061336
72.009497869018190385759 317.99547020851866819 72.009497869018190385759 108.18494906866519045
74.009497869018218807469 319.71177353564740997 74.009497869018218807469 108.45595886391707552
76.009497869018190385759 321.36957177653522422 76.009497869018190385759 108.71205441341066944
78.009497869018190385759 322.97308061918369049 78.009497869018190385759 109.00107945337182969
80.009497869018218807469 324.52491556586005572 80.009497869018218807469 109.21547125461752614
82.009497869018190385759 326.02506024921029848 82.009497869018190385759 109.45924069352906827
84.009497869018218807469 327.47424453661284360 84.009497869018218807469 109.67170180730283846
86.009497869018190385759 328.87366524631698894 86.009497869018190385759 109.79173736477437728
88.009497869018190385759 330.22669376470111047 88.009497869018190385759 109.93687567436951724
91.009497869018218807469 332.17237872925062447 91.009497869018218807469 110.10774311388820479
94.009497869018218807469 334.02407023548983034 94.009497869018218807469 110.35469117013811058
97.009497869018218807469 335.79444765266003969 97.009497869018218807469 110.73909102366454249
99.504748934509137825444 337.21419178270724615 99.504748934509137825444 110.81847554163172731
nan nan nan nan

