Time Pressure difference Time.1 Pressure.1 difference.1
(hr) (psi) (hr) (psi)
0.000200000000020850166 0.09276082982535019 0.000200000000020850166 0.07469539787296317
0.000399999999999067768 0.17795873480717944 0.000399999999999067768 0.17113450150068971
0.000600000000019917934 0.25878418600065684 0.000600000000019917934 0.24042777119956779
0.000799999999998135536 0.33633674643164102 0.000799999999998135536 0.30686449412283523
0.001007140329434719206 0.41386577086018589 0.001007140329434719206 0.37298633766023409
0.001267914553977789183 0.50810151847874530 0.001267914553977789183 0.45252977157263868
0.001596209851982166583 0.62226070798944322 0.001596209851982166583 0.54713768111760763
0.002009509145224797066 0.76006358738948843 0.002009509145224797066 0.65910188474082010
0.002529822128153114136 0.92578205983559558 0.002529822128153114136 0.79091931579209374
0.003184857364431081805 1.12428590500325476 0.003184857364431081805 0.94528212053893212
0.004009497869034817086 1.36108629497688560 0.004009497869034817086 1.12506550149761653
0.005047658755856332391 1.64237634604819593 0.005047658755856332391 1.33331623778120734
0.006354625877790454069 1.97506924719677190 0.006354625877790454069 1.57324585711942233
0.008000000000009777068 2.36683552492068472 0.008000000000009777068 1.84823321008438191
0.010071403294361402914 2.82614215601910468 0.010071403294361402914 2.16184144492502384
0.012679145539692626699 3.36229736645611865 0.012679145539692626699 2.51785358543061921
0.015962098519750611558 3.98550572975255646 0.015962098519750611558 2.92032813981359318
0.020095091452091651263 4.70693801382693255 0.020095091452091651263 3.37367142562188427
0.025298221281360611101 5.53881879750119044 0.025298221281360611101 3.88272168627231773
0.031848573644296607199 6.49453394569352938 0.031848573644296607199 4.45285243157802313
0.040094978690191851456 7.58876425604870164 0.040094978690191851456 5.09012745798739985
0.050476587558435426217 8.83766212076833035 0.050476587558435426217 5.80153440684009514
0.063546258777947173257 10.25908960583910812 0.063546258777947173257 6.59521811499803245
0.080000000000012505552 11.87289815170405660 0.080000000000012505552 7.48043714200717158
0.100714032943542974863 13.70114048434020582 0.100714032943542974863 8.46685534316747024
0.126791455396883634421 15.76801582530319834 0.126791455396883634421 9.56295945404882097
0.159620985197506115583 18.09934249964182484 0.159620985197506115583 10.77392896562179914
0.200950914520774404082 20.72150912402456413 0.200950914520774404082 12.09980668957387273
0.252982212813464002465 23.66008877763746554 0.252982212813464002465 13.53503791595237438
0.318485736442809752589 26.93855784278901311 0.318485736442809752589 15.06904741415783988
0.400949786901833249431 30.57715065542584654 0.400949786901833249431 16.68989419853611622
0.504765875584169521062 34.59322376034769775 0.504765875584169521062 18.38641266071936897
0.635462587779443310865 39.00104969574342562 0.635462587779443310865 20.15090055789000090
0.800000000000011368684 43.81334917386048744 0.800000000000011368684 21.98271468601724621
1.007140329435344483500 49.04264233939567674 1.007140329435344483500 23.89274287967184662
1.267914553968907398485 54.70468346192946285 1.267914553968907398485 25.88598036749000286
1.596209851975117999245 60.81171178740817851 1.596209851975117999245 27.99663685590155637
2.009509145207687197399 67.39153498705987033 2.009509145207687197399 30.24328506282893159
2.529822128134725289783 74.46024145015732643 2.529822128134725289783 32.66510328912769268
3.184857364427983839050 82.05690695134275359 3.184857364427983839050 35.31538360022567247
4.009497869018204596614 90.21316604471140010 4.009497869018204596614 38.21397086628347495
5.009497869018190385759 98.66780799082492592 5.009497869018190385759 41.27382732412717559
6.009497869018190385759 106.01210030381847105 6.009497869018190385759 43.96214962064165377
7.009497869018204596614 112.53492809512296446 7.009497869018204596614 46.35977827682915375
8.009497869018190385759 118.41735514173809918 8.009497869018190385759 48.51164136508442937
9.009497869018204596614 123.78159554146873234 9.009497869018204596614 50.45737817680318926
10.009497869018190385759 128.71497680824921872 10.009497869018190385759 52.22252622419409107
11.009497869018190385759 133.28266249582964065 11.009497869018190385759 53.81616331146921794
12.009497869018204596614 137.53499634897738702 12.009497869018204596614 55.27340175035239156
13.009497869018190385759 141.51174140443595206 13.009497869018190385759 56.60930269080331811
14.009497869018204596614 145.24543214536330993 14.009497869018204596614 57.83492685571868464
15.009497869018190385759 148.76231525984800896 15.009497869018190385759 58.96340203371660493
16.009497869018190385759 152.08416821100271932 16.009497869018190385759 60.00614643411718419
17.009497869018204596614 155.23005211154296035 17.009497869018204596614 60.97379696058384013
18.009497869018190385759 158.21646677702489114 18.009497869018190385759 61.87733698548573358
19.009497869018204596614 161.05743700860912782 19.009497869018204596614 62.71958669157717736
20.009497869018190385759 163.76561864608206065 20.009497869018190385759 63.50473275761164871
21.009497869018190385759 166.35138050037883772 21.009497869018190385759 64.23665907244541984
22.009497869018204596614 168.82359528435569018 22.009497869018204596614 64.92174149774162117
23.009497869018190385759 171.19037471707565601 23.009497869018190385759 65.56233024860797798
24.009497869018204596614 173.45921713879991444 24.009497869018204596614 66.16522983096710675
25.009497869018204596614 175.63715295076775647 25.009497869018204596614 66.73361008092180668
26.009497869018190385759 177.73037045793645916 26.009497869018190385759 67.27080343906895621
27.009497869018204596614 179.74451448737838177 27.009497869018204596614 67.78044828857537141
28.009497869018190385759 181.68448762130100249 28.009497869018190385759 68.26374989820158135
29.009497869018190385759 183.55468726991404083 29.009497869018190385759 68.71868302413228946
30.009497869018190385759 185.35919419069472269 30.009497869018190385759 69.15441310383083362
31.009497869018218807469 187.10174651816123514 31.009497869018218807469 69.56781668158426157
32.009497869018190385759 188.78578742813317604 32.009497869018190385759 69.96056988878871152
33.009497869018190385759 190.41450353453825528 33.009497869018190385759 70.33209212811249245
34.009497869018218807469 191.99095878914556579 34.009497869018218807469 70.69010479362822252
35.009497869018190385759 193.51788289069921234 35.009497869018190385759 71.03133020370080430
36.009497869018190385759 194.99779920889307050 36.009497869018190385759 71.36021441431583412
37.009497869018190385759 196.43304524744633000 37.009497869018190385759 71.67646114984377448
38.009497869018218807469 197.82584718503295562 38.009497869018218807469 71.98147125956954540
39.009497869018190385759 199.17824176015736271 39.009497869018190385759 72.27737373516676200
40.009497869018190385759 200.49213625872616262 40.009497869018190385759 72.56324310737498706
41.009497869018218807469 201.76936229225751163 41.009497869018218807469 72.83883772840552240
42.009497869018190385759 203.01159681636531218 42.009497869018190385759 73.10316092873630112
43.009497869018190385759 204.22041592985962666 43.009497869018190385759 73.36171696891902627
44.009497869018218807469 205.39734395025834601 44.009497869018218807469 73.60568500361451072
46.009497869018190385759 207.66121068702057073 46.009497869018190385759 74.07420656581884089
48.009497869018218807469 209.81295749329075306 48.009497869018218807469 74.50876257504575051
50.009497869018190385759 211.86037369348068182 50.009497869018190385759 74.89579727227111050
52.009497869018190385759 213.81120131797007389 52.009497869018190385759 75.24694227679349012
54.009497869018218807469 215.67279108712565971 54.009497869018218807469 75.56718176649108898
56.009497869018190385759 217.45096569743719783 56.009497869018190385759 75.85988512122244742
58.009497869018218807469 219.15080013980093554 58.009497869018218807469 76.13665166553090557
60.009497869018190385759 220.77730168675594769 60.009497869018190385759 76.41627351252616052
62.009497869018190385759 222.33468796794446121 62.009497869018190385759 76.68938105938559602
64.009497869018218807469 223.82735968583799036 64.009497869018218807469 76.95592543255054352
66.009497869018190385759 225.26119530153948745 66.009497869018190385759 77.24267489415015575
68.009497869018190385759 226.64127368050682776 68.009497869018190385759 77.53532326917668627
70.009497869018190385759 227.97066233847291983 70.009497869018190385759 77.78711423850882056
72.009497869018190385759 229.25254828986226130 72.009497869018190385759 77.99380049136327386
74.009497869018218807469 230.48988324662954597 74.009497869018218807469 78.18917964607975080
76.009497869018190385759 231.68504011796724740 76.009497869018190385759 78.37380667013327695
78.009497869018190385759 232.84105812080684927 78.009497869018190385759 78.58217355940760740
80.009497869018218807469 233.95982284980610189 80.009497869018218807469 78.73673509053820396
82.009497869018190385759 235.04132250524460801 82.009497869018190385759 78.91247584882327715
84.009497869018218807469 236.08608327058132659 84.009497869018218807469 79.06564548898576561
86.009497869018190385759 237.09496796827502862 86.009497869018190385759 79.15218275134897397
88.009497869018190385759 238.07040713269148569 88.009497869018190385759 79.25681734663848488
91.009497869018218807469 239.47311024666905155 91.009497869018218807469 79.38000084954731506
94.009497869018218807469 240.80805063488801920 94.009497869018218807469 79.55803316916933454
97.009497869018218807469 242.08436923796421070 97.009497869018218807469 79.83515864496746417
99.504748934509137825444 243.10790570381217890 99.504748934509137825444 79.89238934396706782
nan nan nan nan

