Time Pressure difference Time.1 Pressure.1 difference.1
(hr) (psi) (hr) (psi)
0.000200000000020850166 0.60369346507304511 0.000200000000020850166 0.48612246841517154
0.000399999999999067768 1.15816692733382087 0.000399999999999067768 1.11375437670206945
0.000600000000019917934 1.68418417824621014 0.000600000000019917934 1.56471944643589689
0.000799999999998135536 2.18890124492205063 0.000799999999998135536 1.99709392546070985
0.001007140329434719206 2.69346513777556451 0.001007140329434719206 2.42741914912749079
0.001267914553977789183 3.30675746300280204 0.001267914553977789183 2.94509294886386641
0.001596209851982166583 4.04971283344742350 0.001596209851982166583 3.56080732791862431
0.002009509145224797066 4.94654286309126690 0.002009509145224797066 4.28947758859549921
0.002529822128153114136 6.02504937328488399 0.002529822128153114136 5.14735393422757781
0.003184857364431081805 7.31692520433569804 0.003184857364431081805 6.15195702641063136
0.004009497869034817086 8.85803741972860337 0.004009497869034817086 7.32199886861755278
0.005047658755856332391 10.68869121984592141 0.005047658755856332391 8.67730809588253393
0.006354625877790454069 12.85387808457899261 0.006354625877790454069 10.23878553786591716
0.008000000000009777068 15.40351829524993832 0.008000000000009777068 12.02842097208142036
0.010071403294361402914 18.39271548312433424 0.010071403294361402914 14.06940359721366463
0.012679145539692626699 21.88204818330715895 0.012679145539692626699 16.38635357614927202
0.015962098519750611558 25.93792841863155729 0.015962098519750611558 19.00568394217394896
0.020095091452091651263 30.63305626740592658 0.020095091452091651263 21.95607129416823255
0.025298221281360611101 36.04699007728596882 0.025298221281360611101 25.26900323243355473
0.031848573644296607199 42.26684592076353653 0.031848573644296607199 28.97945090551181480
0.040094978690191851456 49.38816737605888818 0.040094978690191851456 33.12687789190186294
0.050476587558435426217 57.51607525371002083 0.050476587558435426217 37.75676021225771706
0.063546258777947173257 66.76681703154967806 0.063546258777947173257 42.92210499035009974
0.080000000000012505552 77.26958716471914101 0.080000000000012505552 48.68316752903054123
0.100714032943542974863 89.16790621663344041 0.100714032943542974863 55.10284082206571554
0.126791455396883634421 102.61926428241677911 0.126791455396883634421 62.23635709207579936
0.159620985197506115583 117.79168868718510055 0.159620985197506115583 70.11742480045799653
0.200950914520774404082 134.85691825070824734 0.200950914520774404082 78.74632256843641187
0.252982212813464002465 153.98138422220512211 0.252982212813464002465 88.08689998527070486
0.318485736442809752589 175.31787241234459884 0.318485736442809752589 98.07033276794658150
0.400949786901833249431 198.99806918490855878 0.400949786901833249431 108.61890821144068298
0.504765875584169521062 225.13493205323058532 0.504765875584169521062 119.65995981613330912
0.635462587779443310865 253.82134761665278688 0.635462587779443310865 131.14336088884863329
0.800000000000011368684 285.14010309117264796 0.800000000000011368684 143.06492541625740955
1.007140329435344483500 319.17268038622830773 1.007140329435344483500 155.49551212818693102
1.267914553968907398485 356.02160930465385036 1.267914553968907398485 168.46763029487445351
1.596209851975117999245 395.76654364869682468 1.596209851975117999245 182.20391889284317699
2.009509145207687197399 438.58845753675257129 2.009509145207687197399 196.82525036857217060
2.529822128134725289783 484.59205524416910293 2.529822128134725289783 212.58659963166169860
3.184857364427983839050 534.03164443333537292 3.184857364427983839050 229.83479488211386865
4.009497869018204596614 587.11310482324267923 4.009497869018204596614 248.69898781524810261
5.009497869018190385759 642.13646006932026467 5.009497869018190385759 268.61273105298897690
6.009497869018190385759 689.93358826759276781 6.009497869018190385759 286.10850599885333168
7.009497869018204596614 732.38457236100180126 7.009497869018204596614 301.71242797904136523
8.009497869018190385759 770.66778709179550333 8.009497869018190385759 315.71689178728337311
9.009497869018204596614 805.57860969326827671 9.009497869018204596614 328.37987248935627349
10.009497869018190385759 837.68537326013802158 10.009497869018190385759 339.86756986229539734
11.009497869018190385759 867.41216640431059659 11.009497869018190385759 350.23906284157789059
12.009497869018204596614 895.08662946471565647 12.009497869018204596614 359.72286461721267870
13.009497869018190385759 920.96754284983717298 13.009497869018190385759 368.41699412482483922
14.009497869018204596614 945.26664307506621299 14.009497869018204596614 376.39343526262081241
15.009497869018190385759 968.15474527981712072 15.009497869018190385759 383.73762452588147198
16.009497869018190385759 989.77357859902588189 16.009497869018190385759 390.52387235752064498
17.009497869018204596614 1010.24719398399338388 17.009497869018204596614 396.82140441283195287
18.009497869018190385759 1029.68297329886354419 18.009497869018190385759 402.70170118779833501
19.009497869018204596614 1048.17219085441570314 19.009497869018204596614 408.18311661373212473
20.009497869018190385759 1065.79721167248544589 20.009497869018190385759 413.29289786606938151
21.009497869018190385759 1082.62551664359466486 21.009497869018190385759 418.05632154406004020
22.009497869018204596614 1098.71484995544392405 22.009497869018204596614 422.51488216675397780
23.009497869018190385759 1114.11800319903272793 23.009497869018190385759 426.68387508569867350
24.009497869018204596614 1128.88377605654454783 24.009497869018204596614 430.60758446443912817
25.009497869018204596614 1143.05792283281948585 25.009497869018204596614 434.30663980083789966
26.009497869018190385759 1156.68071741576386557 26.009497869018190385759 437.80272883329553224
27.009497869018204596614 1169.78889670414810098 27.009497869018204596614 441.11953039419620382
28.009497869018190385759 1182.41436701927341346 28.009497869018190385759 444.26488845039261832
29.009497869018190385759 1194.58574699048904222 29.009497869018190385759 447.22562258447379691
30.009497869018190385759 1206.32959445073083771 30.009497869018190385759 450.06138205476992198
31.009497869018218807469 1217.67023742061383018 31.009497869018218807469 452.75183920998796339
32.009497869018190385759 1228.63008431051184743 32.009497869018190385759 455.30790242139107704
33.009497869018190385759 1239.22987380945460245 33.009497869018190385759 457.72579312408691976
34.009497869018218807469 1249.48954631322976638 34.009497869018218807469 460.05576264885462479
35.009497869018190385759 1259.42686687737295870 35.009497869018190385759 462.27647963214957372
36.009497869018190385759 1269.05825775465086735 36.009497869018190385759 464.41687929316839245
37.009497869018190385759 1278.39893157007418267 37.009497869018190385759 466.47503345099943317
38.009497869018218807469 1287.46337643807737550 38.009497869018218807469 468.46005892316634345
39.009497869018190385759 1296.26484758424999200 39.009497869018190385759 470.38581132483528791
40.009497869018190385759 1304.81575774832253956 40.009497869018190385759 472.24626764235165410
41.009497869018218807469 1313.12802717622435011 41.009497869018218807469 474.03985521631665279
42.009497869018190385759 1321.21256960328059904 42.009497869018190385759 475.76008765717892857
43.009497869018190385759 1329.07964238223166831 43.009497869018190385759 477.44278704772301580
44.009497869018218807469 1336.73916586982636545 44.009497869018218807469 479.03054675739446111
46.009497869018190385759 1351.47255664859358149 46.009497869018190385759 482.07971531141777177
48.009497869018218807469 1365.47626368617443404 48.009497869018218807469 484.90783385533808314
50.009497869018190385759 1378.80098040837856388 50.009497869018190385759 487.42668063486115670
52.009497869018190385759 1391.49709244840209976 52.009497869018190385759 489.71195497880927405
54.009497869018218807469 1403.61243876863250080 54.009497869018218807469 491.79609423837348459
56.009497869018190385759 1415.18491385348238509 56.009497869018190385759 493.70102655505252187
58.009497869018218807469 1426.24754607112367921 58.009497869018218807469 495.50224108131811818
60.009497869018190385759 1436.83292307429087487 60.009497869018190385759 497.32203810168238078
62.009497869018190385759 1446.96849346879957920 62.009497869018190385759 499.09943963648532872
64.009497869018218807469 1456.68289731025220135 64.009497869018218807469 500.83412761345391573
66.009497869018190385759 1466.01439200276104202 66.009497869018190385759 502.70031160950946969
68.009497869018190385759 1474.99603113039529489 68.009497869018190385759 504.60488611472248976
70.009497869018190385759 1483.64777828344904265 70.009497869018190385759 506.24355798771460968
72.009497869018190385759 1491.99037475741010894 72.009497869018190385759 507.58868545588848065
74.009497869018218807469 1500.04303048411316013 74.009497869018218807469 508.86022559988992953
76.009497869018190385759 1507.82118850967412982 76.009497869018190385759 510.06179018385120116
78.009497869018190385759 1515.34462825396076369 78.009497869018190385759 511.41785534227363996
80.009497869018218807469 1522.62562128865738487 80.009497869018218807469 512.42375175858330749
82.009497869018190385759 1529.66409082042264345 82.009497869018190385759 513.56748395161605458
84.009497869018218807469 1536.46346128515438068 84.009497869018218807469 514.56432185170581306
86.009497869018190385759 1543.02934798708020026 86.009497869018190385759 515.12751193821463858
88.009497869018190385759 1549.37756900066165144 88.009497869018190385759 515.80848063497796829
91.009497869018218807469 1558.50645136340267527 91.009497869018218807469 516.61016681923126725
94.009497869018218807469 1567.19432953511795859 94.009497869018218807469 517.76881264128746807
97.009497869018218807469 1575.50069334707359303 97.009497869018218807469 519.57236311684471275
99.504748934509137825444 1582.16193470142297883 99.504748934509137825444 519.94482419823725650
nan nan nan nan

