Time Pressure difference Time.1 Pressure.1 difference.1
(hr) (psi) (hr) (psi)
0.000200000000020850166 0.76752105968394602 0.000200000000020850166 0.61804417917467913
0.000399999999999067768 1.47246501542069419 0.000399999999999067768 1.41599998822344886
0.000600000000019917934 2.14123044223124115 0.000600000000019917934 1.98934591331255306
0.000799999999998135536 2.78291533741019093 0.000799999999998135536 2.53905621750023336
0.001007140329434719206 3.42440549114960247 0.001007140329434719206 3.08616114870483971
0.001267914553977789183 4.20413030612252125 0.001267914553977789183 3.74431891639941350
0.001596209851982166583 5.14870553546103693 0.001596209851982166583 4.52712307118278634
0.002009509145224797066 6.28891323114205658 0.002009509145224797066 5.45353656245227025
0.002529822128153114136 7.66009994670420280 0.002529822128153114136 6.54421950002167829
0.003184857364431081805 9.30255918172047735 0.003184857364431081805 7.82144722316890562
0.004009497869034817086 11.26189144069584458 0.004009497869034817086 9.30900971400447297
0.005047658755856332391 13.58933976649555753 0.005047658755856332391 11.03211661260902154
0.006354625877790454069 16.34210522277329147 0.006354625877790454069 13.01734072100425266
0.008000000000009777068 19.58365523039211453 0.008000000000009777068 15.29263930279496542
0.010071403294361402914 23.38404719415807165 0.010071403294361402914 17.88749453623447039
0.012679145539692626699 27.82029917729014201 0.012679145539692626699 20.83320789235335013
0.015962098519750611558 32.97684579617840939 0.015962098519750611558 24.16336025361892226
0.020095091452091651263 38.94611614666478516 0.020095091452091651263 27.91441034425849210
0.025298221281360611101 45.82925875996952669 0.025298221281360611101 32.12639072673708540
0.031848573644296607199 53.73703087323839611 0.031848573644296607199 36.84376286128268418
0.040094978690191851456 62.79090424762876665 0.040094978690191851456 42.11669977334734938
0.050476587558435426217 73.12452690248635179 0.050476587558435426217 48.00301855982207400
0.063546258777947173257 84.88569302895906787 0.063546258777947173257 54.57011117732242411
0.080000000000012505552 98.23865728748678805 0.080000000000012505552 61.89458473951095385
0.100714032943542974863 113.36588820107300535 0.100714032943542974863 70.05639985556310023
0.126791455396883634421 130.46761481258937465 0.126791455396883634421 79.12577741817814569
0.159620985197506115583 149.75746294058478725 0.159620985197506115583 89.14557353812875817
0.200950914520774404082 171.45377710684843464 0.200950914520774404082 100.11614244760316694
0.252982212813464002465 195.76815391819386036 0.252982212813464002465 111.99152340134787664
0.318485736442809752589 222.89484150565746745 0.318485736442809752589 124.68421489456405027
0.400949786901833249431 253.00126268118484063 0.400949786901833249431 138.09541490079075743
0.504765875584169521062 286.23102885578015275 0.504765875584169521062 152.13273701530704329
0.635462587779443310865 322.70223377284480648 0.635462587779443310865 166.73245139028338713
0.800000000000011368684 362.52013106758749927 0.800000000000011368684 181.88923603107818394
1.007140329435344483500 405.78831484048356515 1.007140329435344483500 197.69317898825252655
1.267914553968907398485 452.63713896725505492 1.267914553968907398485 214.18561175036080613
1.596209851975117999245 503.16787333774834678 1.596209851975117999245 231.64959204963707862
2.009509145207687197399 557.61060400583403407 2.009509145207687197399 250.23879414889100303
2.529822128134725289783 616.09844941823723730 2.529822128134725289783 270.27738689229852298
3.184857364427983839050 678.95473009740044290 3.184857364427983839050 292.20631914380277294
4.009497869018204596614 746.44119646672493218 4.009497869018204596614 316.18979120005525374
5.009497869018190385759 816.39654031118038802 5.009497869018190385759 341.50763576253615383
6.009497869018190385759 877.16463638482059650 6.009497869018190385759 363.75133476434137947
7.009497869018204596614 931.13577601287227026 7.009497869018204596614 383.58977832279606446
8.009497869018190385759 979.80811593083308253 8.009497869018190385759 401.39471000465022144
9.009497869018204596614 1024.19287923828164821 9.009497869018204596614 417.49411297903287732
10.009497869018190385759 1065.01263068761045361 10.009497869018190385759 432.09928956470270123
11.009497869018190385759 1102.80654613484853144 11.009497869018190385759 445.28535127070500721
12.009497869018204596614 1137.99117946815158575 12.009497869018204596614 457.34282416017379091
13.009497869018190385759 1170.89553774960722876 13.009497869018190385759 468.39632710293716400
14.009497869018204596614 1201.78881758986108252 14.009497869018204596614 478.53737866102721910
15.009497869018190385759 1230.88818916616173738 15.009497869018190385759 487.87460069833258558
16.009497869018190385759 1258.37384342329687570 16.009497869018190385759 496.50246968874375852
17.009497869018204596614 1284.40349569712179800 17.009497869018204596614 504.50899743192758251
18.009497869018190385759 1309.11366865506079193 18.009497869018190385759 511.98506247668035485
19.009497869018204596614 1332.62040621639494020 19.009497869018204596614 518.95399956095309335
20.009497869018190385759 1355.02842524903371668 20.009497869018190385759 525.45045007507701484
21.009497869018190385759 1376.42351930152176465 21.009497869018190385759 531.50655006716931439
22.009497869018204596614 1396.87910291733032864 22.009497869018204596614 537.17505465066858505
23.009497869018190385759 1416.46229402999711056 23.009497869018190385759 542.47540996025634286
24.009497869018204596614 1435.23513535813458475 24.009497869018204596614 547.46391779493762897
25.009497869018204596614 1453.25579780232055782 25.009497869018204596614 552.16680599214328140
26.009497869018190385759 1470.57548459550639564 26.009497869018190385759 556.61164781036086424
27.009497869018204596614 1487.24090212943724509 27.009497869018204596614 560.82854793611556943
28.009497869018190385759 1503.29261531818406183 28.009497869018190385759 564.82747899640992273
29.009497869018190385759 1518.76700918493406789 29.009497869018190385759 568.59168373193313073
30.009497869018190385759 1533.69784870687726652 30.009497869018190385759 572.19699874621312574
31.009497869018218807469 1548.11606393252782254 31.009497869018218807469 575.61757996214078048
32.009497869018190385759 1562.05014436503734032 32.009497869018190385759 578.86729601530009859
33.009497869018190385759 1575.52645666480862019 33.009497869018190385759 581.94134293099534716
34.009497869018218807469 1588.57035256180142824 34.009497869018218807469 584.90360901824635675
35.009497869018190385759 1601.20441811175305702 35.009497869018190385759 587.72697410481475799
36.009497869018190385759 1613.44953216390535999 36.009497869018190385759 590.44822571845202219
37.009497869018190385759 1625.32503567645107978 37.009497869018190385759 593.06491241725586860
38.009497869018218807469 1636.84934848261150364 38.009497869018218807469 595.58862509934158425
39.009497869018190385759 1648.03932295097934002 39.009497869018190385759 598.03697945387978052
40.009497869018190385759 1658.91074033429845258 40.009497869018190385759 600.40231796908653905
41.009497869018218807469 1669.47875574077579586 41.009497869018218807469 602.68264120438766440
42.009497869018190385759 1679.75724462573248275 42.009497869018190385759 604.86970252325352249
43.009497869018190385759 1689.75924793577405580 43.009497869018190385759 607.00904524282998409
44.009497869018218807469 1699.49737816907327215 44.009497869018218807469 609.02768398152011287
46.009497869018190385759 1718.22904971679940900 46.009497869018190385759 612.90432206879142996
48.009497869018218807469 1736.03301925900245806 48.009497869018218807469 616.49992259674957040
50.009497869018190385759 1752.97373717347727506 50.009497869018190385759 619.70232259153351606
52.009497869018190385759 1769.11526251804275489 52.009497869018190385759 622.60776432250088419
54.009497869018218807469 1784.51841657573322664 54.009497869018218807469 625.25748784209565656
56.009497869018190385759 1799.23137746427869388 56.009497869018190385759 627.67937205140515289
58.009497869018218807469 1813.29613664061093914 58.009497869018218807469 629.96939200673148207
60.009497869018190385759 1826.75412524686771576 60.009497869018190385759 632.28303728912783299
62.009497869018190385759 1839.64024076702435195 62.009497869018190385759 634.54278199136786043
64.009497869018218807469 1851.99089546507889281 64.009497869018218807469 636.74822172416827470
66.009497869018190385759 1863.85472886596380704 66.009497869018190385759 639.12084226933916398
68.009497869018190385759 1875.27376448548375265 68.009497869018190385759 641.54227156592969550
70.009497869018190385759 1886.27338354252606223 70.009497869018190385759 643.62563877991976824
72.009497869018190385759 1896.87995601127977352 72.009497869018190385759 645.33580083982838005
74.009497869018218807469 1907.11790492775730854 74.009497869018218807469 646.95240578127277331
76.009497869018190385759 1917.00686420189049386 76.009497869018190385759 648.48004551255439765
78.009497869018190385759 1926.57198090280508040 78.009497869018190385759 650.20411348348545744
80.009497869018218807469 1935.82885680565368602 80.009497869018218807469 651.48298550719516697
82.009497869018190385759 1944.77739427726578469 82.009497869018190385759 652.93709855558608979
84.009497869018218807469 1953.42194706142299765 84.009497869018218807469 654.20445380402748015
86.009497869018190385759 1961.76965431814664953 86.009497869018190385759 654.92047986196814691
88.009497869018190385759 1969.84062675920540642 88.009497869018190385759 655.78624675525077237
91.009497869018218807469 1981.44686381518113194 91.009497869018218807469 656.80549090028671344
94.009497869018218807469 1992.49241896286366682 94.009497869018218807469 658.27856477070747587
97.009497869018218807469 2003.05292611412301085 97.009497869018218807469 660.57155459465013791
99.504748934509137825444 2011.52186493638168940 99.504748934509137825444 661.04509247508224234
nan nan nan nan

