Time Pressure difference Time.1 Pressure.1 difference.1
(hr) (psi) (hr) (psi)
0.000200000000020850166 0.73161364168703624 0.000200000000020850166 0.58912983161095145
0.000399999999999067768 1.40357776323726990 0.000399999999999067768 1.34975437473931081
0.000600000000019917934 2.04105591861808389 0.000600000000019917934 1.89627709865465577
0.000799999999998135536 2.65272046782374904 0.000799999999998135536 2.42026996171074860
0.001007140329434719206 3.26419938630049833 0.001007140329434719206 2.94177934057829749
0.001267914553977789183 4.00744584735655529 0.001267914553977789183 3.56914610159710177
0.001596209851982166583 4.90783042269092995 0.001596209851982166583 4.31532783978242218
0.002009509145224797066 5.99469506828160981 0.002009509145224797066 5.19840034900420989
0.002529822128153114136 7.30173269773558431 0.002529822128153114136 6.23805718423119071
0.003184857364431081805 8.86735173462244397 0.003184857364431081805 7.45553156360544822
0.004009497869034817086 10.73501932651124413 0.004009497869034817086 8.87350048761829768
0.005047658755856332391 12.95358118092851285 0.005047658755856332391 10.51599419798403900
0.006354625877790454069 15.57756228837454060 0.006354625877790454069 12.40834232469996046
0.008000000000009777068 18.66746083364862585 0.008000000000009777068 14.57719418921391608
0.010071403294361402914 22.29005668215068070 0.010071403294361402914 17.05065268658607636
0.012679145539692626699 26.51876471285551418 0.012679145539692626699 19.85855489154149467
0.015962098519750611558 31.43406938466129574 0.015962098519750611558 23.03291065111043778
0.020095091452091651263 37.12407562518339432 0.020095091452091651263 26.60847301821131339
0.025298221281360611101 43.68519987061421972 0.025298221281360611101 30.62340168688973563
0.031848573644296607199 51.22301773296993588 0.031848573644296607199 35.12007804905892527
0.040094978690191851456 59.85331808399701004 0.040094978690191851456 40.14632785412641880
0.050476587558435426217 69.70349640412440806 0.050476587558435426217 45.75726330556138777
0.063546258777947173257 80.91443253637618227 0.063546258777947173257 52.01712351990384064
0.080000000000012505552 93.64269671263360806 0.080000000000012505552 58.99893165228236569
0.100714032943542974863 108.06222091681226516 0.100714032943542974863 66.77890746465956795
0.126791455396883634421 124.36386675118167489 0.126791455396883634421 75.42398666177216171
0.159620985197506115583 142.75126584394922702 0.159620985197506115583 84.97502039014612762
0.200950914520774404082 163.43254776851634347 0.200950914520774404082 95.43234630970360399
0.252982212813464002465 186.60940987523741796 0.252982212813464002465 106.75215388549534623
0.318485736442809752589 212.46701266328753377 0.318485736442809752589 118.85103525037391137
0.400949786901833249431 241.16494629843938924 0.400949786901833249431 131.63481069490580921
0.504765875584169521062 272.84010352919392517 0.504765875584169521062 145.01541598535112598
0.635462587779443310865 307.60505324546028305 0.635462587779443310865 158.93210278722918360
0.800000000000011368684 345.56012493577060241 0.800000000000011368684 173.37979808810376881
1.007140329435344483500 386.80406619297559700 1.007140329435344483500 188.44437529289567124
1.267914553968907398485 431.46113246586298828 1.267914553968907398485 204.16523225326793067
1.596209851975117999245 479.62785587165484458 1.596209851975117999245 220.81218423444937571
2.009509145207687197399 531.52355820439163381 2.009509145207687197399 238.53171606005400918
2.529822128134725289783 587.27513014720864248 2.529822128134725289783 257.63283078037812857
3.184857364427983839050 647.19076611623552253 3.184857364427983839050 278.53584807274768309
4.009497869018204596614 711.51997090103020582 4.009497869018204596614 301.39728634859068279
5.009497869018190385759 778.20255012118366267 5.009497869018190385759 325.53067034674495517
6.009497869018190385759 836.12769433172957179 6.009497869018190385759 346.73372845957692334
7.009497869018204596614 887.57386836314719858 7.009497869018204596614 365.64405769950735703
8.009497869018190385759 933.96913974693427463 8.009497869018190385759 382.61601012139169598
9.009497869018204596614 976.27742289964851352 9.009497869018204596614 397.96222465252839129
10.009497869018190385759 1015.18747837473983964 10.009497869018190385759 411.88411812307919035
11.009497869018190385759 1051.21325742678527604 11.009497869018190385759 424.45328805336203004
12.009497869018204596614 1084.75182604274095866 12.009497869018204596614 435.94666864390831051
13.009497869018190385759 1116.11679914143837777 13.009497869018190385759 446.48304864198098585
14.009497869018204596614 1145.56477934004306007 14.009497869018204596614 456.14966503945868226
15.009497869018190385759 1173.30277680751078151 15.009497869018190385759 465.05005797560357905
16.009497869018190385759 1199.50255250290865661 16.009497869018190385759 473.27428397231130930
17.009497869018204596614 1224.31444326684709267 17.009497869018204596614 480.90623731815321662
18.009497869018190385759 1247.86858474137375197 18.009497869018190385759 488.03254493391170854
19.009497869018204596614 1270.27559189048156441 19.009497869018204596614 494.67544987389095468
20.009497869018190385759 1291.63528254732432288 20.009497869018190385759 500.86797287858217942
21.009497869018190385759 1312.02943652718158773 21.009497869018190385759 506.64074655525490698
22.009497869018204596614 1331.52803377499890303 22.009497869018204596614 512.04405794186550338
23.009497869018190385759 1350.19505220403220846 23.009497869018190385759 517.09644341240800713
24.009497869018204596614 1368.08963194956686493 24.009497869018204596614 521.85157076359541861
25.009497869018204596614 1385.26722246653957882 25.009497869018204596614 526.33444079952846550
26.009497869018190385759 1401.77663151501474204 26.009497869018190385759 530.57133680168897172
27.009497869018204596614 1417.66238039238760393 27.009497869018204596614 534.59095505021548433
28.009497869018190385759 1432.96313623897094658 28.009497869018190385759 538.40280161646091983
29.009497869018190385759 1447.71358185464464441 29.009497869018190385759 541.99090320646268992
30.009497869018190385759 1461.94590256854394283 30.009497869018190385759 545.42754851247218539
31.009497869018218807469 1475.68958140936865675 31.009497869018218807469 548.68810253701144575
32.009497869018190385759 1488.97177503801799503 32.009497869018190385759 551.78578509060764645
33.009497869018190385759 1501.81761658692266792 33.009497869018190385759 554.71601694591947762
34.009497869018218807469 1514.25127174019667109 34.009497869018218807469 557.53969748522899863
35.009497869018190385759 1526.29426989599846820 35.009497869018190385759 560.23097531628536672
36.009497869018190385759 1537.96651311530172279 36.009497869018190385759 562.82491691291033931
37.009497869018190385759 1549.28643751614936264 37.009497869018190385759 565.31918552054207794
38.009497869018218807469 1560.27160118517940646 38.009497869018218807469 567.72482977305651275
39.009497869018190385759 1570.93806807608007148 39.009497869018190385759 570.05864123381525133
40.009497869018190385759 1581.30088113737224376 40.009497869018190385759 572.31332063719935377
41.009497869018218807469 1591.37448646635357363 41.009497869018218807469 574.48696208371461580
42.009497869018190385759 1601.17211037423612652 42.009497869018190385759 576.57170474438783003
43.009497869018190385759 1610.70618370486067761 43.009497869018190385759 578.61096125486142228
44.009497869018218807469 1619.98872889800554731 44.009497869018218807469 580.53516075431446097
46.009497869018190385759 1637.84406493472670263 46.009497869018190385759 584.23043565621628659
48.009497869018218807469 1654.81510022934139670 48.009497869018218807469 587.65782095479630698
50.009497869018190385759 1670.96326993729121568 50.009497869018190385759 590.71040106678344728
52.009497869018190385759 1686.34963620140911189 52.009497869018190385759 593.47991569922612598
54.009497869018218807469 1701.03217486458788699 54.009497869018218807469 596.00567554538940840
56.009497869018190385759 1715.05681009752902355 56.009497869018190385759 598.31425523028678981
58.009497869018218807469 1728.46356884455894942 58.009497869018218807469 600.49713974910673642
60.009497869018190385759 1741.29194394876867591 60.009497869018190385759 602.70254431653700067
62.009497869018190385759 1753.57520026330394103 62.009497869018190385759 604.85656996837985844
64.009497869018218807469 1765.34804655443213051 64.009497869018218807469 606.95883123414864713
66.009497869018190385759 1776.65684681375500986 66.009497869018190385759 609.22045198773264474
68.009497869018190385759 1787.54165854464258700 68.009497869018190385759 611.52859804237732533
70.009497869018190385759 1798.02667554053641652 70.009497869018190385759 613.51449778436790439
72.009497869018190385759 1808.13703409262325295 72.009497869018190385759 615.14465226252650609
74.009497869018218807469 1817.89601463873941611 74.009497869018218807469 616.68562656343544859
76.009497869018190385759 1827.32233254332254546 76.009497869018190385759 618.14179776927699095
78.009497869018190385759 1836.43995840442812550 78.009497869018190385759 619.78520758952129199
80.009497869018218807469 1845.26376408959959008 80.009497869018218807469 621.00424934311581637
82.009497869018190385759 1853.79365653330023633 82.009497869018190385759 622.39033371088032709
84.009497869018218807469 1862.03378579539162274 84.009497869018218807469 623.59839748571039308
86.009497869018190385759 1869.99095704010483132 86.009497869018190385759 624.28092524854275780
88.009497869018190385759 1877.68434012719581006 88.009497869018190385759 625.10618842751966895
91.009497869018218807469 1888.74759533259930322 91.009497869018218807469 626.07774863594568160
94.009497869018218807469 1899.27639936226182726 94.009497869018218807469 627.48190676973877089
97.009497869018218807469 1909.34284769942723869 97.009497869018218807469 629.66762221595308802
99.504748934509137825444 1917.41557885748648005 99.504748934509137825444 630.11900627741761127
nan nan nan nan

