Time Pressure difference Time.1 Pressure.1 difference.1
(hr) (psi) (hr) (psi)
0.000200000000020850166 0.68822551160743684 0.000200000000020850166 0.55419166163811384
0.000399999999999067768 1.32033900018229899 0.000399999999999067768 1.26970759177931081
0.000600000000019917934 1.92001170258551856 0.000600000000019917934 1.78381894760969661
0.000799999999998135536 2.49540166707346556 0.000799999999998135536 2.27673656929845469
0.001007140329434719206 3.07061700960783091 0.001007140329434719206 2.76731798909205873
0.001267914553977789183 3.76978545968101297 0.001267914553977789183 3.35747895037764188
0.001596209851982166583 4.61677299476038439 0.001596209851982166583 4.05940860184031571
0.002009509145224797066 5.63918145482523681 0.002009509145224797066 4.89011075775447157
0.002529822128153114136 6.86870560523183826 0.002529822128153114136 5.86811105265101762
0.003184857364431081805 8.34147606937898800 0.003184857364431081805 7.01338347496627090
0.004009497869034817086 10.09838218853818326 0.004009497869034817086 8.34726017240167018
0.005047658755856332391 12.18537289003500312 0.005047658755856332391 9.89234628031218399
0.006354625877790454069 14.65373957597605070 0.006354625877790454069 11.67246926249893946
0.008000000000009777068 17.56039260425024295 0.008000000000009777068 13.71269801030347857
0.010071403294361402914 20.96815148014174568 0.010071403294361402914 16.03946878492759964
0.012679145539692626699 24.94607723499700924 0.012679145539692626699 18.68084918222717405
0.015962098519750611558 29.56988122074477232 0.015962098519750611558 21.66695071474601164
0.020095091452091651263 34.92244332839337773 0.020095091452091651263 25.03046541590430252
0.025298221281360611101 41.09446204597657015 0.025298221281360611101 28.80728993040751718
0.031848573644296607199 48.18525185514554465 0.031848573644296607199 33.03729223428856443
0.040094978690191851456 56.30373480294197464 0.040094978690191851456 37.76546178506779938
0.050476587558435426217 65.56975121860374145 0.050476587558435426217 43.04364237332973886
0.063546258777947173257 76.11582610783852942 0.063546258777947173257 48.93226343385637023
0.080000000000012505552 88.08924435135266151 0.080000000000012505552 55.50001750521450106
0.100714032943542974863 101.65362294833056467 0.100714032943542974863 62.81860415898445638
0.126791455396883634421 116.98850451031405839 0.126791455396883634421 70.95098949778157760
0.159620985197506115583 134.28544435218128683 0.159620985197506115583 79.93560200300045437
0.200950914520774404082 153.74022898469840470 0.200950914520774404082 89.77275930974163032
0.252982212813464002465 175.54259415666504651 0.252982212813464002465 100.42124905384021361
0.318485736442809752589 199.86671947875717592 0.318485736442809752589 111.80260984697750359
0.400949786901833249431 226.86273066928856679 0.400949786901833249431 123.82824727946149324
0.504765875584169521062 256.65940209290226903 0.504765875584169521062 136.41531974082113265
0.635462587779443310865 289.36262677487059136 0.635462587779443310865 149.50668155853870189
0.800000000000011368684 325.06678419315841211 0.800000000000011368684 163.09756057367636117
1.007140329435344483500 363.86476574390343330 1.007140329435344483500 177.26873749433951843
1.267914553968907398485 405.87345794334760285 1.267914553968907398485 192.05727369428063867
1.596209851975117999245 451.18366810012520318 1.596209851975117999245 207.71698312443089662
2.009509145207687197399 500.00171119431519173 2.009509145207687197399 224.38566336937594770
2.529822128134725289783 552.44695269471571919 2.529822128134725289783 242.35399214514094979
3.184857364427983839050 608.80930963899447761 3.184857364427983839050 262.01736219522274496
4.009497869018204596614 669.32349000914905446 4.009497869018204596614 283.52300965307097158
5.009497869018190385759 732.05147864160426252 5.009497869018190385759 306.22517046933069196
6.009497869018190385759 786.54138935091123130 6.009497869018190385759 326.17078750798646070
7.009497869018204596614 834.93656328639610820 7.009497869018204596614 343.95964527970022573
8.009497869018190385759 878.58037685805686579 8.009497869018190385759 359.92508109578767517
9.009497869018204596614 918.37957982380021349 9.009497869018204596614 374.36119292466884190
10.009497869018190385759 954.98208599668771512 10.009497869018190385759 387.45745263111740542
11.009497869018190385759 988.87136690454246946 11.009497869018190385759 399.28121166573936307
12.009497869018204596614 1020.42094065370315548 12.009497869018204596614 410.09298072842091187
13.009497869018190385759 1049.92582332323445371 13.009497869018190385759 420.00450383499236295
14.009497869018204596614 1077.62739978817944575 14.009497869018204596614 429.09784441339672867
15.009497869018190385759 1103.72040354080763791 15.009497869018190385759 437.47040218563932967
16.009497869018190385759 1128.36640930743965328 16.009497869018190385759 445.20689289828874280
17.009497869018204596614 1151.70683824693173847 17.009497869018204596614 452.38623551400917222
18.009497869018190385759 1173.86410834566868289 18.009497869018190385759 459.08991956973289916
19.009497869018204596614 1194.94227458000318620 19.009497869018204596614 465.33886900202423931
20.009497869018190385759 1215.03523511609250818 20.009497869018190385759 471.16414626615090810
21.009497869018190385759 1234.21991984152055011 21.009497869018190385759 476.59456731169177601
22.009497869018204596614 1252.56215856134872411 22.009497869018204596614 481.67743691872823319
23.009497869018190385759 1270.12213499765812230 23.009497869018190385759 486.43019216709137709
24.009497869018204596614 1286.95548199754762209 24.009497869018204596614 490.90331810072370899
25.009497869018204596614 1303.11436060247069690 25.009497869018204596614 495.12033285845211594
26.009497869018190385759 1318.64468404275430657 26.009497869018190385759 499.10596099954392457
27.009497869018204596614 1333.58833329345247876 27.009497869018204596614 502.88719697975278677
28.009497869018190385759 1347.98168235158823336 28.009497869018190385759 506.47298311568920326
29.009497869018190385759 1361.85735716387830507 29.009497869018190385759 509.84829340485242710
30.009497869018190385759 1375.24563431805745495 30.009497869018190385759 513.08112948003508791
31.009497869018218807469 1388.17424836055124615 31.009497869018218807469 516.14831731498009049
32.009497869018190385759 1400.66874543453650404 32.009497869018190385759 519.06229272327107083
33.009497869018190385759 1412.75276815947722753 33.009497869018190385759 521.81874804728624895
34.009497869018218807469 1424.44904908075750427 34.009497869018218807469 524.47497104949968616
35.009497869018190385759 1435.77784080196170180 35.009497869018190385759 527.00664344681240436
36.009497869018190385759 1446.75786509823888082 36.009497869018190385759 529.44675210621426231
37.009497869018190385759 1457.40646473911806424 37.009497869018190385759 531.79309885367968036
38.009497869018218807469 1467.74015653411538551 38.009497869018218807469 534.05607708712886961
39.009497869018190385759 1477.77405176890965777 39.009497869018190385759 536.25148255123724539
40.009497869018190385759 1487.52230127441976038 40.009497869018190385759 538.37244886116923226
41.009497869018218807469 1496.99849442642675967 41.009497869018218807469 540.41718314623460628
42.009497869018190385759 1506.21507315367807678 42.009497869018190385759 542.37829076159175656
43.009497869018190385759 1515.18373109250705966 43.009497869018190385759 544.29660976939931061
44.009497869018218807469 1523.91577769546529453 44.009497869018218807469 546.10669518810766476
46.009497869018190385759 1540.71220832305584736 46.009497869018190385759 549.58282290768806888
48.009497869018218807469 1556.67678140183443247 48.009497869018218807469 552.80694813743627947
50.009497869018190385759 1571.86728869356647920 50.009497869018190385759 555.67849589104366714
52.009497869018190385759 1586.34117106881035397 52.009497869018190385759 558.28376527943555629
54.009497869018218807469 1600.15296613028726824 54.009497869018218807469 560.65973568686933959
56.009497869018190385759 1613.34587452937262242 56.009497869018190385759 562.83140573810203477
58.009497869018218807469 1625.95754942432927237 58.009497869018218807469 564.88483493781006928
60.009497869018190385759 1638.02514154689902171 60.009497869018190385759 566.95944864132309249
62.009497869018190385759 1649.57994298797507327 62.009497869018190385759 568.98573044060276516
64.009497869018218807469 1660.65460412073366570 64.009497869018218807469 570.96331772537496363
66.009497869018190385759 1671.29273933400281749 66.009497869018190385759 573.09081373079152399
68.009497869018190385759 1681.53203053279253254 68.009497869018190385759 575.26207586808504857
70.009497869018190385759 1691.39523670479934481 70.009497869018190385759 577.13020241474282557
72.009497869018190385759 1700.90600344091353691 72.009497869018190385759 578.66368106495337997
74.009497869018218807469 1710.08623053950964277 74.009497869018218807469 580.11326834188207613
76.009497869018190385759 1718.95352345588617027 76.009497869018190385759 581.48308174615010557
78.009497869018190385759 1727.53043121888936184 78.009497869018190385759 583.02902963431449734
80.009497869018218807469 1735.83094372436767117 80.009497869018218807469 584.17577647818677633
82.009497869018190385759 1743.85497342600820048 82.009497869018190385759 585.47965952352751628
84.009497869018218807469 1751.60642426560343665 84.009497869018218807469 586.61607943441049429
86.009497869018190385759 1759.09169782913727431 86.009497869018190385759 587.25813009065370807
88.009497869018190385759 1766.32882711351749094 88.009497869018190385759 588.03445128151145127
91.009497869018218807469 1776.73597924947989668 91.009497869018218807469 588.94839339986720006
94.009497869018218807469 1786.64037567820128061 94.009497869018218807469 590.26927835190144833
97.009497869018218807469 1796.10983628166991366 97.009497869018218807469 592.32537059169408167
99.504748934509137825444 1803.70381651215507190 99.504748934509137825444 592.74998545523942539
nan nan nan nan

