Time Pressure difference Time.1 Pressure.1 difference.1
(hr) (psi) (hr) (psi)
0.000200000000020850166 0.12417982057264622 0.000200000000020850166 0.09999545199122488
0.000399999999999067768 0.23823508046767566 0.000399999999999067768 0.22909941329931044
0.000600000000019917934 0.34643689416216966 0.000600000000019917934 0.32186298402522789
0.000799999999998135536 0.45025725731977745 0.000799999999998135536 0.41080246793863423
0.001007140329434719206 0.55404611260315206 0.001007140329434719206 0.49932041977095848
0.001267914553977789183 0.68020041989896540 0.001267914553977789183 0.60580598452466150
0.001596209851982166583 0.83302643166328671 0.001596209851982166583 0.73245850859292638
0.002009509145224797066 1.01750447989237958 0.002009509145224797066 0.88234607150787203
0.002529822128153114136 1.23935340268313610 0.002529822128153114136 1.05881134210877059
0.003184857364431081805 1.50509242121403441 0.003184857364431081805 1.26545832265695757
0.004009497869034817086 1.82209939488841144 0.004009497869034817086 1.50613607458551901
0.005047658755856332391 2.19866510841935936 0.005047658755856332391 1.78492335057806772
0.006354625877790454069 2.64404431479567892 0.006354625877790454069 2.10611945388567801
0.008000000000009777068 3.16850562207123909 0.008000000000009777068 2.47424768446780163
0.010071403294361402914 3.78338385402557531 0.010071403294361402914 2.89407806336737083
0.012679145539692626699 4.50114002283641668 0.012679145539692626699 3.37067496114099008
0.015962098519750611558 5.33543508983003534 0.015962098519750611558 3.90947154200851976
0.020095091452091651263 6.30122347012315220 0.020095091452091651263 4.51636658591316742
0.025298221281360611101 7.41487032568707694 0.025298221281360611101 5.19783709613874745
0.031848573644296607199 8.69429544342843386 0.031848573644296607199 5.96107664227380596
0.040094978690191851456 10.15915214922648602 0.040094978690191851456 6.81420288730571233
0.050476587558435426217 11.83106380683502223 0.050476587558435426217 7.76657025431819203
0.063546258777947173257 13.73394253684912769 0.063546258777947173257 8.82908231523930098
0.080000000000012505552 15.89436365470058909 0.080000000000012505552 10.01413359333218089
0.100714032943542974863 18.34184935806834105 0.100714032943542974863 11.33466118520806454
0.126791455396883634421 21.10879537903492675 0.126791455396883634421 12.80202636590406584
0.159620985197506115583 24.22976495919792939 0.159620985197506115583 14.42316297010660264
0.200950914520774404082 27.74008479506514391 0.200950914520774404082 16.19812831023599031
0.252982212813464002465 31.67398981522434909 0.252982212813464002465 18.11948624232334026
0.318485736442809752589 36.06290807986270863 0.318485736442809752589 20.17307960282420254
0.400949786901833249431 40.93392749032815914 0.400949786901833249431 22.34292287868544236
0.504765875584169521062 46.31028342111062557 0.504765875584169521062 24.61406856193076820
0.635462587779443310865 52.21108265720490493 0.635462587779443310865 26.97620558556241832
0.800000000000011368684 58.65335453920032194 0.800000000000011368684 29.42847288611986656
1.007140329435344483500 65.65385990596519150 1.007140329435344483500 31.98544611310908792
1.267914553968907398485 73.23368915064750695 1.267914553968907398485 34.65381242744629020
1.596209851975117999245 81.40922707023999294 1.596209851975117999245 37.47936869419079642
2.009509145207687197399 90.21770006332208425 2.009509145207687197399 40.48697839056131187
2.529822128134725289783 99.68064581230738952 2.529822128134725289783 43.72908988705804489
3.184857364427983839050 109.85037543486205891 3.184857364427983839050 47.27704578739889030
4.009497869018204596614 120.76923841469428567 4.009497869018204596614 51.15741261131497453
5.009497869018190385759 132.08754940707206060 5.009497869018190385759 55.25367206294444600
6.009497869018190385759 141.91942460027311768 6.009497869018190385759 58.85255513731060262
7.009497869018204596614 150.65159728863233113 7.009497869018204596614 62.06228382220677275
8.009497869018190385759 158.52645930264938556 8.009497869018190385759 64.94300376293560362
9.009497869018204596614 165.70761983777265414 9.009497869018204596614 67.54778046249458612
10.009497869018190385759 172.31198508201103436 10.009497869018190385759 69.91080123561467019
11.009497869018190385759 178.42679011538484701 11.009497869018190385759 72.04421862664426612
12.009497869018204596614 184.11943059621165730 12.009497869018204596614 73.99503782708464428
13.009497869018190385759 189.44313768658361141 13.009497869018190385759 75.78342134413992426
14.009497869018204596614 194.44146561395413642 14.009497869018204596614 77.42417627459114726
15.009497869018190385759 199.14955107366745324 15.009497869018190385759 78.93487691610448564
16.009497869018190385759 203.59654776634238260 16.009497869018190385759 80.33080893599557726
17.009497869018204596614 207.80797298803335593 17.009497869018204596614 81.62621206013643871
18.009497869018190385759 211.80591520150105111 18.009497869018190385759 82.83578983540832041
19.009497869018204596614 215.60914954378316111 19.009497869018204596614 83.96331766775655581
20.009497869018190385759 219.23461851007758128 20.009497869018190385759 85.01440030454462260
21.009497869018190385759 222.69620292792654936 21.009497869018190385759 85.99423714537046237
22.009497869018204596614 226.00578078389551706 22.009497869018204596614 86.91136361794443133
23.009497869018190385759 229.17421131479483165 23.009497869018190385759 87.76892597797518647
24.009497869018204596614 232.21153262129664085 24.009497869018204596614 88.57603348339145555
25.009497869018204596614 235.12715636957622678 25.009497869018204596614 89.33692962445984165
26.009497869018190385759 237.92936690336654237 26.009497869018190385759 90.05607557165683374
27.009497869018204596614 240.62572100729684621 27.009497869018204596614 90.73834206373800271
28.009497869018190385759 243.22278181561264887 28.009497869018190385759 91.38534260565695888
29.009497869018190385759 245.72643618391717268 29.009497869018190385759 91.99436598391901043
30.009497869018190385759 248.14214706173649461 30.009497869018190385759 92.57768205835415642
31.009497869018218807469 250.47491872592553364 31.009497869018218807469 93.13110942857248631
32.009497869018190385759 252.72936058927501790 32.009497869018190385759 93.65689194789456451
33.009497869018190385759 254.90973860268832141 33.009497869018190385759 94.15425236505382145
34.009497869018218807469 257.02015450804969987 34.009497869018218807469 94.63352738501842509
35.009497869018190385759 259.06426257948442071 35.009497869018190385759 95.09032914366397904
36.009497869018190385759 261.04544087642136674 36.009497869018190385759 95.53060961916473559
37.009497869018190385759 262.96681863771044618 37.009497869018190385759 95.95397218446829868
38.009497869018218807469 264.83137607028606908 38.009497869018218807469 96.36229217006891190
39.009497869018190385759 266.64183977569456374 39.009497869018190385759 96.75841967772323926
40.009497869018190385759 268.40076305603662377 40.009497869018190385759 97.14111577277618892
41.009497869018218807469 270.11059790737698449 41.009497869018218807469 97.51005695899449677
42.009497869018190385759 271.77358928642456704 42.009497869018190385759 97.86390898524373938
43.009497869018190385759 273.39184713190883258 43.009497869018190385759 98.21004045839160312
44.009497869018218807469 274.96741206244263367 44.009497869018218807469 98.53664282741942770
46.009497869018190385759 277.99807237133398985 46.009497869018190385759 99.16385717682199186
48.009497869018218807469 280.87863664424406807 48.009497869018218807469 99.74560151175479916
50.009497869018190385759 283.61953252514354062 50.009497869018190385759 100.26372860642744911
52.009497869018190385759 286.23112434502451151 52.009497869018190385759 100.73380982215903146
54.009497869018218807469 288.72325258437791717 54.009497869018218807469 101.16251752610904191
56.009497869018190385759 291.10371214334332990 56.009497869018190385759 101.55436233970102933
58.009497869018218807469 293.37929696134636970 58.009497869018218807469 101.92487239095267171
60.009497869018190385759 295.55671032259266440 60.009497869018190385759 102.29920486354309617
62.009497869018190385759 297.64159840869984919 62.009497869018190385759 102.66481657950006934
64.009497869018218807469 299.63985248265413475 64.009497869018218807469 103.02164211131766081
66.009497869018190385759 301.55934209722221340 66.009497869018190385759 103.40551639055584587
68.009497869018190385759 303.40686637874301823 68.009497869018190385759 103.79728760228491069
70.009497869018190385759 305.18653184021377456 70.009497869018190385759 104.13436260961664459
72.009497869018190385759 306.90260496868660312 72.009497869018190385759 104.41105549650245621
74.009497869018218807469 308.55903724952020184 74.009497869018218807469 104.67261146168740993
76.009497869018190385759 310.15900531921425909 76.009497869018190385759 104.91977344550099360
78.009497869018190385759 311.70657780688657112 78.009497869018190385759 105.19871621662629479
80.009497869018218807469 313.20427897635335057 80.009497869018218807469 105.40562923410760732
82.009497869018190385759 314.65209303121451967 82.009497869018190385759 105.64089508794084793
84.009497869018218807469 316.05072437835889332 84.009497869018218807469 105.84594476751320258
86.009497869018190385759 317.40132808656170482 86.009497869018190385759 105.96179303809620365
88.009497869018190385759 318.70715793569991092 88.009497869018190385759 106.10186838340312931
91.009497869018218807469 320.58497016892789588 91.009497869018218807469 106.26677533084559002
94.009497869018218807469 322.37206778541462882 94.009497869018218807469 106.50510892001700824
97.009497869018218807469 324.08068785082303975 97.009497869018218807469 106.87609947632741125
99.504748934509137825444 325.45090602284534498 99.504748934509137825444 106.95271476692363422
nan nan nan nan

