Time Pressure difference Time.1 Pressure.1 difference.1
(hr) (psi) (hr) (psi)
0.000200000000020850166 0.18477358844243144 0.000200000000020850166 0.14878841350501532
0.000399999999999067768 0.35448231852720419 0.000399999999999067768 0.34088888605379325
0.000600000000019917934 0.51548140275937282 0.000600000000019917934 0.47891660876042935
0.000799999999998135536 0.66996109974689788 0.000799999999998135536 0.61125427458338955
0.001007140329434719206 0.82439391453601540 0.001007140329434719206 0.74296472098449839
0.001267914553977789183 1.01210544406653291 0.001267914553977789183 0.90141010950356248
0.001596209851982166583 1.23950318446284236 0.001596209851982166583 1.08986296158104135
0.002009509145224797066 1.51399762971938401 0.002009509145224797066 1.31288843170147240
0.002529822128153114136 1.84409813531767841 0.002529822128153114136 1.57546025000521905
0.003184857364431081805 2.23950498819196708 0.003184857364431081805 1.88294099817029226
0.004009497869034817086 2.71119608757492525 0.004009497869034817086 2.24105789411218792
0.005047658755856332391 3.27150772156374536 0.005047658755856332391 2.65587992525772743
0.006354625877790454069 3.93421051659357035 0.006354625877790454069 3.13380424764917187
0.008000000000009777068 4.71458366657588002 0.008000000000009777068 3.68156131363582517
0.010071403294361402914 5.62949284303805531 0.010071403294361402914 4.30624868464903976
0.012679145539692626699 6.69747943156984871 0.012679145539692626699 5.01540190001099173
0.015962098519750611558 7.93887028426517372 0.015962098519750611558 5.81710524624159220
0.020095091452091651263 9.37591685012300324 0.020095091452091651263 6.72013582361778550
0.025298221281360611101 11.03296970147414413 0.025298221281360611101 7.73413110088114841
0.031848573644296607199 12.93669261763146494 0.031848573644296607199 8.86979476290138535
0.040094978690191851456 15.11632880035507398 0.040094978690191851456 10.13920550099102869
0.050476587558435426217 17.60405277282078629 0.050476587558435426217 11.55628224588309116
0.063546258777947173257 20.43544461808273738 0.063546258777947173257 13.13724898713317835
0.080000000000012505552 23.65004712476533655 0.080000000000012505552 14.90054817803041587
0.100714032943542974863 27.29178790025831347 0.100714032943542974863 16.86542959485778326
0.126791455396883634421 31.40887023266040501 0.126791455396883634421 19.04879826733918335
0.159620985197506115583 36.05272255977040885 0.159620985197506115583 21.46097140732729258
0.200950914520774404082 41.27590930350054776 0.200950914520774404082 24.10203429294150368
0.252982212813464002465 47.12937038771333675 0.252982212813464002465 26.96092230032448711
0.318485736442809752589 53.65986925136198238 0.318485736442809752589 30.01657025239504861
0.400949786901833249431 60.90771138621116876 0.400949786901833249431 33.24519247611629424
0.504765875584169521062 68.90746990972485264 0.504765875584169521062 36.62454779998132182
0.635462587779443310865 77.68757479716634862 0.635462587779443310865 40.13929385321637255
0.800000000000011368684 87.27336488664144554 0.800000000000011368684 43.78814941488919033
1.007140329435344483500 97.68977949863494814 1.007140329435344483500 47.59280234902375639
1.267914553968907398485 108.96820012174657677 1.267914553968907398485 51.56320282879056549
1.596209851975117999245 121.13300654427273173 1.596209851975117999245 55.76749438232003797
2.009509145207687197399 134.23958985325634785 2.009509145207687197399 60.24267266547375499
2.529822128134725289783 148.31999708216824274 2.529822128134725289783 65.06677832592372113
3.184857364427983839050 163.45206465307788335 3.184857364427983839050 70.34596571980436863
4.009497869018204596614 179.69880655680415771 4.009497869018204596614 76.11976454816144155
5.009497869018190385759 196.53990785269158437 5.009497869018190385759 82.21480120209203335
6.009497869018190385759 211.16926431486422189 6.009497869018190385759 87.56976577660070404
7.009497869018204596614 224.16231644754330432 7.009497869018204596614 92.34568737400645944
8.009497869018190385759 235.87973161297830416 8.009497869018190385759 96.63205981593431204
9.009497869018204596614 246.56495240921594814 9.009497869018204596614 100.50784201347087787
10.009497869018190385759 256.39192960998025228 10.009497869018190385759 104.02390304335435189
11.009497869018190385759 265.49046481024129207 11.009497869018190385759 107.19832530591045838
12.009497869018204596614 273.96083950159197684 12.009497869018204596614 110.10105026078257140
13.009497869018190385759 281.88225908786836271 13.009497869018190385759 112.76207874700338607
14.009497869018204596614 289.31953016052210614 14.009497869018204596614 115.20344301098802475
15.009497869018190385759 296.32493442889079915 15.009497869018190385759 117.45129276070969127
16.009497869018190385759 302.94185119449736021 16.009497869018190385759 119.52837233247535664
17.009497869018204596614 309.20824896412187854 17.009497869018204596614 121.45586975213070957
18.009497869018190385759 315.15699430584794527 18.009497869018190385759 123.25566318883043948
19.009497869018204596614 320.81602371876169855 19.009497869018204596614 124.93337026467388284
20.009497869018190385759 326.21054681921179963 20.009497869018190385759 126.49733057362965383
21.009497869018190385759 331.36121760962561211 21.009497869018190385759 127.95528057172595027
22.009497869018204596614 336.28570996157952777 22.009497869018204596614 129.31992056404985192
23.009497869018190385759 341.00018189611040498 23.009497869018190385759 130.59593202746910379
24.009497869018204596614 345.51956962325465383 24.009497869018204596614 131.79686909878125789
25.009497869018204596614 349.85787724870675675 25.009497869018204596614 132.92904588699744295
26.009497869018190385759 354.02743147669599466 26.009497869018190385759 133.99910039879060264
27.009497869018204596614 358.03947643856827199 27.009497869018204596614 135.01428005869450999
28.009497869018190385759 361.90377776178507929 28.009497869018190385759 135.97698568432087995
29.009497869018190385759 365.62909480378039007 29.009497869018190385759 136.88318312065058535
30.009497869018190385759 369.22355617017416307 30.009497869018190385759 137.75112932779202879
31.009497869018218807469 372.69460798375666855 31.009497869018218807469 138.57460258347833815
32.009497869018190385759 376.04910882862014887 32.009497869018190385759 139.35694163331299933
33.009497869018190385759 379.29340623412053901 33.009497869018190385759 140.09698996486923761
34.009497869018218807469 382.43360339450777019 34.009497869018218807469 140.81012809698523824
35.009497869018190385759 385.47513769357016145 35.009497869018190385759 141.48982709930726287
36.009497869018190385759 388.42303552094017505 36.009497869018190385759 142.14494322851621178
37.009497869018190385759 391.28195303321973597 37.009497869018190385759 142.77488632267269963
38.009497869018218807469 394.05632463470271887 38.009497869018218807469 143.38244678317482794
39.009497869018190385759 396.75020737708769047 39.009497869018190385759 143.97186542408215360
40.009497869018190385759 399.36740045084968642 40.009497869018190385759 144.54129877033562934
41.009497869018218807469 401.91155230796459819 41.009497869018218807469 145.09026547513036576
42.009497869018190385759 404.38600333582445501 42.009497869018190385759 145.61678023707955276
43.009497869018190385759 406.79389302157522934 43.009497869018190385759 146.13180718808871461
44.009497869018218807469 409.13825770736946197 44.009497869018218807469 146.61777577332890132
46.009497869018190385759 413.64773419108126973 46.009497869018190385759 147.55104049804236865
48.009497869018218807469 417.93387500679688173 48.009497869018218807469 148.41664803255082461
50.009497869018190385759 422.01219598620753004 50.009497869018190385759 149.18759617944326124
52.009497869018190385759 425.89811875434361355 52.009497869018190385759 149.88705437393542752
54.009497869018218807469 429.60628547193579152 54.009497869018218807469 150.52495077680080726
56.009497869018190385759 433.14829457473376806 56.009497869018190385759 151.10799697533826702
58.009497869018218807469 436.53425511718410235 58.009497869018218807469 151.65929807569463605
60.009497869018190385759 439.77414126313487941 60.009497869018190385759 152.21628675479001913
62.009497869018190385759 442.87635425872804262 62.009497869018190385759 152.76029936829226585
64.009497869018218807469 445.84966001937090141 64.009497869018218807469 153.29123856322567576
66.009497869018190385759 448.70576806032460127 66.009497869018190385759 153.86242499076683998
68.009497869018190385759 451.45479515391281211 68.009497869018190385759 154.44536167327936482
70.009497869018190385759 454.10285159357113116 70.009497869018190385759 154.94691303961030826
72.009497869018190385759 456.65628570641916895 72.009497869018190385759 155.35861872069941114
74.009497869018218807469 459.12097711223788110 74.009497869018218807469 155.74780139178790250
76.009497869018190385759 461.50165249304768622 76.009497869018190385759 156.11556651228161741
78.009497869018190385759 463.80436577289754041 78.009497869018190385759 156.53061991269095188
80.009497869018218807469 466.03287293469441011 80.009497869018218807469 156.83849651099143330
82.009497869018190385759 468.18715047415662411 82.009497869018190385759 157.18856076338187222
84.009497869018218807469 470.26824651478699479 84.009497869018218807469 157.49366480467324436
86.009497869018190385759 472.27787974325752884 86.009497869018190385759 157.66604144825160461
88.009497869018190385759 474.22089162721613320 88.009497869018190385759 157.87446681144925265
91.009497869018218807469 477.01498573328433395 91.009497869018218807469 158.11984040192086809
94.009497869018218807469 479.67410086143013359 94.009497869018218807469 158.47446929665181869
97.009497869018218807469 482.21644517562225474 97.009497869018218807469 159.02648536537873269
99.504748934509137825444 484.25526378098078339 99.504748934509137825444 159.14048522548276310
nan nan nan nan

