Time Pressure difference Time.1 Pressure.1 difference.1
(hr) (psi) (hr) (psi)
0.000200000000020850166 0.21469643677318956 0.000200000000020850166 0.17288370314145507
0.000399999999999067768 0.41188836201339107 0.000399999999999067768 0.39609356395724149
0.000600000000019917934 0.59896017243700417 0.000600000000019917934 0.55647395430867708
0.000799999999998135536 0.77845682440226593 0.000799999999998135536 0.71024282107462666
0.001007140329434719206 0.95789900191026889 0.001007140329434719206 0.86328289442328354
0.001267914553977789183 1.17600915970483766 0.001267914553977789183 1.04738745517215559
0.001596209851982166583 1.44023244510459825 0.001596209851982166583 1.26635898774801126
0.002009509145224797066 1.75917943210309002 0.002009509145224797066 1.52550194290818841
0.002529822128153114136 2.14273750945819286 0.002529822128153114136 1.83059551316395885
0.003184857364431081805 2.60217786077366231 0.003184857364431081805 2.18787071447317372
0.004009497869034817086 3.15025618272875940 0.004009497869034817086 2.60398224943399947
0.005047658755856332391 3.80130654286961489 0.005047658755856332391 3.08598193744521332
0.006354625877790454069 4.57132962859252867 0.006354625877790454069 3.64130291123608218
0.008000000000009777068 5.47807899719545510 0.008000000000009777068 4.27776557495336807
0.010071403294361402914 6.54115160304421828 0.010071403294361402914 5.00361689268937049
0.012679145539692626699 7.78209148526537131 0.012679145539692626699 5.82761273402086921
0.015962098519750611558 9.22451729386277108 0.015962098519750611558 6.75914658166533222
0.020095091452091651263 10.89428395135749916 0.020095091452091651263 7.80841692865710169
0.025298221281360611101 12.81968544260356069 0.025298221281360611101 8.98662196742060715
0.031848573644296607199 15.03170356785518536 0.031848573644296607199 10.30619877308784638
0.040094978690191851456 17.56431727004820331 0.040094978690191851456 11.78118210034180358
0.050476587558435426217 20.45491152145573110 0.050476587558435426217 13.42774495776699339
0.063546258777947173257 23.74482836190180635 0.063546258777947173257 15.26473870164867286
0.080000000000012505552 27.48001427047632106 0.080000000000012505552 17.31359241738756793
0.100714032943542974863 31.71151063714225060 0.100714032943542974863 19.59667325394406490
0.126791455396883634421 36.49532695050015008 0.126791455396883634421 22.13362389767751637
0.159620985197506115583 41.89122014030003527 0.159620985197506115583 24.93643236397948826
0.200950914520774404082 47.96026708544395945 0.200950914520774404082 28.00519774119113592
0.252982212813464002465 54.76165709017703165 0.252982212813464002465 31.32706356353493149
0.318485736442809752589 62.34972662000360089 0.318485736442809752589 34.87755328922015963
0.400949786901833249431 70.77130837183241852 0.400949786901833249431 38.62902931435375109
0.504765875584169521062 80.06657434854669475 0.504765875584169521062 42.55564865827788879
0.635462587779443310865 90.26855856998679428 0.635462587779443310865 46.63958435576152795
0.800000000000011368684 101.40670332982224977 0.800000000000011368684 50.87934770070121004
1.007140329435344483500 113.50998670489161668 1.007140329435344483500 55.30013876182113108
1.267914553968907398485 126.61487220623996564 1.267914553968907398485 59.91351907636798302
1.596209851975117999245 140.74968776601730269 1.596209851975117999245 64.79866756164312847
2.009509145207687197399 155.97879468779180456 2.009509145207687197399 69.99857107283793312
2.529822128134725289783 172.33942980802544298 2.529822128134725289783 75.60390841919071647
3.184857364427983839050 189.92203463738198366 3.184857364427983839050 81.73802494568361965
4.009497869018204596614 208.79982786154977248 4.009497869018204596614 88.44685192438191734
5.009497869018190385759 228.36823301102219830 5.009497869018190385759 95.52893904858466101
6.009497869018190385759 245.36671602577337126 6.009497869018190385759 101.75110436390447433
7.009497869018204596614 260.46390615564746440 7.009497869018204596614 107.30045456008038229
8.009497869018190385759 274.07887843289381635 8.009497869018190385759 112.28097638531639291
9.009497869018204596614 286.49449935807678003 9.009497869018204596614 116.78441561889125921
10.009497869018190385759 297.91288987070583971 10.009497869018190385759 120.86987924470729183
11.009497869018190385759 308.48487206696057683 11.009497869018190385759 124.55837798702955865
12.009497869018204596614 318.32696735610085170 12.009497869018204596614 127.93117985767045752
13.009497869018190385759 327.53120792800899608 13.009497869018190385759 131.02314413113350611
14.009497869018204596614 336.17289536870379152 14.009497869018204596614 133.85987102896177703
15.009497869018190385759 344.31277806109977746 15.009497869018190385759 136.47174502965052056
16.009497869018190385759 352.00126029482083823 16.009497869018190385759 138.88519376283574047
17.009497869018204596614 359.28245932268413299 17.009497869018204596614 141.12483651360938097
18.009497869018190385759 366.19456423392051647 18.009497869018190385759 143.21609447447102070
19.009497869018204596614 372.77003565702273136 19.009497869018204596614 145.16549500389234595
20.009497869018190385759 379.03816573730279060 20.009497869018190385759 146.98272823737534054
21.009497869018190385759 385.02295325490916866 21.009497869018190385759 148.67678349832124240
22.009497869018204596614 390.74493424685550735 22.009497869018204596614 150.26241782138586700
23.009497869018190385759 396.22288341774765286 23.009497869018190385759 151.74507081734265057
24.009497869018204596614 401.47415579706108701 24.009497869018204596614 153.14049162489968126
25.009497869018204596614 406.51502336185768627 25.009497869018204596614 154.45601688084320813
26.009497869018190385759 411.35980904377225897 26.009497869018190385759 155.69935957268378957
27.009497869018204596614 416.02157788610963962 27.009497869018204596614 156.87894079694461880
28.009497869018190385759 420.51167699446278903 28.009497869018190385759 157.99755016761173465
29.009497869018190385759 424.84028424568811033 29.009497869018190385759 159.05050022520939024
30.009497869018190385759 429.01684461878539878 30.009497869018190385759 160.05900452257617417
31.009497869018218807469 433.05001008638930671 31.009497869018218807469 161.01583377108619288
32.009497869018190385759 436.94774993446947065 32.009497869018190385759 161.92486740389000488
33.009497869018190385759 440.71743963235871888 33.009497869018190385759 162.78476161909907205
34.009497869018218807469 444.36617074584501097 34.009497869018218807469 163.61338770783305563
35.009497869018190385759 447.90026120669898546 35.009497869018190385759 164.40315942308168928
36.009497869018190385759 451.32555139477670991 36.009497869018190385759 165.16436723313421453
37.009497869018190385759 454.64745150013789043 37.009497869018190385759 165.89632540326746835
38.009497869018218807469 457.87111404922950442 38.009497869018218807469 166.60227622174565454
39.009497869018190385759 461.00125310617067953 39.009497869018190385759 167.28714727413597529
40.009497869018190385759 464.04228311495484149 40.009497869018190385759 167.94879654690822690
41.009497869018218807469 466.99844336998307881 41.009497869018218807469 168.58666474235798205
42.009497869018190385759 469.87361521207134274 42.009497869018190385759 169.19844505280093472
43.009497869018190385759 472.67144654733641573 43.009497869018190385759 169.79687717806257297
44.009497869018218807469 475.39546543325923267 44.009497869018218807469 170.36154512933359229
46.009497869018190385759 480.63522150947505907 46.009497869018190385759 171.44594584185489339
48.009497869018218807469 485.61547419818094795 48.009497869018218807469 172.45173273417847781
50.009497869018190385759 490.35425201636257952 50.009497869018190385759 173.34753078340168031
52.009497869018190385759 494.86947401820498271 52.009497869018190385759 174.16026155999784919
54.009497869018218807469 499.17815356455696474 54.009497869018218807469 174.90146102405597617
56.009497869018190385759 503.29376738035870176 56.009497869018190385759 175.57892765960357906
58.009497869018218807469 507.22806161389411272 58.009497869018218807469 176.21950829038203779
60.009497869018190385759 510.99262567821739367 60.009497869018190385759 176.86669756528232256
62.009497869018190385759 514.59722134516164260 62.009497869018190385759 177.49880938744891523
64.009497869018218807469 518.05203411157663140 64.009497869018218807469 178.11573063824198471
66.009497869018190385759 521.37066977049857996 66.009497869018190385759 178.77941689210561549
68.009497869018190385759 524.56488343794728735 68.009497869018190385759 179.45675627623958803
70.009497869018190385759 527.64177492856231311 70.009497869018190385759 180.03953053590345235
72.009497869018190385759 530.60872063863280346 72.009497869018190385759 180.51790920178436295
74.009497869018218807469 533.47255235308614374 74.009497869018218807469 180.97011740665232082
76.009497869018190385759 536.23876220852105234 76.009497869018190385759 181.39743963167944685
78.009497869018190385759 538.91438452154488914 78.009497869018190385759 181.87970815766112764
80.009497869018218807469 541.50378353140604304 80.009497869018218807469 182.23744331439087318
82.009497869018190385759 544.00693192746132354 82.009497869018190385759 182.64419813397000780
84.009497869018218807469 546.42504756981327318 84.009497869018218807469 182.99871173660415025
86.009497869018190385759 548.76012747495917665 86.009497869018190385759 183.19900362610610500
88.009497869018190385759 551.01779715389079684 88.009497869018190385759 183.44118208455844865
91.009497869018218807469 554.26437613543566840 91.009497869018218807469 183.72629228887160480
94.009497869018218807469 557.35411719526496199 94.009497869018218807469 184.13835096412580583
97.009497869018218807469 560.30817718786875048 97.009497869018218807469 184.77976234762630270
99.504748934509137825444 562.67716884672665856 99.504748934509137825444 184.91222372353666970
nan nan nan nan

