Time Pressure difference Time.1 Pressure.1 difference.1
(hr) (psi) (hr) (psi)
0.000200000000020850166 0.27828248947605061 0.000200000000020850166 0.22408619361888951
0.000399999999999067768 0.53387620442153827 0.000399999999999067768 0.51340350450206917
0.000600000000019917934 0.77635255800197045 0.000600000000019917934 0.72128331359870335
0.000799999999998135536 1.00901023929492295 0.000799999999998135536 0.92059348236850569
0.001007140329434719206 1.24159731258055772 0.001007140329434719206 1.11895901298070211
0.001267914553977789183 1.52430455543623578 0.001267914553977789183 1.35758931471791611
0.001596209851982166583 1.86678212396832932 0.001596209851982166583 1.64141304335282312
0.002009509145224797066 2.28019076216846539 0.002009509145224797066 1.97730565422246030
0.002529822128153114136 2.77734617950678642 0.002529822128153114136 2.37275794737628143
0.003184857364431081805 3.37285771500976450 0.003184857364431081805 2.83584636161679660
0.004009497869034817086 4.08325888493065658 0.004009497869034817086 3.37519650449284958
0.005047658755856332391 4.92712903814458780 0.005047658755856332391 3.99994871334362134
0.006354625877790454069 5.92520774159031571 0.006354625877790454069 4.71973757135826677
0.008000000000009777068 7.10050657476205327 0.008000000000009777068 5.54469963025314527
0.010071403294361402914 8.47842646805731270 0.010071403294361402914 6.48552433477507240
0.012679145539692626699 10.08689209936835596 0.012679145539692626699 7.55356075629185764
0.015962098519750611558 11.95651718925766893 0.015962098519750611558 8.76098441944077955
0.020095091452091651263 14.12081404148080033 0.020095091452091651263 10.12101427686565280
0.025298221281360611101 16.61645639250357220 0.025298221281360611101 11.64816505881695363
0.031848573644296607199 19.48360183708058813 0.031848573644296607199 13.35855729473407116
0.040094978690191851456 22.76629276814610492 0.040094978690191851456 15.27038237396219778
0.050476587558435426217 26.51298636230498929 0.050476587558435426217 17.40460322052028630
0.063546258777947173257 30.77726881751732435 0.063546258777947173257 19.78565434499410003
0.080000000000012505552 35.61869445511216270 0.080000000000012505552 22.44131142602151385
0.100714032943542974863 41.10342145302061567 0.100714032943542974863 25.40056602950241071
0.126791455396883634421 47.30404747590959857 0.126791455396883634421 28.68887836214646114
0.159620985197506115583 54.29802749892547098 0.159620985197506115583 32.32178689686539741
0.200950914520774404082 62.16452737207369950 0.200950914520774404082 36.29942006872161642
0.252982212813464002465 70.98026633291239307 0.252982212813464002465 40.60511374785712491
0.318485736442809752589 80.81567352836704288 0.318485736442809752589 45.20714224247350899
0.400949786901833249431 91.73145196627756093 0.400949786901833249431 50.06968259560834156
0.504765875584169521062 103.77967128104309324 0.504765875584169521062 55.15923798215810336
0.635462587779443310865 117.00314908723028395 0.635462587779443310865 60.45270167366999914
0.800000000000011368684 131.44004752158144811 0.800000000000011368684 65.94814405805173863
1.007140329435344483500 147.12792701818702312 1.007140329435344483500 71.67822863901554342
1.267914553968907398485 164.11405038578837434 1.267914553968907398485 77.65794110247000503
1.596209851975117999245 182.43513536222454263 1.596209851975117999245 83.98991056770466912
2.009509145207687197399 202.17460496117959678 2.009509145207687197399 90.72985518848679476
2.529822128134725289783 223.38072435047200770 2.529822128134725289783 97.99530986738308513
3.184857364427983839050 246.17072085402824655 3.184857364427983839050 105.94615080067701740
4.009497869018204596614 270.63949813413415768 4.009497869018204596614 114.64191259885043905
5.009497869018190385759 296.00342397247470672 5.009497869018190385759 123.82148197238151965
6.009497869018190385759 318.03630091145538472 6.009497869018190385759 131.88644886192494710
7.009497869018204596614 337.60478428536885076 7.009497869018204596614 139.07933483048745416
8.009497869018190385759 355.25206542521431174 8.009497869018190385759 145.53492409525327389
9.009497869018204596614 371.34478662440619701 9.009497869018204596614 151.37213453040956779
10.009497869018190385759 386.14493042474765616 10.009497869018190385759 156.66757867258226611
11.009497869018190385759 399.84798748748892194 11.009497869018190385759 161.44848993440766094
12.009497869018204596614 412.60498904693207578 12.009497869018204596614 165.82020525105716047
13.009497869018190385759 424.53522421330785619 13.009497869018190385759 169.82790807240994013
14.009497869018204596614 435.73629643608995821 14.009497869018204596614 173.50478056715607522
15.009497869018190385759 446.28694577954399847 15.009497869018190385759 176.89020610114982901
16.009497869018190385759 456.25250463300824322 16.009497869018190385759 180.01843930235153834
17.009497869018204596614 465.69015633462896631 17.009497869018204596614 182.92139088175153461
18.009497869018190385759 474.64940033107467343 18.009497869018190385759 185.63201095645720784
19.009497869018204596614 483.17231102582729818 19.009497869018204596614 188.15876007473156051
20.009497869018190385759 491.29685593824609668 20.009497869018190385759 190.51419827283493191
21.009497869018190385759 499.05414150113659844 21.009497869018190385759 192.70997721733624530
22.009497869018204596614 506.47078585306707055 22.009497869018204596614 194.76522449322487773
23.009497869018190385759 513.57112415122696802 23.009497869018190385759 196.68699074582391972
24.009497869018204596614 520.37765141639977173 24.009497869018204596614 198.49568949290133446
25.009497869018204596614 526.91145885230332624 25.009497869018204596614 200.20083024276542005
26.009497869018190385759 533.19111137380934906 26.009497869018190385759 201.81241031720685442
27.009497869018204596614 539.23354346213523058 27.009497869018204596614 203.34134486572614264
28.009497869018190385759 545.05346286390295063 28.009497869018190385759 204.79124969460477246
29.009497869018190385759 550.66406180974206563 29.009497869018190385759 206.15604907239682575
30.009497869018190385759 556.07758257208422492 30.009497869018190385759 207.46323931149245823
31.009497869018218807469 561.30523955448370543 31.009497869018218807469 208.70345004475282735
32.009497869018190385759 566.35736228439952811 32.009497869018190385759 209.88170966636613457
33.009497869018190385759 571.24351060361470900 33.009497869018190385759 210.99627638433747734
34.009497869018218807469 575.97287636743669736 34.009497869018218807469 212.07031438088466757
35.009497869018190385759 580.55364867209766544 35.009497869018190385759 213.09399061110238449
36.009497869018190385759 584.99339762667921150 36.009497869018190385759 214.08064324294750236
37.009497869018190385759 589.29913574233898999 37.009497869018190385759 215.02938344953133765
38.009497869018218807469 593.47754155509881002 38.009497869018218807469 215.94441377870862198
39.009497869018190385759 597.53472528047211654 39.009497869018190385759 216.83212120550030022
40.009497869018190385759 601.47640877617845945 40.009497869018190385759 217.68972932212494698
41.009497869018218807469 605.30808687677256330 41.009497869018218807469 218.51651318521660983
42.009497869018190385759 609.03479044909590812 42.009497869018190385759 219.30948278620888914
43.009497869018190385759 612.66124778957885155 43.009497869018190385759 220.08515090675709303
44.009497869018218807469 616.19203185077515172 44.009497869018218807469 220.81705501084357479
46.009497869018190385759 622.98363206106171219 46.009497869018190385759 222.22261969745653687
48.009497869018218807469 629.43887247987220235 48.009497869018218807469 223.52628772513727995
50.009497869018190385759 635.58112108044201705 50.009497869018190385759 224.68739181681328887
52.009497869018190385759 641.43360395391016482 52.009497869018190385759 225.74082683038045616
54.009497869018218807469 647.01837326137706441 54.009497869018218807469 226.70154529947328115
56.009497869018190385759 652.35289709231165034 56.009497869018190385759 227.57965536366737069
58.009497869018218807469 657.45240041940269293 58.009497869018218807469 228.40995499659271672
60.009497869018190385759 662.33190506026789990 60.009497869018190385759 229.24882053757849576
62.009497869018190385759 667.00406390383329835 62.009497869018190385759 230.06814317815675963
64.009497869018218807469 671.48207905751405633 64.009497869018218807469 230.86777629765160214
66.009497869018190385759 675.78358590461846234 66.009497869018190385759 231.72802468245046725
68.009497869018190385759 679.92382104152045486 68.009497869018190385759 232.60596980753004459
70.009497869018190385759 683.91198701541884475 70.009497869018190385759 233.36134271552643327
72.009497869018190385759 687.75764486958678390 72.009497869018190385759 233.98140147408983580
74.009497869018218807469 691.46964973988872316 74.009497869018218807469 234.56753893823923818
76.009497869018190385759 695.05512035390188430 76.009497869018190385759 235.12142001039981665
78.009497869018190385759 698.52317436242049098 78.009497869018190385759 235.74652067822279378
80.009497869018218807469 701.87946854941822039 80.009497869018218807469 236.21020527161462610
82.009497869018190385759 705.12396751573385245 82.009497869018190385759 236.73742754646985986
84.009497869018218807469 708.25824981174389450 84.009497869018218807469 237.19693646695731104
86.009497869018190385759 711.28490390482511430 86.009497869018190385759 237.45654825404693611
88.009497869018190385759 714.21122139807448548 88.009497869018190385759 237.77045203991545463
91.009497869018218807469 718.41933074000712622 91.009497869018218807469 238.14000254864191675
94.009497869018218807469 722.42415190466397235 94.009497869018218807469 238.67409950750800363
97.009497869018218807469 726.25310771389251840 97.009497869018218807469 239.50547593490239251
99.504748934509137825444 729.32371711143662196 99.504748934509137825444 239.67716803190117503
nan nan nan nan

