Time Pressure difference Time.1 Pressure.1 difference.1
(hr) (psi) (hr) (psi)
0.000200000000020850166 0.05161691337055777 0.000200000000020850166 0.04156437462285854
0.000399999999999067768 0.09902542501367241 0.000399999999999067768 0.09522806938344831
0.000600000000019917934 0.14400087769391387 0.000600000000019917934 0.13378642107072725
0.000799999999998135536 0.18715512503050991 0.000799999999998135536 0.17075524269738412
0.001007140329434719206 0.23029627572058731 0.001007140329434719206 0.20754884918190444
0.001267914553977789183 0.28273390947607602 0.001267914553977789183 0.25181092127832311
0.001596209851982166583 0.34625797460702884 0.001596209851982166583 0.30445564513802365
0.002009509145224797066 0.42293860911189274 0.002009509145224797066 0.36675830683158539
0.002529822128153114136 0.51515292039238791 0.002529822128153114136 0.44010832894882634
0.003184857364431081805 0.62561070520342399 0.003184857364431081805 0.52600376062247023
0.004009497869034817086 0.75737866414036381 0.004009497869034817086 0.62604451293012531
0.005047658755856332391 0.91390296675262517 0.005047658755856332391 0.74192597102341373
0.006354625877790454069 1.09903046819820371 0.006354625877790454069 0.87543519468742048
0.008000000000009777068 1.31702944531876809 0.008000000000009777068 1.02845235077276098
0.010071403294361402914 1.57261136101063070 0.010071403294361402914 1.20296015886956975
0.012679145539692626699 1.87095579262477552 0.012679145539692626699 1.40106368866703801
0.015962098519750611558 2.21774109155585819 0.015962098519750611558 1.62502130360595110
0.020095091452091651263 2.61918324962950333 0.020095091452091651263 1.87728490619282273
0.025298221281360611101 3.08208465344824312 0.025298221281360611101 2.16054674478056397
0.031848573644296607199 3.61389388913591558 0.031848573644296607199 2.47779691757164233
0.040094978690191851456 4.22278011022064792 0.040094978690191851456 2.83240963388008504
0.050476587558435426217 4.91773134139528079 0.050476587558435426217 3.22827317799973024
0.063546258777947173257 5.70868695808789006 0.063546258777947173257 3.66991975753922794
0.080000000000012505552 6.60669332635145068 0.080000000000012505552 4.16250131289108705
0.100714032943542974863 7.62402172112479271 0.100714032943542974863 4.71139531192383476
0.126791455396883634421 8.77413783827355509 0.126791455396883634421 5.32132421233361796
0.159620985197506115583 10.07140832641359474 0.159620985197506115583 5.99517015022503319
0.200950914520774404082 11.53051717385237929 0.200950914520774404082 6.73295694823062174
0.252982212813464002465 13.16569456174987884 0.252982212813464002465 7.53159367903801513
0.318485736442809752589 14.99000396090678855 0.318485736442809752589 8.38519573852331312
0.400949786901833249431 17.01470480019663967 0.400949786901833249431 9.28711854595961306
0.504765875584169521062 19.24945515696767018 0.504765875584169521062 10.23114898056158317
0.635462587779443310865 21.70219700811529506 0.635462587779443310865 11.21300111689040158
0.800000000000011368684 24.38000881448688162 0.800000000000011368684 12.23231704302572709
1.007140329435344483500 27.28985743079275750 1.007140329435344483500 13.29515531207546353
1.267914553968907398485 30.44050934575107448 1.267914553968907398485 14.40429552707104932
1.596209851975117999245 33.83877510750939166 1.596209851975117999245 15.57877373433231938
2.009509145207687197399 37.50012833957363512 2.009509145207687197399 16.82892475270319466
2.529822128134725289783 41.43352145210368320 2.529822128134725289783 18.17654941088557052
3.184857364427983839050 45.66069822292458724 3.184857364427983839050 19.65130216464170587
4.009497869018204596614 50.19926175068618335 4.009497869018204596614 21.26422572398032074
5.009497869018190385759 54.90386089812032111 5.009497869018190385759 22.96688778519979834
6.009497869018190385759 58.99060420131834093 6.009497869018190385759 24.46280906309898384
7.009497869018204596614 62.62024224647971948 7.009497869018204596614 25.79697339597751338
8.009497869018190385759 65.89352826435425925 8.009497869018190385759 26.99438108218407706
9.009497869018204596614 68.87846848678502454 9.009497869018204596614 28.07708946935016314
10.009497869018190385759 71.62365644975157863 10.009497869018190385759 29.05930894733381109
11.009497869018190385759 74.16535251784068805 11.009497869018190385759 29.94609087493045152
12.009497869018204596614 76.53157054902773382 12.009497869018204596614 30.75697355463156768
13.009497869018190385759 78.74443674924258119 13.009497869018190385759 31.50033778762442793
14.009497869018204596614 80.82205498411346412 14.009497869018204596614 32.18233833100475039
15.009497869018190385759 82.77903026556057853 15.009497869018190385759 32.81028016392294688
16.009497869018190385759 84.62748069805797968 16.009497869018190385759 33.39051696737165287
17.009497869018204596614 86.37801286851987470 17.009497869018204596614 33.92896766355068650
18.009497869018190385759 88.03980812592514837 18.009497869018190385759 34.43174396772996460
19.009497869018204596614 89.62067059350023612 19.009497869018204596614 34.90041517515181368
20.009497869018190385759 91.12764263370694096 20.009497869018190385759 35.33731096996132237
21.009497869018190385759 92.56649398811404694 21.009497869018190385759 35.74459254837688604
22.009497869018204596614 93.94216189210115431 22.009497869018204596614 36.12580776890461465
23.009497869018190385759 95.25916012482436201 23.009497869018190385759 36.48226441253185470
24.009497869018204596614 96.52166114981608303 24.009497869018204596614 36.81774885755427817
25.009497869018204596614 97.73357704518528521 25.009497869018204596614 37.13402496438390443
26.009497869018190385759 98.89835130320656731 26.009497869018190385759 37.43294707496579576
27.009497869018204596614 100.01912499700893022 27.009497869018204596614 37.71653977348145759
28.009497869018190385759 101.09862617636910898 28.009497869018190385759 37.98547373367669167
29.009497869018190385759 102.13930178729087572 29.009497869018190385759 38.23862200536392919
30.009497869018190385759 103.14342257385432333 30.009497869018190385759 38.48108471100263017
31.009497869018218807469 104.11306862704134346 31.009497869018218807469 38.71112379862351105
32.009497869018190385759 105.05015590759022359 32.009497869018190385759 38.92967195424532889
33.009497869018190385759 105.95645761196080059 33.009497869018190385759 39.13640610354646299
34.009497869018218807469 106.83367868105682419 34.009497869018218807469 39.33562282871248073
35.009497869018190385759 107.68333806014713616 35.009497869018190385759 39.52549825851092891
36.009497869018190385759 108.50683988236791322 36.009497869018190385759 39.70850640796606967
37.009497869018190385759 109.30548485543386050 37.009497869018190385759 39.88448241402597461
38.009497869018218807469 110.08051174005866812 38.009497869018218807469 40.05420578153466948
39.009497869018190385759 110.83305388266821012 39.009497869018190385759 40.21886119134279625
40.009497869018190385759 111.56417259558149624 40.009497869018190385759 40.37793366458769384
41.009497869018218807469 112.27488708198200129 41.009497869018218807469 40.53128873596759973
42.009497869018190385759 112.96613048652585576 42.009497869018190385759 40.67837180711939027
43.009497869018190385759 113.63877983193802379 43.009497869018190385759 40.82224573270494261
44.009497869018218807469 114.29368332715988288 44.009497869018218807469 40.95800213910808196
46.009497869018190385759 115.55341562422918855 46.009497869018190385759 41.21871171807661227
48.009497869018218807469 116.75075860513759096 48.009497869018218807469 41.46052111030771670
50.009497869018190385759 117.89004665201748878 50.009497869018190385759 41.67588719182828072
52.009497869018190385759 118.97558783016077655 52.009497869018190385759 41.87128239595767099
54.009497869018218807469 120.01147245977153943 54.009497869018218807469 42.04948017651520331
56.009497869018190385759 121.00094058970294952 56.009497869018190385759 42.21235543035765403
58.009497869018218807469 121.94681620682469259 58.009497869018218807469 42.36636262033574951
60.009497869018190385759 122.85188561601742663 60.009497869018190385759 42.52195864809924331
62.009497869018190385759 123.71849572409811913 62.009497869018190385759 42.67392978304521023
64.009497869018218807469 124.54909530905503345 64.009497869018218807469 42.82224882940312227
66.009497869018190385759 125.34695545005020278 66.009497869018190385759 42.98181102980935719
68.009497869018190385759 126.11490228995944562 68.009497869018190385759 43.14465569010638291
70.009497869018190385759 126.85464275285994518 70.009497869018190385759 43.28476518110571902
72.009497869018190385759 127.56795025806852095 72.009497869018190385759 43.39977607987150066
74.009497869018218807469 128.25646729046320615 74.009497869018218807469 43.50849512564115429
76.009497869018190385759 128.92151425919146845 76.009497869018190385759 43.61123113096125792
78.009497869018190385759 129.56478234141670214 78.009497869018190385759 43.72717722257358020
80.009497869018218807469 130.18732077932759239 80.009497869018218807469 43.81318323586400254
82.009497869018190385759 130.78912300695060367 82.009497869018190385759 43.91097446426456941
84.009497869018218807469 131.37048181992025775 84.009497869018218807469 43.99620595758079133
86.009497869018190385759 131.93187733718531263 86.009497869018190385759 44.04435975679902526
88.009497869018190385759 132.47466203351382319 88.009497869018190385759 44.10258384611335458
91.009497869018218807469 133.25519844371098088 91.009497869018218807469 44.17112950499003432
94.009497869018218807469 133.99802817586510173 94.009497869018218807469 44.27019587639260578
97.009497869018218807469 134.70823772112524352 97.009497869018218807469 44.42440279437705897
99.504748934509137825444 135.27778623841163608 99.504748934509137825444 44.45624890914295690
nan nan nan nan

