Time Pressure difference Time.1 Pressure.1 difference.1
(hr) (psi) (hr) (psi)
0.000200000000020850166 0.23639050181298921 0.000200000000020850166 0.19035278812787387
0.000399999999999067768 0.45350774354087658 0.000399999999999067768 0.43611695543724155
0.000600000000019917934 0.65948228045328672 0.000600000000019917934 0.61270302983115665
0.000799999999998135536 0.85711622477740768 0.000799999999998135536 0.78200951728077361
0.001007140329434719206 1.05469019025660282 0.001007140329434719206 0.95051357016640292
0.001267914553977789183 1.29483935354260882 0.001267914553977789183 1.15322103078188554
0.001596209851982166583 1.58576115906987125 0.001596209851982166583 1.39431860671906471
0.002009509145224797066 1.93693623883127697 0.002009509145224797066 1.67964673853305757
0.002529822128153114136 2.35925105571006632 0.002529822128153114136 2.01556857895404562
0.003184857364431081805 2.86511569339539118 0.003184857364431081805 2.40894475879276238
0.004009497869034817086 3.46857475171528895 0.004009497869034817086 2.86710240704231323
0.005047658755856332391 4.18541068831637020 0.005047658755856332391 3.39780589628114127
0.006354625877790454069 5.03324098479177362 0.006354625877790454069 4.00923944233659224
0.008000000000009777068 6.03161311189464744 0.008000000000009777068 4.71001366440858593
0.010071403294361402914 7.20210420404868579 0.010071403294361402914 5.50920884351860884
0.012679145539692626699 8.56843522419462467 0.012679145539692626699 6.41646558867802952
0.015962098519750611558 10.15661137582103102 0.015962098519750611558 7.44212654984754352
0.020095091452091651263 11.99510009975250746 0.020095091452091651263 8.59742072981060801
0.025298221281360611101 14.11505435492238725 0.025298221281360611101 9.89467784566171282
0.031848573644296607199 16.55058650676738452 0.031848573644296607199 11.34759168047302857
0.040094978690191851456 19.33910891057572456 0.040094978690191851456 12.97161513487111506
0.050476587558435426217 22.52178411421606796 0.050476587558435426217 14.78455542388282140
0.063546258777947173257 26.14413157617062922 0.063546258777947173257 16.80716874467240629
0.080000000000012505552 30.25674045111678723 0.080000000000012505552 19.06304949092150025
0.100714032943542974863 34.91580962138310440 0.100714032943542974863 21.57682490678161713
0.126791455396883634421 40.18300807093395832 0.126791455396883634421 24.37012247967280487
0.159620985197506115583 46.12413088618400536 0.159620985197506115583 27.45614155755232844
0.200950914520774404082 52.80642647735292172 0.200950914520774404082 30.83499124117212631
0.252982212813464002465 60.29506494946321737 0.252982212813464002465 34.49251597936250135
0.318485736442809752589 68.64987321226877270 0.318485736442809752589 38.40176599091836351
0.400949786901833249431 77.92241618640780132 0.400949786901833249431 42.53231102207590908
0.504765875584169521062 88.15692506669252282 0.504765875584169521062 46.85569678054290677
0.635462587779443310865 99.38977180528164013 0.635462587779443310865 51.35229497010676880
0.800000000000011368684 111.65337370112833071 0.800000000000011368684 56.02046645791492097
1.007140329435344483500 124.97963692942769853 1.007140329435344483500 60.88795766109922170
1.267914553968907398485 139.40870946749765835 1.267914553968907398485 65.96749835586162192
1.596209851975117999245 154.97178165178212339 1.596209851975117999245 71.34626811665235380
2.009509145207687197399 171.73971819282999718 2.009509145207687197399 77.07159741817694965
2.529822128134725289783 189.75351853427193305 2.529822128134725289783 83.24332773680929165
3.184857364427983839050 209.11276287600247770 3.184857364427983839050 89.99726788444607450
4.009497869018204596614 229.89806830749031974 4.009497869018204596614 97.38399027214175874
5.009497869018190385759 251.44376875081189837 5.009497869018190385759 105.18168898729183525
6.009497869018190385759 270.15986851618254150 6.009497869018190385759 112.03257483969969144
7.009497869018204596614 286.78255869402300959 7.009497869018204596614 118.14266076998397637
8.009497869018190385759 301.77325987733257762 8.009497869018190385759 123.62644089811838910
9.009497869018204596614 315.44342089600093004 9.009497869018204596614 128.58493148282104812
10.009497869018190385759 328.01558605973190197 10.009497869018190385759 133.08321199068817009
11.009497869018190385759 339.65581732808198012 11.009497869018190385759 137.14441618084089214
12.009497869018204596614 350.49241005061975329 12.009497869018204596614 140.85802381541415684
13.009497869018190385759 360.62669583711095811 13.009497869018190385759 144.26241653462781755
14.009497869018204596614 370.14158514463559868 14.009497869018204596614 147.38578134199278225
15.009497869018190385759 379.10396469445134926 15.009497869018190385759 150.26157292463264525
16.009497869018190385759 387.56933189255539673 16.009497869018190385759 152.91888929984702372
17.009497869018204596614 395.58626183264175324 17.009497869018204596614 155.38483741568140317
18.009497869018190385759 403.19680243177310786 18.009497869018190385759 157.68740715656039697
19.009497869018204596614 410.43669431226192046 19.009497869018204596614 159.83378543982570363
20.009497869018190385759 417.33818945291875480 20.009497869018190385759 161.83464154359097620
21.009497869018190385759 423.92771159773968748 21.009497869018190385759 163.69987312010280789
22.009497869018204596614 430.22787185368065366 22.009497869018204596614 165.44572833295447367
23.009497869018190385759 436.25934202093475278 23.009497869018190385759 167.07819644000093717
24.009497869018204596614 442.04123077307070844 24.009497869018204596614 168.61461795633553606
25.009497869018204596614 447.59145429389207038 25.009497869018204596614 170.06307085138138291
26.009497869018190385759 452.92578277990259039 26.009497869018190385759 171.43204747375636998
27.009497869018204596614 458.05860143557714537 27.009497869018204596614 172.73081983217596758
28.009497869018190385759 463.00240393815414564 28.009497869018190385759 173.96245941799759294
29.009497869018190385759 467.76839659107128000 29.009497869018190385759 175.12180512601452165
30.009497869018190385759 472.36697874402847219 30.009497869018190385759 176.23221403879469449
31.009497869018218807469 476.80767661079801201 31.009497869018218807469 177.28572638210184209
32.009497869018190385759 481.09926473621032983 32.009497869018190385759 178.28661358755832111
33.009497869018190385759 485.24986384608138223 33.009497869018190385759 179.23339606841571481
34.009497869018218807469 489.26728207556459438 34.009497869018218807469 180.14575092569771186
35.009497869018190385759 493.15847575371736866 35.009497869018190385759 181.01532535781817046
36.009497869018190385759 496.92987540330818774 36.009497869018190385759 181.85344963648228145
37.009497869018190385759 500.58743788865353963 37.009497869018190385759 182.65936873669866713
38.009497869018218807469 504.13683637476134436 38.009497869018218807469 183.43665256470947611
39.009497869018190385759 507.58326125975594323 39.009497869018190385759 184.19072661542494984
40.009497869018190385759 510.93157304643114003 40.009497869018190385759 184.91923243492334450
41.009497869018218807469 514.18643938994648579 41.009497869018218807469 185.62155421109795839
42.009497869018190385759 517.35213382235031077 42.009497869018190385759 186.29515204419894303
43.009497869018190385759 520.43267285351328155 43.009497869018190385759 186.95405292079365722
44.009497869018218807469 523.43194103452935906 44.009497869018218807469 187.57577791243699039
46.009497869018190385759 529.20114981531048670 46.009497869018190385759 188.76975221611897382
48.009497869018218807469 534.68463361193448691 48.009497869018218807469 189.87716914285851999
50.009497869018190385759 539.90224263822494777 50.009497869018190385759 190.86348337127154196
52.009497869018190385759 544.87370658450436167 52.009497869018190385759 191.75833676989310561
54.009497869018218807469 549.61775793170738780 54.009497869018218807469 192.57443095331601057
56.009497869018190385759 554.14923516443673179 56.009497869018190385759 193.32035240569592816
58.009497869018218807469 558.48107132400878072 58.009497869018218807469 194.02566069603039978
60.009497869018190385759 562.62602687915227762 60.009497869018190385759 194.73824540288924823
62.009497869018190385759 566.59484998282607648 62.009497869018190385759 195.43422915133749029
64.009497869018218807469 570.39875532842586381 64.009497869018218807469 196.11348739262879803
66.009497869018190385759 574.05272351037478984 66.009497869018190385759 196.84423602057620428
68.009497869018190385759 577.56969744387220089 68.009497869018190385759 197.59001736338572641
70.009497869018190385759 580.95749434643107634 70.009497869018190385759 198.23167822071602018
72.009497869018190385759 584.22423596448766148 72.009497869018190385759 198.75839480057092601
74.009497869018218807469 587.37744440270103041 74.009497869018218807469 199.25629651742903548
76.009497869018190385759 590.42316675223912625 76.009497869018190385759 199.72679764324286111
78.009497869018190385759 593.36914811431427097 78.009497869018190385759 200.25779713526452497
80.009497869018218807469 596.22019371402200250 80.009497869018218807469 200.65167974685545005
82.009497869018190385759 598.97627348110722778 82.009497869018190385759 201.09953522764641320
84.009497869018218807469 601.63872833470725254 84.009497869018218807469 201.48987076225407122
86.009497869018190385759 604.20975708044284147 86.009497869018190385759 201.71040120505060145
88.009497869018190385759 606.69555366072995639 88.009497869018190385759 201.97705065756261433
91.009497869018218807469 610.27018417699537167 91.009497869018218807469 202.29096990691090241
94.009497869018218807469 613.67212903729523532 94.009497869018218807469 202.74466517304441027
97.009497869018218807469 616.92468289674741300 97.009497869018218807469 203.45088815975577745
99.504748934509137825444 619.53305001939247632 99.504748934509137825444 203.59673413462573421
nan nan nan nan

