Time Pressure difference Time.1 Pressure.1 difference.1
(hr) (psi) (hr) (psi)
0.000200000000020850166 0.00224421362480686 0.000200000000020850166 0.00180714672273298
0.000399999999999067768 0.00430545326146402 0.000399999999999067768 0.00414035084275862
0.000600000000019917934 0.00626090772582234 0.000600000000019917934 0.00581680091611858
0.000799999999998135536 0.00813717934915260 0.000799999999998135536 0.00742414098684279
0.001007140329434719206 0.01001288155306901 0.001007140329434719206 0.00902386300790889
0.001267914553977789183 0.01229277867287287 0.001267914553977789183 0.01094830092514448
0.001596209851982166583 0.01505469454813169 0.001596209851982166583 0.01323720196252277
0.002009509145224797066 0.01838863517877794 0.002009509145224797066 0.01594601334050371
0.002529822128153114136 0.02239795306053860 0.002529822128153114136 0.01913514473690549
0.003184857364431081805 0.02720046544362713 0.003184857364431081805 0.02286972872271610
0.004009497869034817086 0.03292950713653756 0.004009497869034817086 0.02721932664913588
0.005047658755856332391 0.03973491159794022 0.005047658755856332391 0.03225765091406146
0.006354625877790454069 0.04778393339992190 0.006354625877790454069 0.03806239976901828
0.008000000000009777068 0.05726214979646817 0.008000000000009777068 0.04471531959881569
0.010071403294361402914 0.06837440700046221 0.010071403294361402914 0.05230261560302478
0.012679145539692626699 0.08134590402716416 0.012679145539692626699 0.06091581255074079
0.015962098519750611558 0.09642352571981992 0.015962098519750611558 0.07065310015678047
0.020095091452091651263 0.11387753259258709 0.020095091452091651263 0.08162108287794881
0.025298221281360611101 0.13400368058470621 0.025298221281360611101 0.09393681499045931
0.031848573644296607199 0.15712582126677896 0.031848573644296607199 0.10773030076398445
0.040094978690191851456 0.18359913522698471 0.040094978690191851456 0.12314824495130805
0.050476587558435426217 0.21381440614762090 0.050476587558435426217 0.14035970339129261
0.063546258777947173257 0.24820378078643002 0.063546258777947173257 0.15956172858866208
0.080000000000012505552 0.28724753592832392 0.080000000000012505552 0.18097831795178643
0.100714032943542974863 0.33147920526629532 0.100714032943542974863 0.20484327443147105
0.126791455396883634421 0.38148425383798062 0.126791455396883634421 0.23136192227537472
0.159620985197506115583 0.43788731853972157 0.159620985197506115583 0.26065957174891452
0.200950914520774404082 0.50132683364575570 0.200950914520774404082 0.29273725861872268
0.252982212813464002465 0.57242150268477732 0.252982212813464002465 0.32746059474078326
0.318485736442809752589 0.65173930264812130 0.318485736442809752589 0.36457372776188318
0.400949786901833249431 0.73976977392159315 0.400949786901833249431 0.40378776286780921
0.504765875584169521062 0.83693283291163778 0.504765875584169521062 0.44483256437224278
0.635462587779443310865 0.94357378296153449 0.635462587779443310865 0.48752178769088705
0.800000000000011368684 1.06000038323856005 0.800000000000011368684 0.53183987143590117
1.007140329435344483500 1.18651554046925023 1.007140329435344483500 0.57805023095980268
1.267914553968907398485 1.32350040633700305 1.267914553968907398485 0.62627371856830649
1.596209851975117999245 1.47125109163084300 1.596209851975117999245 0.67733798844923121
2.009509145207687197399 1.63044036259015823 2.009509145207687197399 0.73169238055231278
2.529822128134725289783 1.80145745443929028 2.529822128134725289783 0.79028475699502487
3.184857364427983839050 1.98524774882280841 3.184857364427983839050 0.85440444194094378
4.009497869018204596614 2.18257659785592084 4.009497869018204596614 0.92453155321653580
5.009497869018190385759 2.38712438687479667 5.009497869018190385759 0.99856033848694781
6.009497869018190385759 2.56480887831818904 6.009497869018190385759 1.06360039404778206
7.009497869018204596614 2.72261922810781343 7.009497869018204596614 1.12160753895554399
8.009497869018190385759 2.86493601149366350 8.009497869018190385759 1.17366874270365562
9.009497869018204596614 2.99471602116456603 9.009497869018204596614 1.22074302040652860
10.009497869018190385759 3.11407201955441648 10.009497869018190385759 1.26344821510147010
11.009497869018190385759 3.22458054425394325 11.009497869018190385759 1.30200395108393252
12.009497869018204596614 3.32745958908816197 12.009497869018204596614 1.33725971976659008
13.009497869018190385759 3.42367116301054697 13.009497869018190385759 1.36957990380975780
14.009497869018204596614 3.51400239061362862 14.009497869018204596614 1.39923210134803289
15.009497869018190385759 3.59908827241567719 15.009497869018190385759 1.42653392017056313
16.009497869018190385759 3.67945568252425970 16.009497869018190385759 1.45176160727702852
17.009497869018204596614 3.75556577689216864 17.009497869018204596614 1.47517250711089942
18.009497869018190385759 3.82781774460544089 18.009497869018190385759 1.49703234642304195
19.009497869018204596614 3.89655089536957489 19.009497869018204596614 1.51740935544138345
20.009497869018190385759 3.96207141885682290 20.009497869018190385759 1.53640482478092699
21.009497869018190385759 4.02463017339626283 21.009497869018190385759 1.55411271949464691
22.009497869018204596614 4.08444182139570255 22.009497869018204596614 1.57068729430020082
23.009497869018190385759 4.14170261412279839 23.009497869018190385759 1.58618540924051543
24.009497869018204596614 4.19659396303548160 24.009497869018204596614 1.60077168945888171
25.009497869018204596614 4.24928595848631740 25.009497869018204596614 1.61452282453843066
26.009497869018190385759 4.29992831753072036 26.009497869018190385759 1.62751943804199084
27.009497869018204596614 4.34865760856560613 27.009497869018204596614 1.63984955536875909
28.009497869018190385759 4.39559244245083036 28.009497869018190385759 1.65154233624681246
29.009497869018190385759 4.44083920814308186 29.009497869018190385759 1.66254878284190988
30.009497869018190385759 4.48449663364583984 30.009497869018190385759 1.67309063960881010
31.009497869018218807469 4.52665515769744875 31.009497869018218807469 1.68309233907058720
32.009497869018190385759 4.56739808293870642 32.009497869018190385759 1.69259443279327537
33.009497869018190385759 4.60680250486786047 33.009497869018190385759 1.70158287406723763
34.009497869018218807469 4.64494255135029555 34.009497869018218807469 1.71024447081358599
35.009497869018190385759 4.68188426348465825 35.009497869018190385759 1.71849992428308385
36.009497869018190385759 4.71768869053773532 36.009497869018190385759 1.72645680034635074
37.009497869018190385759 4.75241238501886354 37.009497869018190385759 1.73410793104460770
38.009497869018218807469 4.78610920608950696 38.009497869018218807469 1.74148720789281142
39.009497869018190385759 4.81882842968122649 39.009497869018190385759 1.74864613875403463
40.009497869018190385759 4.85061619980789072 40.009497869018190385759 1.75556233324294308
41.009497869018218807469 4.88151682965139155 41.009497869018218807469 1.76222994504206931
42.009497869018190385759 4.91157089071851605 42.009497869018190385759 1.76862486117910378
43.009497869018190385759 4.94081651443208791 43.009497869018190385759 1.77488024924804089
44.009497869018218807469 4.96929057944173458 44.009497869018218807469 1.78078270170035124
46.009497869018190385759 5.02406154887952994 46.009497869018190385759 1.79211790078593958
48.009497869018218807469 5.07611993935380834 48.009497869018218807469 1.80263135262207475
50.009497869018190385759 5.12565420226163049 50.009497869018190385759 1.81199509529688130
52.009497869018190385759 5.17285164478959825 52.009497869018190385759 1.82049053895468105
54.009497869018218807469 5.21789010694658906 54.009497869018218807469 1.82823826854413918
56.009497869018190385759 5.26091046042186772 56.009497869018190385759 1.83531980131989791
58.009497869018218807469 5.30203548725324847 58.009497869018218807469 1.84201576610155437
60.009497869018190385759 5.34138633113119266 60.009497869018190385759 1.84878081078692347
62.009497869018190385759 5.37906503148252657 62.009497869018190385759 1.85538825143674813
64.009497869018218807469 5.41517805691543597 64.009497869018218807469 1.86183690562622273
66.009497869018190385759 5.44986762826305249 66.009497869018190385759 1.86877439260040701
68.009497869018190385759 5.48325662130258529 68.009497869018190385759 1.87585459522201670
70.009497869018190385759 5.51541925012434486 70.009497869018190385759 1.88194631222198772
72.009497869018190385759 5.54643261991602277 72.009497869018190385759 1.88694678608136979
74.009497869018218807469 5.57636814306361828 74.009497869018218807469 1.89167370111483257
76.009497869018190385759 5.60528322866049855 76.009497869018190385759 1.89614048395483725
78.009497869018190385759 5.63325140614855258 78.009497869018190385759 1.90118161837276434
80.009497869018218807469 5.66031829475337300 80.009497869018218807469 1.90492101025495653
82.009497869018190385759 5.68648360899785388 82.009497869018190385759 1.90917280279411150
84.009497869018218807469 5.71176007912696715 84.009497869018218807469 1.91287851989481705
86.009497869018190385759 5.73616857987762252 86.009497869018190385759 1.91497216333908815
88.009497869018190385759 5.75976791450059977 88.009497869018190385759 1.91750364548318908
91.009497869018218807469 5.79370428016134742 91.009497869018218807469 1.92048389152130605
94.009497869018218807469 5.82600122503761320 94.009497869018218807469 1.92479112506054828
97.009497869018218807469 5.85687990091848842 97.009497869018218807469 1.93149577366856762
99.504748934509137825444 5.88164287993094081 99.504748934509137825444 1.93288038735404211
nan nan nan nan

