Time Pressure difference Time.1 Pressure.1 difference.1
(hr) (psi) (hr) (psi)
0.000200000000020850166 0.26631335014374735 0.000200000000020850166 0.21444807776431360
0.000399999999999067768 0.51091378702706347 0.000399999999999067768 0.49132163334068985
0.000600000000019917934 0.74296105013091795 0.000600000000019917934 0.69026037537940432
0.000799999999998135536 0.96561194943277584 0.000799999999998135536 0.88099806377201073
0.001007140329434719206 1.18819527763085619 0.001007140329434719206 1.07083174360518796
0.001267914553977789183 1.45874306918091379 0.001267914553977789183 1.29919837645047864
0.001596209851982166583 1.78649041971162692 0.001596209851982166583 1.57081463288603507
0.002009509145224797066 2.18211804121498298 0.002009509145224797066 1.89226024973977380
0.002529822128153114136 2.65789042985058055 0.002529822128153114136 2.27070384211278542
0.003184857364431081805 3.22778856597708641 0.003184857364431081805 2.71387447509564383
0.004009497869034817086 3.90763484686912310 0.004009497869034817086 3.23002676236412523
0.005047658755856332391 4.71520950962224017 0.005047658755856332391 3.82790790846862716
0.006354625877790454069 5.67036009679073238 0.006354625877790454069 4.51673810592350211
0.008000000000009777068 6.79510844251422341 0.008000000000009777068 5.30621792572612883
0.010071403294361402914 8.11376296405484787 0.010071403294361402914 6.20657705155894046
0.012679145539692626699 9.65304727789014727 0.012679145539692626699 7.22867642268790700
0.015962098519750611558 11.44225838541863105 0.015962098519750611558 8.38416788527128354
0.020095091452091651263 13.51346720098700160 0.020095091452091651263 9.68570183484992597
0.025298221281360611101 15.90177009605180203 0.025298221281360611101 11.14716871220117156
0.031848573644296607199 18.64559745699110138 0.031848573644296607199 12.78399569065948782
0.040094978690191851456 21.78709738026885034 0.040094978690191851456 14.61359173422188817
0.050476587558435426217 25.37264286285101278 0.050476587558435426217 16.65601813576672541
0.063546258777947173257 29.45351531998969463 0.063546258777947173257 18.93465845918790080
0.080000000000012505552 34.08670759682777174 0.080000000000012505552 21.47609373027865232
0.100714032943542974863 39.33553235826704508 0.100714032943542974863 24.30806856586790232
0.126791455396883634421 45.26946478877370339 0.126791455396883634421 27.45494811001113433
0.159620985197506115583 51.96262846671362468 0.159620985197506115583 30.93160251420452411
0.200950914520774404082 59.49078425929633340 0.200950914520774404082 34.73815468942176210
0.252982212813464002465 67.92735165192691227 0.252982212813464002465 38.85865724257295284
0.318485736442809752589 77.33973058091039832 0.318485736442809752589 43.26274902774347453
0.400949786901833249431 87.78601317202904397 0.400949786901833249431 47.91614786031335882
0.504765875584169521062 99.31602950551435072 0.504765875584169521062 52.78679763883947373
0.635462587779443310865 111.97075557810210000 0.635462587779443310865 57.85258547265193130
0.800000000000011368684 125.78671214430912073 0.800000000000011368684 63.11166474372694069
1.007140329435344483500 140.79984413568439550 1.007140329435344483500 68.59529407389659639
1.267914553968907398485 157.05538155199104722 1.267914553968907398485 74.31781460343903234
1.596209851975117999245 174.58846287352670856 1.596209851975117999245 80.37744129597544429
2.009509145207687197399 193.47892302736545389 2.009509145207687197399 86.82749582554112067
2.529822128134725289783 213.77295126012913329 2.529822128134725289783 93.78045783007628700
3.184857364427983839050 235.58273286030657800 3.184857364427983839050 101.38932711032532552
4.009497869018204596614 258.99908961223593451 4.009497869018204596614 109.71107764836223453
5.009497869018190385759 283.27209390914248388 5.009497869018190385759 118.49582683378446291
6.009497869018190385759 304.35732022709174771 6.009497869018190385759 126.21391342700344751
7.009497869018204596614 323.08414840212719810 7.009497869018204596614 133.09742795605791343
8.009497869018190385759 339.97240669724806139 8.009497869018190385759 139.27535746750046997
9.009497869018204596614 355.37296784486181878 9.009497869018204596614 144.86150508824141525
10.009497869018190385759 369.53654632045743256 10.009497869018190385759 149.92918819204109582
11.009497869018190385759 382.65022458480126488 11.009497869018190385759 154.50446886196002083
12.009497869018204596614 394.85853790512862815 12.009497869018204596614 158.68815341230200033
13.009497869018190385759 406.27564467725159147 13.009497869018190385759 162.52348191875793759
14.009497869018204596614 416.99495035281728406 14.009497869018204596614 166.04220935996656294
15.009497869018190385759 427.09180832666032757 15.009497869018190385759 169.28202519357347455
16.009497869018190385759 436.62874099287881791 16.009497869018190385759 172.27571073020737913
17.009497869018204596614 445.66047219120400769 17.009497869018204596614 175.05380417716006036
18.009497869018190385759 454.23437235984562221 18.009497869018190385759 177.64783844220099240
19.009497869018204596614 462.39070625052289643 19.009497869018204596614 180.06591017904415253
20.009497869018190385759 470.16580837100974577 20.009497869018190385759 182.32003920733666291
21.009497869018190385759 477.58944724302318718 21.009497869018190385759 184.42137604669812845
22.009497869018204596614 484.68709613895669008 22.009497869018204596614 186.38822559029048875
23.009497869018190385759 491.48204354257205750 23.009497869018190385759 188.22733522987448396
24.009497869018204596614 497.99581694687714162 24.009497869018204596614 189.95824048245395943
25.009497869018204596614 504.24860040704294306 25.009497869018204596614 191.59004184522711967
26.009497869018190385759 510.25816034697885470 26.009497869018190385759 193.13230664764958533
27.009497869018204596614 516.04070288311856984 27.009497869018204596614 194.59548057042607638
28.009497869018190385759 521.61030317083191221 28.009497869018190385759 195.98302390128841921
29.009497869018190385759 526.97958603297900027 29.009497869018190385759 197.28912223057329811
30.009497869018190385759 532.16026719263970790 30.009497869018190385759 198.54008923357881145
31.009497869018218807469 537.16307871343065017 31.009497869018218807469 199.72695756970969683
32.009497869018190385759 541.99790584205970845 32.009497869018190385759 200.85453935813532667
33.009497869018190385759 546.67389724431950526 33.009497869018190385759 201.92116772264554925
34.009497869018218807469 551.19984942690177832 34.009497869018218807469 202.94901053654552925
35.009497869018190385759 555.58359926684613583 35.009497869018190385759 203.92865768159262529
36.009497869018190385759 559.83239127714455208 36.009497869018190385759 204.87287364110028420
37.009497869018190385759 563.95293635557175094 37.009497869018190385759 205.78080781729343585
38.009497869018218807469 567.95162578928807307 38.009497869018218807469 206.65648200328030271
39.009497869018190385759 571.83430698883898913 39.009497869018190385759 207.50600846547877154
40.009497869018190385759 575.60645571053635194 40.009497869018190385759 208.32673021149591364
41.009497869018218807469 579.27333045196519379 41.009497869018218807469 209.11795347832557468
42.009497869018190385759 582.83974569859719850 42.009497869018190385759 209.87681685992032499
43.009497869018190385759 586.31022637927446794 43.009497869018190385759 210.61912291076751558
44.009497869018218807469 589.68914876041912976 44.009497869018218807469 211.31954726844168135
46.009497869018190385759 596.18863713370421920 46.009497869018190385759 212.66465755993152698
48.009497869018218807469 602.36623280331855312 48.009497869018218807469 213.91225384448620161
50.009497869018190385759 608.24429866837999725 50.009497869018190385759 215.02341797522993261
52.009497869018190385759 613.84506184836573084 52.009497869018190385759 216.03154395595552728
54.009497869018218807469 619.18962602432850417 54.009497869018218807469 216.95094120057117948
56.009497869018190385759 624.29470797006160865 56.009497869018190385759 217.79128308996124019
58.009497869018218807469 629.17487782071873426 58.009497869018218807469 218.58587091071780151
60.009497869018190385759 633.84451129423484872 60.009497869018190385759 219.38865621338158007
62.009497869018190385759 638.31571706925990384 62.009497869018190385759 220.17273917049411125
64.009497869018218807469 642.60112942063165065 64.009497869018218807469 220.93797946764510698
66.009497869018190385759 646.71762522054882538 66.009497869018190385759 221.76122792191497979
68.009497869018190385759 650.67978572790673297 68.009497869018190385759 222.60141196634594962
70.009497869018190385759 654.49641768142225828 70.009497869018190385759 223.32429571700919269
72.009497869018190385759 658.17667089670123914 72.009497869018190385759 223.91768528165587782
74.009497869018218807469 661.72901964354934989 74.009497869018218807469 224.47861253229348222
76.009497869018190385759 665.16027646771249238 76.009497869018190385759 225.00867076264069055
78.009497869018190385759 668.47916686296150601 78.009497869018190385759 225.60688538023470073
80.009497869018218807469 671.69110431073363543 80.009497869018218807469 226.05062655025486151
82.009497869018190385759 674.79605493441192721 82.009497869018190385759 226.55517259823457721
84.009497869018218807469 677.79552938973347409 84.009497869018218807469 226.99491769418494869
86.009497869018190385759 680.69200481214443244 86.009497869018190385759 227.24336338290513027
88.009497869018190385759 683.49245918740462002 88.009497869018190385759 227.54376593067178192
91.009497869018218807469 687.51957457914659244 91.009497869018218807469 227.89742179386163912
94.009497869018218807469 691.35214537113017741 94.009497869018218807469 228.40854684051839740
97.009497869018218807469 695.01641490899396558 97.009497869018218807469 229.20416514200334746
99.504748934509137825444 697.95495508513818095 99.504748934509137825444 229.36847263267961239
nan nan nan nan

