Time Pressure difference Time.1 Pressure.1 difference.1
(hr) (psi) (hr) (psi)
0.000200000000020850166 0.10697418278246029 0.000200000000020850166 0.08614066045027204
0.000399999999999067768 0.20522660546311822 0.000399999999999067768 0.19735672350482766
0.000600000000019917934 0.29843660159753166 0.000600000000019917934 0.27726751033498542
0.000799999999998135536 0.38787221564294083 0.000799999999998135536 0.35388405370617293
0.001007140329434719206 0.47728068736295631 0.001007140329434719206 0.43013747004365699
0.001267914553977789183 0.58595578340694010 0.001267914553977789183 0.52186901076522041
0.001596209851982166583 0.71760710679427708 0.001596209851982166583 0.63097329354691867
0.002009509145224797066 0.87652494352174870 0.002009509145224797066 0.76009330256401031
0.002529822128153114136 1.06763576255234005 0.002529822128153114136 0.91210856579249522
0.003184857364431081805 1.29655551947955994 0.003184857364431081805 1.09012373578280064
0.004009497869034817086 1.56963984017495695 0.004009497869034817086 1.29745457027547717
0.005047658755856332391 1.89403078616848397 0.005047658755856332391 1.53761469357026304
0.006354625877790454069 2.27770082539627783 0.006354625877790454069 1.81430772232320470
0.008000000000009777068 2.72949580696498284 0.008000000000009777068 2.13143023421021427
0.010071403294361402914 3.25918006702203167 0.010071403294361402914 2.49309134374418084
0.012679145539692626699 3.87748809196149180 0.012679145539692626699 2.90365373158531082
0.015962098519750611558 4.59618805931141594 0.015962098519750611558 3.36779777413986947
0.020095091452091651263 5.42816238691331865 0.020095091452091651263 3.89060495051555977
0.025298221281360611101 6.38750877453766286 0.025298221281360611101 4.47765484787855961
0.031848573644296607199 7.48966414704979666 0.031848573644296607199 5.13514433641659274
0.040094978690191851456 8.75155877915293701 0.040094978690191851456 5.87006634267901717
0.050476587558435426217 10.19182002636992834 0.050476587558435426217 6.69047919498494803
0.063546258777947173257 11.83104688415316375 0.063546258777947173257 7.60577572939289226
0.080000000000012505552 13.69213254591677398 0.080000000000012505552 8.62663315570181943
0.100714032943542974863 15.80050878436007444 0.100714032943542974863 9.76419608123345384
0.126791455396883634421 18.18408276627707920 0.126791455396883634421 11.02825162845952711
0.159620985197506115583 20.87262885039339366 0.159620985197506115583 12.42477292003159128
0.200950914520774404082 23.89657907044768237 0.200950914520774404082 13.95380932749244884
0.252982212813464002465 27.28542496130772221 0.252982212813464002465 15.60895501597733492
0.318485736442809752589 31.06624009289378208 0.318485736442809752589 17.37801435664976424
0.400949786901833249431 35.26235922359594355 0.400949786901833249431 19.24721669669890645
0.504765875584169521062 39.89379836878806884 0.504765875584169521062 21.20368556841023988
0.635462587779443310865 44.97701698783314583 0.635462587779443310865 23.23853854659894935
0.800000000000011368684 50.52668493437136732 0.800000000000011368684 25.35103387177795398
1.007140329435344483500 56.55724076236759146 1.007140329435344483500 27.55372767575059711
1.267914553968907398485 63.08685270206381546 1.267914553968907398485 29.85238058508927850
1.596209851975117999245 70.12963536773685291 1.596209851975117999245 32.28644411608001974
2.009509145207687197399 77.71765728346420588 2.009509145207687197399 34.87733680632691602
2.529822128134725289783 85.86947199493950222 2.529822128134725289783 37.67024008342951902
3.184857364427983839050 94.63014269388719413 3.184857364427983839050 40.72661173251832167
4.009497869018204596614 104.03615116446556499 4.009497869018204596614 44.06933736998820450
5.009497869018190385759 113.78626244103196541 5.009497869018190385759 47.59804280121117870
6.009497869018190385759 122.25588986650033974 6.009497869018190385759 50.69828544961093542
7.009497869018204596614 129.77818320647244832 7.009497869018204596614 53.46329269021426711
8.009497869018190385759 136.56194988119796108 8.009497869018190385759 55.94487673554091600
9.009497869018204596614 142.74813034217763175 9.009497869018204596614 58.18875063937787218
10.009497869018190385759 148.43743293209385570 10.009497869018190385759 60.22436491983673079
11.009497869018190385759 153.70500594277129380 11.009497869018190385759 62.06218833500078347
12.009497869018204596614 158.60890707986905568 12.009497869018204596614 63.74271330887411580
13.009497869018190385759 163.19499210350275575 13.009497869018190385759 65.28330874826511376
14.009497869018204596614 167.50078061924963890 14.009497869018204596614 66.69673016425622336
15.009497869018190385759 171.55654098514727934 15.009497869018190385759 67.99811686146351519
16.009497869018190385759 175.38738753365637990 16.009497869018190385759 69.20063661353835016
17.009497869018204596614 179.01530203186004542 17.009497869018204596614 70.31655617228621225
18.009497869018190385759 182.45931249285933973 18.009497869018190385759 71.35854184616501072
19.009497869018204596614 185.73559267928308714 19.009497869018204596614 72.32984594270594414
20.009497869018190385759 188.85873763217523447 20.009497869018190385759 73.23529664789086269
21.009497869018190385759 191.84070493188852424 21.009497869018190385759 74.07937296257817650
22.009497869018204596614 194.69172681986179896 22.009497869018204596614 74.86942769497622407
23.009497869018190385759 197.42115793985337291 23.009497869018190385759 75.60817117379791341
24.009497869018204596614 200.03764557135795599 24.009497869018204596614 76.30345053087336282
25.009497869018204596614 202.54929735451443662 25.009497869018204596614 76.95892130299853306
26.009497869018190385759 204.96324980229766766 26.009497869018190385759 77.57842654666823989
27.009497869018204596614 207.28601267496057403 27.009497869018204596614 78.16616213924417877
28.009497869018190385759 209.52323975682293167 28.009497869018190385759 78.72351802776472596
29.009497869018190385759 211.68000225482023779 29.009497869018190385759 79.24815864879771254
30.009497869018190385759 213.76100620378502981 30.009497869018190385759 79.75065382135328207
31.009497869018218807469 215.77056251691178090 31.009497869018218807469 80.22740149569798973
32.009497869018190385759 217.71264195341163372 32.009497869018190385759 80.68033462981279058
33.009497869018190385759 219.59091939870137367 33.009497869018190385759 81.10878366387167659
34.009497869018218807469 221.40892828103079637 34.009497869018218807469 81.52165310878093862
35.009497869018190385759 223.16981655943538954 35.009497869018190385759 81.91516305749365756
36.009497869018190385759 224.87649424896540040 36.009497869018190385759 82.29444081650937903
37.009497869018190385759 226.53165701923245479 37.009497869018190385759 82.65914471312629530
38.009497869018218807469 228.13787215693315602 38.009497869018218807469 83.01089024289068163
39.009497869018190385759 229.69748848147179388 39.009497869018190385759 83.35213261394230244
40.009497869018190385759 231.21270552417610133 40.009497869018190385759 83.68180455124695527
41.009497869018218807469 232.68563554671632687 41.009497869018218807469 83.99962738033863729
42.009497869018190385759 234.11821245758258669 42.009497869018190385759 84.30445171620395683
43.009497869018190385759 235.51225385459616746 43.009497869018190385759 84.60262521415661752
44.009497869018218807469 236.86951762005602973 44.009497869018218807469 84.88397544771673608
46.009497869018190385759 239.48026716325759367 46.009497869018190385759 85.42428660412979013
48.009497869018218807469 241.96171710919819020 48.009497869018218807469 85.92542780831888649
50.009497869018190385759 244.32285030780434454 50.009497869018190385759 86.37176620915136027
52.009497869018190385759 246.57259506830425266 52.009497869018190385759 86.77671569017313402
54.009497869018218807469 248.71942843112074684 54.009497869018218807469 87.14602413393730274
56.009497869018190385759 250.77006528010900865 56.009497869018190385759 87.48357719624847562
58.009497869018218807469 252.73035822573814357 58.009497869018218807469 87.80275151750741713
60.009497869018190385759 254.60608178392016043 60.009497869018190385759 88.12521864751001033
62.009497869018190385759 256.40209983400046667 62.009497869018190385759 88.44017331848499452
64.009497869018218807469 258.12348737963577605 64.009497869018218807469 88.74755916818328672
66.009497869018190385759 259.77702361387218843 66.009497869018190385759 89.07824604728605777
68.009497869018190385759 261.36856561542316513 68.009497869018190385759 89.41573570558279016
70.009497869018190385759 262.90165092259383073 70.009497869018190385759 89.70610754924807395
72.009497869018190385759 264.37995488266375332 72.009497869018190385759 89.94446346987862739
74.009497869018218807469 265.80688148603240961 74.009497869018218807469 90.16977975314034666
76.009497869018190385759 267.18516723281709346 76.009497869018190385759 90.38269640184724096
78.009497869018190385759 268.51831702641430866 78.009497869018190385759 90.62299047576843236
80.009497869018218807469 269.80850538324415311 80.009497869018218807469 90.80123482215293507
82.009497869018190385759 271.05571869556433739 82.009497869018190385759 91.00390359985264865
84.009497869018218807469 272.26056377171880740 84.009497869018218807469 91.18054278165293169
86.009497869018190385759 273.42403564083326728 86.009497869018190385759 91.28033978582986663
88.009497869018190385759 274.54893725786195091 88.009497869018190385759 91.40100710136535156
91.009497869018218807469 276.16657068769092120 91.009497869018218807469 91.54306549584892139
94.009497869018218807469 277.70605839345961385 94.009497869018218807469 91.74837696121946351
97.009497869018218807469 279.17794194378126349 97.009497869018218807469 92.06796521153505353
99.504748934509137825444 280.35831061004148523 99.504748934509137825444 92.13396513054264858
nan nan nan nan

