Time Pressure difference Time.1 Pressure.1 difference.1
(hr) (psi) (hr) (psi)
0.000200000000020850166 0.64558545273610657 0.000200000000020850166 0.51985587390618726
0.000399999999999067768 1.23853538821448272 0.000399999999999067768 1.19104092576689702
0.000600000000019917934 1.80105445579489376 0.000600000000019917934 1.67329973020344358
0.000799999999998135536 2.34079525943956623 0.000799999999998135536 2.13567789054844193
0.001007140329434719206 2.88037226009951963 0.001007140329434719206 2.59586459194178998
0.001267914553977789183 3.53622266489642856 0.001267914553977789183 3.14946123279989676
0.001596209851982166583 4.33073379834588224 0.001596209851982166583 3.80790176455238250
0.002009509145224797066 5.28979738642845554 0.002009509145224797066 4.58713650428490105
0.002529822128153114136 6.44314449708160453 0.002529822128153114136 5.50454330264981362
0.003184857364431081805 7.82466722595007180 0.003184857364431081805 6.57885862923466469
0.004009497869034817086 9.47272155294396967 0.004009497869034817086 7.83009296606809002
0.005047658755856332391 11.43040956967413813 0.005047658755856332391 9.27945091294501445
0.006354625877790454069 13.74584484137753471 0.006354625877790454069 10.94928366688759169
0.008000000000009777068 16.47241175811734593 0.008000000000009777068 12.86310693792598059
0.010071403294361402914 19.66903774713296116 0.010071403294361402914 15.04571908847012729
0.012679145539692626699 23.40050505848088847 0.012679145539692626699 17.52344874376310102
0.015962098519750611558 27.73783423206819521 0.015962098519750611558 20.32454181176718322
0.020095091452091651263 32.75877020913421944 0.020095091452091651263 23.47966484122327557
0.025298221281360611101 38.54839211486714845 0.025298221281360611101 27.02249044558879376
0.031848573644296607199 45.19986125107674013 0.031848573644296607199 30.99041651977285738
0.040094978690191851456 52.81535123362926498 0.040094978690191851456 35.42564513099294743
0.050476587558435426217 61.50727750179893860 0.050476587558435426217 40.37680800889517485
0.063546258777947173257 71.39995427289636609 0.063546258777947173257 45.90059059067178993
0.080000000000012505552 82.63154116871452004 0.080000000000012505552 52.06142946413056194
0.100714032943542974863 95.35551804827095168 0.100714032943542974863 58.92658194478651268
0.126791455396883634421 109.74030368739242647 0.126791455396883634421 66.55511297454945918
0.159620985197506115583 125.96558529992657327 0.159620985197506115583 74.98307013977107260
0.200950914520774404082 144.21501914542903933 0.200950914520774404082 84.21075139598589487
0.252982212813464002465 164.66658560565429070 0.252982212813464002465 94.19949775376531420
0.318485736442809752589 187.48367272844288323 0.318485736442809752589 104.87570901950172697
0.400949786901833249431 212.80710496477828997 0.400949786901833249431 116.15627978497312256
0.504765875584169521062 240.75767826758115575 0.504765875584169521062 127.96350101774851282
0.635462587779443310865 271.43472489860141650 0.635462587779443310865 140.24376759241184232
0.800000000000011368684 304.92677691162577958 0.800000000000011368684 152.99260301639424142
1.007140329435344483500 341.32097047498768916 1.007140329435344483500 166.28578310610325275
1.267914553968907398485 380.72695022294453793 1.267914553968907398485 180.15807304148282242
1.596209851975117999245 423.22989735913921550 1.596209851975117999245 194.84756134389550652
2.009509145207687197399 469.02334430510222774 2.009509145207687197399 210.48350813888200150
2.529822128134725289783 518.21926106036914916 2.529822128134725289783 227.33858176223549208
3.184857364427983839050 571.08960241136117020 3.184857364427983839050 245.78367779834482576
4.009497869018204596614 627.85453464988654559 4.009497869018204596614 265.95691014195676871
5.009497869018190385759 686.69611529098312985 5.009497869018190385759 287.25252403807866131
6.009497869018190385759 737.81002066286566787 6.009497869018190385759 305.96238002107855891
7.009497869018204596614 783.20679795234764242 7.009497869018204596614 322.64910203954485723
8.009497869018190385759 824.14659263967723746 8.009497869018190385759 337.62537498441827211
9.009497869018204596614 861.47997542167342999 9.009497869018204596614 351.16707553694482158
10.009497869018190385759 895.81471762515388946 10.009497869018190385759 363.45193654418949336
11.009497869018190385759 927.60433656371753841 11.009497869018190385759 374.54313659514463097
12.009497869018204596614 957.19920846102797896 12.009497869018204596614 384.68504605285573916
13.009497869018190385759 984.87607122603412790 13.009497869018190385759 393.98248566260696180
14.009497869018204596614 1010.86135436652068620 14.009497869018204596614 402.51243448778410539
15.009497869018190385759 1035.33772636490971308 15.009497869018190385759 410.36625770239862732
16.009497869018190385759 1058.45675133947884206 16.009497869018190385759 417.62342236002524487
17.009497869018204596614 1080.35108848598065379 17.009497869018204596614 424.35795787890208430
18.009497869018190385759 1101.13557119816528029 18.009497869018190385759 430.64630498769508904
19.009497869018204596614 1120.90780756798130824 19.009497869018204596614 436.50809124863792476
20.009497869018190385759 1139.75587815781295831 20.009497869018190385759 441.97245459531336564
21.009497869018190385759 1157.75194654699157581 21.009497869018190385759 447.06642564129344919
22.009497869018204596614 1174.95776395483039778 22.009497869018204596614 451.83437832702435344
23.009497869018190385759 1191.42978532932488633 23.009497869018190385759 456.29266939152159921
24.009497869018204596614 1207.22019669987344059 24.009497869018204596614 460.48865600100492657
25.009497869018204596614 1222.37792739123074170 25.009497869018204596614 464.44439919222190838
26.009497869018190385759 1236.94604600967045371 26.009497869018190385759 468.18309167674607352
27.009497869018204596614 1250.96383873070590198 27.009497869018204596614 471.73005542774637888
28.009497869018190385759 1264.46542594502216161 28.009497869018190385759 475.09367872699971258
29.009497869018190385759 1277.48141220915999838 29.009497869018190385759 478.25986653085607259
30.009497869018190385759 1290.04019827878664728 30.009497869018190385759 481.29240732746774256
31.009497869018218807469 1302.16780036429963729 31.009497869018218807469 484.16956287263894865
32.009497869018190385759 1313.88818185870104571 32.009497869018190385759 486.90299850019886208
33.009497869018190385759 1325.22352056698809974 33.009497869018190385759 489.48867344000871071
34.009497869018218807469 1336.19514060510186937 34.009497869018218807469 491.98032610404158049
35.009497869018190385759 1346.82203979575342601 35.009497869018190385759 494.35514488543384459
36.009497869018190385759 1357.12177997802200480 36.009497869018190385759 496.64407289963361336
37.009497869018190385759 1367.11062942375974671 37.009497869018190385759 498.84504816383207526
38.009497869018218807469 1376.80408161841478432 38.009497869018218807469 500.96782013716551774
39.009497869018190385759 1386.21631160496622215 39.009497869018190385759 503.02720591491055302
40.009497869018190385759 1395.36059347806985897 40.009497869018190385759 505.01676452955331342
41.009497869018218807469 1404.24967466305020025 41.009497869018218807469 506.93481419043524738
42.009497869018190385759 1412.89522623002631008 42.009497869018190385759 508.77441839918890309
43.009497869018190385759 1421.30821731829723831 43.009497869018190385759 510.57388503368645161
44.009497869018218807469 1429.49925668607238549 44.009497869018218807469 512.27182385580101709
46.009497869018190385759 1445.25503889434480698 46.009497869018190385759 515.53258279275530640
48.009497869018218807469 1460.23050255411226317 48.009497869018218807469 518.55695243761681468
50.009497869018190385759 1474.47985885059551947 50.009497869018190385759 521.25058908040296046
52.009497869018190385759 1488.05698981780778922 52.009497869018190385759 523.69444503929662460
54.009497869018218807469 1501.01305409830206372 54.009497869018218807469 525.92320858453069832
56.009497869018190385759 1513.38857578135730364 56.009497869018190385759 527.96032951302402125
58.009497869018218807469 1525.21887516651759142 58.009497869018218807469 529.88653538188054881
60.009497869018190385759 1536.53880125540626977 60.009497869018190385759 531.83261323637168516
62.009497869018190385759 1547.37770738980680107 62.009497869018190385759 533.73335366330456964
64.009497869018218807469 1557.76622103934028019 64.009497869018218807469 535.58841651847671983
66.009497869018190385759 1567.74525439700460083 66.009497869018190385759 537.58410027138370424
68.009497869018190385759 1577.35015472804343517 68.009497869018190385759 539.62083855886669426
70.009497869018190385759 1586.60227095243658368 70.009497869018190385759 541.37322248252507961
72.009497869018190385759 1595.52378366250900399 72.009497869018190385759 542.81169212940733360
74.009497869018218807469 1604.13523582130073919 74.009497869018218807469 544.17146802070021749
76.009497869018190385759 1612.45314211133677418 76.009497869018190385759 545.45641255100815670
78.009497869018190385759 1620.49865450206698370 78.009497869018190385759 546.90657888523196561
80.009497869018218807469 1628.28489612405360276 80.009497869018218807469 547.98227728334256881
82.009497869018190385759 1635.81178485504915443 82.009497869018190385759 549.20537627043950124
84.009497869018218807469 1643.08298276219079526 84.009497869018218807469 550.27138755640896761
86.009497869018190385759 1650.10449481146247308 86.009497869018190385759 550.87365898721100166
88.009497869018190385759 1656.89323673800595316 88.009497869018190385759 551.60188201733080859
91.009497869018218807469 1666.65559792641442982 91.009497869018218807469 552.45919946096239528
94.009497869018218807469 1675.94635240248680930 94.009497869018218807469 553.69824697575108985
97.009497869018218807469 1684.82911816421847107 97.009497869018218807469 555.62695089199121412
99.504748934509137825444 1691.95260179346723817 99.504748934509137825444 556.02525809551264047
nan nan nan nan

