Time Pressure difference Time.1 Pressure.1 difference.1
(hr) (psi) (hr) (psi)
0.000200000000020850166 0.40695073729831049 0.000200000000020850166 0.32769593905558037
0.000399999999999067768 0.78072219141214194 0.000399999999999067768 0.75078361948689676
0.000600000000019917934 1.13531126761578482 0.000600000000019917934 1.05477989945616857
0.000799999999998135536 1.47554185531300575 0.000799999999998135536 1.34624423228082546
0.001007140329434719206 1.81566918828984769 0.001007140329434719206 1.63632715876747836
0.001267914553977789183 2.22909053268094715 0.001267914553977789183 1.98529190109286646
0.001596209851982166583 2.72991794472787985 0.001596209851982166583 2.40034595587079513
0.002009509145224797066 3.33447251241840048 0.002009509145224797066 2.89154375241133987
0.002529822128153114136 4.06149548831099949 0.002529822128153114136 3.46983957895886297
0.003184857364431081805 4.93235106711105331 0.003184857364431081805 4.14704414171918589
0.004009497869034817086 5.97121729409214375 0.004009497869034817086 4.93577123237664050
0.005047658755856332391 7.20526396975982752 0.005047658755856332391 5.84938736574981188
0.006354625877790454069 8.66481992318584027 0.006354625877790454069 6.90198182478198063
0.008000000000009777068 10.38353649642622933 0.008000000000009777068 8.10837795391857874
0.010071403294361402914 12.39855913608381321 0.010071403294361402914 9.48420762934849115
0.012679145539692626699 14.75072393025910067 0.012679145539692626699 11.04606734253432876
0.015962098519750611558 17.48479933052734481 0.015962098519750611558 12.81176216176285898
0.020095091452091651263 20.64979257678912816 0.020095091452091651263 14.80062302853471756
0.025298221281360611101 24.29933407936006162 0.025298221281360611101 17.03387578493661891
0.031848573644296607199 28.49214892304258129 0.031848573644296607199 19.53509453853584787
0.040094978690191851456 33.29264318782656318 0.040094978690191851456 22.33088175117052643
0.050476587558435426217 38.77167898143525093 0.050476587558435426217 25.45189288162105967
0.063546258777947173257 45.00761891593931097 0.063546258777947173257 28.93386011741072394
0.080000000000012505552 52.08755318166940640 0.080000000000012505552 32.81740165525727093
0.100714032943542974863 60.10822922162154924 0.100714032943542974863 37.14491376357342034
0.126791455396883634421 69.17581136262049313 0.126791455396883634421 41.95362857260128209
0.159620985197506115583 79.40356709520284539 0.159620985197506115583 47.26626901046982709
0.200950914520774404082 90.90726583443036191 0.200950914520774404082 53.08302289619504677
0.252982212813464002465 103.79909915350630456 0.252982212813464002465 59.37952117966202792
0.318485736442809752589 118.18206021352598611 0.318485736442809752589 66.10936930082148422
0.400949786901833249431 134.14491900444889438 0.400949786901833249431 73.22018100002939889
0.504765875584169521062 151.76382036797699016 0.504765875584169521062 80.66297167283336478
0.635462587779443310865 171.10137931035825432 0.635462587779443310865 88.40395083461419290
0.800000000000011368684 192.21340282725890347 0.800000000000011368684 96.44029668704341418
1.007140329435344483500 215.15481800509073196 1.007140329435344483500 104.81977521404422760
1.267914553968907398485 239.99474034910988962 1.267914553968907398485 113.56430096705290111
1.596209851975117999245 266.78686461572618782 1.596209851975117999245 122.82395523879391419
2.009509145207687197399 295.65318574968199528 2.009509145207687197399 132.68021834015272020
2.529822128134725289783 326.66428507165801420 2.529822128134725289783 143.30496926843119354
3.184857364427983839050 359.99159178653593472 3.184857364427983839050 154.93200547195780814
4.009497869018204596614 395.77388974454032677 4.009497869018204596614 167.64838831659847074
5.009497869018190385759 432.86522215329642904 5.009497869018190385759 181.07227471229987259
6.009497869018190385759 465.08534326836485207 6.009497869018190385759 192.86620478733112805
7.009497869018204596614 493.70162003021687269 7.009497869018204596614 203.38483373060532244
8.009497869018190385759 519.50839675085103408 8.009497869018190385759 212.82526534359621451
9.009497869018204596614 543.04183850450806403 9.009497869018204596614 221.36140103371721466
10.009497869018190385759 564.68505954586760254 10.009497869018190385759 229.10527633839987516
11.009497869018190385759 584.72393869138170430 11.009497869018190385759 236.09671646321979210
12.009497869018204596614 603.37933882132017516 12.009497869018204596614 242.48976251767498979
13.009497869018190385759 620.82570422591254555 13.009497869018190385759 248.35048922416942219
14.009497869018204596614 637.20576683127137585 14.009497869018204596614 253.72742104444327538
15.009497869018190385759 652.63467339804287803 15.009497869018190385759 258.67815085759548310
16.009497869018190385759 667.20796376439909636 16.009497869018190385759 263.25277145290118597
17.009497869018204596614 681.00926087644654672 17.009497869018204596614 267.49794795610972642
18.009497869018190385759 694.11095102178660454 18.009497869018190385759 271.46186548471160904
19.009497869018204596614 706.57456236034965968 19.009497869018204596614 275.15689645337090496
20.009497869018190385759 718.45561728603729534 20.009497869018190385759 278.60140822694143026
21.009497869018190385759 729.79960477585564149 21.009497869018190385759 281.81243980169597307
22.009497869018204596614 740.64545027975395897 22.009497869018204596614 284.81796269976973690
23.009497869018190385759 751.02874069426729875 23.009497869018190385759 287.62828754228013395
24.009497869018204596614 760.98237196376737757 24.009497869018204596614 290.27326635521052367
25.009497869018204596614 770.53718713885211855 25.009497869018204596614 292.76680551630209948
26.009497869018190385759 779.72033491223737656 26.009497869018190385759 295.12352476494766051
27.009497869018204596614 788.55657968656316825 27.009497869018204596614 297.35938604020168441
28.009497869018190385759 797.06742956441735259 28.009497869018190385759 299.47967697275532828
29.009497869018190385759 805.27217640994547310 29.009497869018190385759 301.47551262199965549
30.009497869018190385759 813.18872290111232815 30.009497869018190385759 303.38710264906427483
31.009497869018218807469 820.83346859580410637 31.009497869018218807469 305.20074415146649471
32.009497869018190385759 828.22151903955193575 32.009497869018190385759 306.92379047984724139
33.009497869018190385759 835.36685421603874602 33.009497869018190385759 308.55369449752578248
34.009497869018218807469 842.28291597818702030 34.009497869018218807469 310.12433070753024822
35.009497869018190385759 848.98167977855132449 35.009497869018190385759 311.62131960333255165
36.009497869018190385759 855.47421588417603289 36.009497869018190385759 313.06416646280496252
37.009497869018190385759 861.77077915008715081 37.009497869018190385759 314.45157149608883174
38.009497869018218807469 867.88113603756403336 38.009497869018218807469 315.78968036456313939
39.009497869018190385759 873.81422191552906042 39.009497869018190385759 317.08783316073157721
40.009497869018190385759 879.57840423183085932 40.009497869018190385759 318.34196976138701984
41.009497869018218807469 885.18171844345238242 41.009497869018218807469 319.55103003429525188
42.009497869018190385759 890.63152151695749126 42.009497869018190385759 320.71064149381084007
43.009497869018190385759 895.93472795035188483 43.009497869018190385759 321.84495186364478059
44.009497869018218807469 901.09802507210110889 44.009497869018218807469 322.91526324166363793
46.009497869018190385759 911.02982753015476192 46.009497869018190385759 324.97071267585039323
48.009497869018218807469 920.46974900282384624 48.009497869018218807469 326.87715194213620862
50.009497869018190385759 929.45196201010878667 50.009497869018190385759 328.57511061383451079
52.009497869018190385759 938.01043158851393855 52.009497869018190385759 330.11561773044883239
54.009497869018218807469 946.17740605964809220 54.009497869018218807469 331.52053936267060408
56.009497869018190385759 953.97843015649868903 56.009497869018190385759 332.80465730600815277
58.009497869018218807469 961.43576835525561819 58.009497869018218807469 334.01885891974853848
60.009497869018190385759 968.57138804512294428 60.009497869018190385759 335.24558702269541755
62.009497869018190385759 975.40379237549814206 62.009497869018190385759 336.44373626053032922
64.009497869018218807469 981.95228765399895110 64.009497869018218807469 337.61309222022168797
66.009497869018190385759 988.24266325836674696 66.009497869018190385759 338.87108985820714224
68.009497869018190385759 994.29720066286870406 68.009497869018190385759 340.15496660025900155
70.009497869018190385759 1000.12935735588132502 70.009497869018190385759 341.25959794958708926
72.009497869018190385759 1005.75311507810533840 72.009497869018190385759 342.16635054275502625
74.009497869018218807469 1011.18142327553596260 74.009497869018218807469 343.02349780215632791
76.009497869018190385759 1016.42469213043693799 76.009497869018190385759 343.83347442381051451
78.009497869018190385759 1021.49625498160435200 78.009497869018190385759 344.74760013159465188
80.009497869018218807469 1026.40438411527838980 80.009497869018218807469 345.42567652623210961
82.009497869018190385759 1031.14902776494409409 82.009497869018190385759 346.19666823999892813
84.009497869018218807469 1035.73249434835679494 84.009497869018218807469 346.86863827426014950
86.009497869018190385759 1040.15856915114227377 86.009497869018190385759 347.24828561882128497
88.009497869018190385759 1044.43791516277565279 88.009497869018190385759 347.70732771428498609
91.009497869018218807469 1050.59170946925769385 91.009497869018218807469 348.24774566253012154
94.009497869018218807469 1056.44822214015380268 94.009497869018218807469 349.02879067764609999
97.009497869018218807469 1062.04755536655261494 97.009497869018218807469 350.24456695856690658
99.504748934509137825444 1066.53790889414403864 99.504748934509137825444 350.49564357353295918
nan nan nan nan

