Time Pressure difference Time.1 Pressure.1 difference.1
(hr) (psi) (hr) (psi)
0.000200000000020850166 0.59396853936554883 0.000200000000020850166 0.47829149928332865
0.000399999999999067768 1.13950996320081011 0.000399999999999067768 1.09581285638344861
0.000600000000019917934 1.65705357810098008 0.000600000000019917934 1.53951330913271645
0.000799999999998135536 2.15364013440905611 0.000799999999998135536 1.96492264785105775
0.001007140329434719206 2.65007598437893233 0.001007140329434719206 2.38831574275988601
0.001267914553977789183 3.25348875542035287 0.001267914553977789183 2.89765031152157349
0.001596209851982166583 3.98447582373885334 0.001596209851982166583 3.50344611941435913
0.002009509145224797066 4.86685877731656280 0.002009509145224797066 4.22037819745331610
0.002529822128153114136 5.92799157668921683 0.002529822128153114136 5.06443497370098683
0.003184857364431081805 7.19905652074664726 0.003184857364431081805 6.05285486861219457
0.004009497869034817086 8.71534288880360641 0.004009497869034817086 7.20404845313796383
0.005047658755856332391 10.51650660292151329 0.005047658755856332391 8.53752494192160150
0.006354625877790454069 12.64681437317933010 0.006354625877790454069 10.07384847220017221
0.008000000000009777068 15.15538231279857762 0.008000000000009777068 11.83465458715321894
0.010071403294361402914 18.09642638612233156 0.010071403294361402914 13.84275892960055820
0.012679145539692626699 21.52954926585611162 0.012679145539692626699 16.12238505509606057
0.015962098519750611558 25.52009314051233702 0.015962098519750611558 18.69952050816123190
0.020095091452091651263 30.13958695950471522 0.020095091452091651263 21.60237993503045217
0.025298221281360611101 35.46630746141890711 0.025298221281360611101 24.86194370080822935
0.031848573644296607199 41.58596736194083121 0.031848573644296607199 28.51261960220121594
0.040094978690191851456 48.59257112340861795 0.040094978690191851456 32.59323549711286461
0.050476587558435426217 56.58954616040365693 0.050476587558435426217 37.14853483089544284
0.063546258777947173257 65.69126731480847070 0.063546258777947173257 42.23067083313256376
0.080000000000012505552 76.02484784236305870 0.080000000000012505552 47.89892815123946690
0.100714032943542974863 87.73149632714616075 0.100714032943542974863 54.21518663286267525
0.126791455396883634421 100.96616584911886605 0.126791455396883634421 61.23378876221583766
0.159620985197506115583 115.89417697351296965 0.159620985197506115583 68.98789998954603675
0.200950914520774404082 132.68450197157665116 0.200950914520774404082 77.47779444775527224
0.252982212813464002465 151.50089104390440298 0.252982212813464002465 86.66790407472730351
0.318485736442809752589 172.49366876753609290 0.318485736442809752589 96.49051328097841917
0.400949786901833249431 195.79240016458166451 0.400949786901833249431 106.86916123901350772
0.504765875584169521062 221.50822311061349978 0.504765875584169521062 117.73235203718691366
0.635462587779443310865 249.73252789048612499 0.635462587779443310865 129.03076647552143186
0.800000000000011368684 280.54676809713885177 0.800000000000011368684 140.76028597336849657
1.007140329435344483500 314.03111304419491034 1.007140329435344483500 152.99062779402780166
1.267914553968907398485 350.28644087719345634 1.267914553968907398485 165.75377751441178020
1.596209851975117999245 389.39112225162978120 1.596209851975117999245 179.26878760956319070
2.009509145207687197399 431.52321596552849314 2.009509145207687197399 193.65458338617881395
2.529822128134725289783 476.78573960826548728 2.529822128134725289783 209.16203235134992156
3.184857364427983839050 525.42890418843660427 3.184857364427983839050 226.13237563370310568
4.009497869018204596614 577.65527289920044041 4.009497869018204596614 244.69268441797643732
5.009497869018190385759 631.79225439286278743 5.009497869018190385759 264.28563625287887362
6.009497869018190385759 678.81941646154723458 6.009497869018190385759 281.49957095797958573
7.009497869018204596614 720.58655570586802241 7.009497869018204596614 296.85212864356731188
8.009497869018190385759 758.25306437532299242 8.009497869018190385759 310.63099390223413820
9.009497869018204596614 792.60150693488856177 9.009497869018204596614 323.08998606759462291
10.009497869018190385759 824.19106117540229661 10.009497869018190385759 334.39262759685567516
11.009497869018190385759 853.43898404587685036 11.009497869018190385759 344.59704572021416880
12.009497869018204596614 880.66763791200037303 12.009497869018204596614 353.92807249822413951
13.009497869018190385759 906.13163447679141882 13.009497869018190385759 362.48214787498255873
14.009497869018204596614 930.03929938240719366 14.009497869018204596614 370.33009615677934789
15.009497869018190385759 952.55869609934927666 15.009497869018190385759 377.55597753847570175
16.009497869018190385759 973.82927064142074869 16.009497869018190385759 384.23290539265354937
17.009497869018204596614 993.97307561746072224 17.009497869018204596614 390.42899021535140491
18.009497869018190385759 1013.09576307223994718 18.009497869018190385759 396.21456101996511734
19.009497869018204596614 1031.28713697448074527 19.009497869018204596614 401.60767607348617503
20.009497869018190385759 1048.62823552410600314 20.009497869018190385759 406.63514362535198643
21.009497869018190385759 1065.18545255887738676 21.009497869018190385759 411.32183309291656315
22.009497869018204596614 1081.01560206272915821 22.009497869018204596614 415.70857055811978853
23.009497869018190385759 1096.17062520450076590 23.009497869018190385759 419.81040497898976582
24.009497869018204596614 1110.69853555005738599 24.009497869018204596614 423.67090714345067681
25.009497869018204596614 1124.64435034604525754 25.009497869018204596614 427.31037422783799684
26.009497869018190385759 1138.04769470646397167 26.009497869018190385759 430.75014460178027775
27.009497869018204596614 1150.94471373369719913 27.009497869018204596614 434.01351565426489287
28.009497869018190385759 1163.36679976865320896 28.009497869018190385759 437.10820499332305644
29.009497869018190385759 1175.34211042186893792 29.009497869018190385759 440.02124452549213629
30.009497869018190385759 1186.89677570493222447 30.009497869018190385759 442.81132261646507686
31.009497869018218807469 1198.05473173725840752 31.009497869018218807469 445.45843907401541628
32.009497869018190385759 1208.83802595111092160 32.009497869018190385759 447.97332654595351187
33.009497869018190385759 1219.26706295502708599 33.009497869018190385759 450.35226733646226194
34.009497869018218807469 1229.36146192404521571 34.009497869018218807469 452.64470327532910687
35.009497869018190385759 1239.13870173560621879 35.009497869018190385759 454.82964662692290858
36.009497869018190385759 1248.61494009565399210 36.009497869018190385759 456.93556649166748684
37.009497869018190385759 1257.80514456832565884 37.009497869018190385759 458.96056574980616460
38.009497869018218807469 1266.72356987835610198 38.009497869018218807469 460.91361435563084115
39.009497869018190385759 1275.38325772229791255 39.009497869018190385759 462.80834472356781362
40.009497869018190385759 1283.79642088248829168 40.009497869018190385759 464.63883086496559827
41.009497869018218807469 1291.97478758106831265 41.009497869018218807469 466.40352545446768318
42.009497869018190385759 1299.92909574350051116 42.009497869018190385759 468.09604659206951283
43.009497869018190385759 1307.66943748635935663 43.009497869018190385759 469.75163930098153742
44.009497869018218807469 1315.20557335891226103 44.009497869018218807469 471.31382171669298486
46.009497869018190385759 1329.70162327011553316 46.009497869018190385759 474.31387107467867281
48.009497869018218807469 1343.47974394897460115 48.009497869018218807469 477.09643132730911930
50.009497869018190385759 1356.58981219857787437 50.009497869018190385759 479.57470188857462290
52.009497869018190385759 1369.08140198764726847 52.009497869018190385759 481.82316264333900335
54.009497869018218807469 1381.00158163853052429 54.009497869018218807469 483.87372840801549501
56.009497869018190385759 1392.38763519165445359 56.009497869018190385759 485.74797408266630327
58.009497869018218807469 1403.27205895969291305 58.009497869018218807469 487.52017276154475667
60.009497869018190385759 1413.68691563938887157 60.009497869018190385759 489.31065458827242765
62.009497869018190385759 1423.65921166570888090 62.009497869018190385759 491.05942388025931677
64.009497869018218807469 1433.21712573028526094 64.009497869018218807469 492.76616768907365440
66.009497869018190385759 1442.39829894695458279 66.009497869018190385759 494.60228924157433994
68.009497869018190385759 1451.23525243808398955 68.009497869018190385759 496.47618286876036109
70.009497869018190385759 1459.74762819957663851 70.009497869018190385759 498.08845730141933927
72.009497869018190385759 1467.95583340444045461 72.009497869018190385759 499.41191604953576189
74.009497869018218807469 1475.87876853083753304 74.009497869018218807469 500.66297289505899926
76.009497869018190385759 1483.53162785214522046 76.009497869018190385759 501.84518142004691299
78.009497869018190385759 1490.93387216065025314 78.009497869018190385759 503.17940166265839252
80.009497869018218807469 1498.09757534472601037 80.009497869018218807469 504.16909404747849521
82.009497869018190385759 1505.02266184809855076 82.009497869018190385759 505.29440180617478973
84.009497869018218807469 1511.71250094227070804 84.009497869018218807469 506.27518159882822602
86.009497869018190385759 1518.17261747427733098 86.009497869018190385759 506.82929923041200482
88.009497869018190385759 1524.41857470449212997 88.009497869018190385759 507.49929817121744691
91.009497869018218807469 1533.40039948270327841 91.009497869018218807469 508.28806995597227569
94.009497869018218807469 1541.94832422662170757 94.009497869018218807469 509.42805109935846986
97.009497869018218807469 1550.12088044309348334 97.009497869018218807469 511.20254809761428305
99.504748934509137825444 1556.67481555505537472 99.504748934509137825444 511.56900918636972619
nan nan nan nan

