Time Pressure difference Time.1 Pressure.1 difference.1
(hr) (psi) (hr) (psi)
0.000200000000020850166 0.51766527612211555 0.000200000000020850166 0.41684851071040735
0.000399999999999067768 0.99312455231103358 0.000399999999999067768 0.95504092772965554
0.000600000000019917934 1.44418271542302046 0.000600000000019917934 1.34174207798468470
0.000799999999998135536 1.87697603653786760 0.000799999999998135536 1.71250185429840318
0.001007140329434719206 2.30963801157458581 0.001007140329434719206 2.08150440049098329
0.001267914553977789183 2.83553428054267531 0.001267914553977789183 2.52540808006666095
0.001596209851982166583 3.47261620910237623 0.001596209851982166583 3.05338125268858507
0.002009509145224797066 4.24164518123811263 0.002009509145224797066 3.67821374387618949
0.002529822128153114136 5.16646117263090421 0.002529822128153114136 4.41384005264620072
0.003184857364431081805 6.27424069566332498 0.003184857364431081805 5.27528409203984694
0.004009497869034817086 7.59573964616132891 0.004009497869034817086 6.27859134706734423
0.005047658755856332391 9.16551960859154669 0.005047658755856332391 7.44076481084351116
0.006354625877790454069 11.02216063758198672 0.006354625877790454069 8.77972688005354840
0.008000000000009777068 13.20846921971865839 0.008000000000009777068 10.31433372079348487
0.010071403294361402914 15.77169654810661648 0.010071403294361402914 12.06446999909771556
0.012679145539692626699 18.76378852893253324 0.012679145539692626699 14.05124742837087481
0.015962098519750611558 22.24169326603846031 0.015962098519750611558 16.29731510283069440
0.020095091452091651263 26.26775085135675880 0.020095091452091651263 18.82726311718019119
0.025298221281360611101 30.91018232153890466 0.025298221281360611101 21.66809199113260931
0.031848573644296607199 36.24368943887034078 0.031848573644296607199 24.84978937622574691
0.040094978690191851456 42.35020052569113602 0.040094978690191851456 28.40619516876839157
0.050476587558435426217 49.31985635138455137 0.050476587558435426217 32.37630491559149704
0.063546258777947173257 57.25233876806986189 0.063546258777947173257 36.80557206111805613
0.080000000000012505552 66.25843162080005300 0.080000000000012505552 41.74566534087873038
0.100714032943542974863 76.46120334809211272 0.100714032943542974863 47.25051530219265317
0.126791455396883634421 87.99570121862753069 0.126791455396883634421 53.36748340485309683
0.159620985197506115583 101.00600814316243259 0.159620985197506115583 60.12547455008294861
0.200950914520774404082 115.63938962762097162 0.200950914520774404082 67.52472765471870275
0.252982212813464002465 132.03855995262199485 0.252982212813464002465 75.53424385354067283
0.318485736442809752589 150.33453247749997672 0.318485736442809752589 84.09500653707438289
0.400949786901833249431 170.64022785124748793 0.400949786901833249431 93.14037730150799632
0.504765875584169521062 193.05250679161778748 0.504765875584169521062 102.60804484853066754
0.635462587779443310865 217.65101926979397717 0.635462587779443310865 112.45502569403129201
0.800000000000011368684 244.50675506702785356 0.800000000000011368684 122.67773034454786796
1.007140329435344483500 273.68958466824039988 1.007140329435344483500 133.33691994139448411
1.267914553968907398485 305.28742706173540000 1.267914553968907398485 144.46047108308937368
1.596209851975117999245 339.36858513618113875 1.596209851975117999245 156.23929600228933623
2.009509145207687197399 376.08824363746316521 2.009509145207687197399 168.77704244740016293
2.529822128134725289783 415.53618615732960961 2.529822128134725289783 182.29235061351909053
3.184857364427983839050 457.93048072846113428 3.184857364427983839050 197.08262460771101132
4.009497869018204596614 503.44766857209907585 4.009497869018204596614 213.25861160861424537
5.009497869018190385759 550.63002523911973185 5.009497869018190385759 230.33458474432259777
6.009497869018190385759 591.61591459872886389 6.009497869018190385759 245.33715756035505251
7.009497869018204596614 628.01750195020235878 7.009497869018204596614 258.71747231907886544
8.009497869018190385759 660.84523998453835247 8.009497869018190385759 270.72625665030983555
9.009497869018204596614 690.78116221529330687 9.009497869018204596614 281.58472337377264694
10.009497869018190385759 718.31261251055207140 10.009497869018190385759 291.43538828340570035
11.009497869018190385759 743.80324554124285896 11.009497869018190385759 300.32891138336043468
12.009497869018204596614 767.53401188300279046 12.009497869018204596614 308.46124202616010734
13.009497869018190385759 789.72681493443292311 13.009497869018190385759 315.91643114545081517
14.009497869018204596614 810.56321810154372542 14.009497869018204596614 322.75620471094623554
15.009497869018190385759 830.18969483721616598 15.009497869018190385759 329.05382425267652025
16.009497869018190385759 848.72777743559595365 16.009497869018190385759 334.87301074523458055
17.009497869018204596614 866.28383920312694499 17.009497869018204596614 340.27312497358082055
18.009497869018190385759 882.94995975565507251 18.009497869018190385759 345.31546124158165867
19.009497869018204596614 898.80440653191533329 19.009497869018204596614 350.01575798847909482
20.009497869018190385759 913.91780728297396763 20.009497869018190385759 354.39737958280045405
21.009497869018190385759 928.34802666340465294 21.009497869018190385759 358.48200063009858241
22.009497869018204596614 942.14458013527530511 22.009497869018204596614 362.30520255191294154
23.009497869018190385759 955.35273632432540580 23.009497869018190385759 365.88010106481220873
24.009497869018204596614 968.01434080685112349 24.009497869018204596614 369.24466970184869297
25.009497869018204596614 980.16862775751053505 25.009497869018204596614 372.41659819353134253
26.009497869018190385759 991.85013191041957725 26.009497869018190385759 375.41448370835257720
27.009497869018204596614 1003.09035504246651271 27.009497869018204596614 378.25863077172709836
28.009497869018190385759 1013.91665672532485587 28.009497869018190385759 380.95576556093141107
29.009497869018190385759 1024.35357734500416882 29.009497869018190385759 383.49458590886723641
30.009497869018190385759 1034.42389016097376953 30.009497869018190385759 385.92624086976553599
31.009497869018218807469 1044.14845637554503810 31.009497869018218807469 388.23329954561546629
32.009497869018190385759 1053.54649113119467074 32.009497869018190385759 390.42511583098217898
33.009497869018190385759 1062.63577778951980690 33.009497869018190385759 392.49844961817615285
34.009497869018218807469 1071.43341517813496466 34.009497869018218807469 394.49639126766714980
35.009497869018190385759 1079.95463677712791650 35.009497869018190385759 396.40064920129799475
36.009497869018190385759 1088.21352461737092199 36.009497869018190385759 398.23603527989160966
37.009497869018190385759 1096.22312347768433938 37.009497869018190385759 400.00089609428948734
38.009497869018218807469 1103.99585687131298073 38.009497869018218807469 401.70304928727523475
39.009497869018190385759 1111.54309111313637004 39.009497869018190385759 403.35437600593058960
40.009497869018190385759 1118.87547008902015477 40.009497869018190385759 404.94971153470550007
41.009497869018218807469 1126.00321537292097673 41.009497869018218807469 406.48770732303734121
42.009497869018190385759 1132.93568545907100997 42.009497869018190385759 407.96280131197994478
43.009497869018190385759 1139.68167599566822901 43.009497869018190385759 409.40571082654810198
44.009497869018218807469 1146.24969365789320364 44.009497869018218807469 410.76720985888101723
46.009497869018190385759 1158.88353060821145846 46.009497869018190385759 413.38186244795673474
48.009497869018218807469 1170.89166601094507314 48.009497869018218807469 415.80696533815853400
50.009497869018190385759 1182.31756932168264029 50.009497869018190385759 417.96686864848066989
52.009497869018190385759 1193.20444606480100447 52.009497869018190385759 419.92648431887982952
54.009497869018218807469 1203.59331800234645016 54.009497869018218807469 421.71362727751477451
56.009497869018190385759 1213.51667953731066518 56.009497869018190385759 423.34710083778981016
58.009497869018218807469 1223.00285239308254859 58.009497869018218807469 424.89163671409187373
60.009497869018190385759 1232.07978038092846873 60.009497869018190385759 426.45210702151700843
62.009497869018190385759 1240.77100059530289400 62.009497869018190385759 427.97622333140992623
64.009497869018218807469 1249.10107179516035103 64.009497869018218807469 429.46371289778210212
66.009497869018190385759 1257.10279958601063299 66.009497869018190385759 431.06395989316052919
68.009497869018190385759 1264.80452731379614306 68.009497869018190385759 432.69712663121180185
70.009497869018190385759 1272.22337369534898244 70.009497869018190385759 434.10228268587178491
72.009497869018190385759 1279.37712432729585998 72.009497869018190385759 435.25572532276925131
74.009497869018218807469 1286.28225166667448320 74.009497869018218807469 436.34606705715475528
76.009497869018190385759 1292.95199807768835853 76.009497869018190385759 437.37640496558248060
78.009497869018190385759 1299.40332435159939450 78.009497869018190385759 438.53922663798431358
80.009497869018218807469 1305.64675332311162492 80.009497869018218807469 439.40177969881000308
82.009497869018190385759 1311.68221914217133417 82.009497869018190385759 440.38252651117511505
84.009497869018218807469 1317.51265825195400794 84.009497869018218807469 441.23731192240444443
86.009497869018190385759 1323.14288575843806939 86.009497869018190385759 441.72024567688293928
88.009497869018190385759 1328.58646561147179455 88.009497869018190385759 442.30417422478899425
91.009497869018218807469 1336.41445395721757450 91.009497869018218807469 442.99161764424786725
94.009497869018218807469 1343.86428257534271324 94.009497869018218807469 443.98515284729978703
97.009497869018218807469 1350.98696381186482540 97.009497869018218807469 445.53169179288295254
99.504748934509137825444 1356.69895763740350958 99.504748934509137825444 445.85107601633228569
nan nan nan nan

