Time Pressure difference Time.1 Pressure.1 difference.1
(hr) (psi) (hr) (psi)
0.000200000000020850166 0.47577328845905420 0.000200000000020850166 0.38311510521939174
0.000399999999999067768 0.91275609143037184 0.000399999999999067768 0.87775437866482786
0.000600000000019917934 1.32731243787433661 0.000600000000019917934 1.23316179421713823
0.000799999999998135536 1.72508202202035221 0.000799999999998135536 1.57391788921067111
0.001007140329434719206 2.12273088925063069 0.001007140329434719206 1.91305895767668432
0.001267914553977789183 2.60606907864904835 0.001267914553977789183 2.32103979613063061
0.001596209851982166583 3.19159524420391794 0.001596209851982166583 2.80628681605482688
0.002009509145224797066 3.89839065790092398 0.002009509145224797066 3.38055482818678721
0.002529822128153114136 4.74836604883418367 0.002529822128153114136 4.05665068422396491
0.003184857364431081805 5.76649867404895122 0.003184857364431081805 4.84838248921581272
0.004009497869034817086 6.98105551294596172 0.004009497869034817086 5.77049724961680699
0.005047658755856332391 8.42380125876332819 0.005047658755856332391 6.83862199378103064
0.006354625877790454069 10.13019388078344463 0.006354625877790454069 8.06922875103187565
0.008000000000009777068 12.13957575685125434 0.008000000000009777068 9.47964775494892642
0.010071403294361402914 14.49537428409798601 0.010071403294361402914 11.08815450784125289
0.012679145539692626699 17.24533165375880372 0.012679145539692626699 12.91415226075704581
0.015962098519750611558 20.44178745260182239 0.015962098519750611558 14.97845723323746192
0.020095091452091651263 24.14203690962846593 0.020095091452091651263 17.30366957012514462
0.025298221281360611101 28.40878028395771793 0.025298221281360611101 19.91460477797737028
0.031848573644296607199 33.31067410855713007 0.031848573644296607199 22.83882376196470432
0.040094978690191851456 38.92301666812075212 0.040094978690191851456 26.10742792967730708
0.050476587558435426217 45.32865410329562650 0.050476587558435426217 29.75625711895403214
0.063546258777947173257 52.61920152672316675 0.063546258777947173257 33.82708646079635884
0.080000000000012505552 60.89647761680467397 0.080000000000012505552 38.36740340577872388
0.100714032943542974863 70.27359151645461566 0.100714032943542974863 43.42677417947186314
0.126791455396883634421 80.87466181365188334 0.126791455396883634421 49.04872752237944411
0.159620985197506115583 92.83211153042097408 0.159620985197506115583 55.25982921076987964
0.200950914520774404082 106.28128873290019385 0.200950914520774404082 62.06029882716921264
0.252982212813464002465 121.35335856917281205 0.252982212813464002465 69.42164608504606349
0.318485736442809752589 138.16873216140169234 0.318485736442809752589 77.28963028551923742
0.400949786901833249431 156.83119207137775675 0.400949786901833249431 85.60300572797555674
0.504765875584169521062 177.42976057726721706 0.504765875584169521062 94.30450364691547804
0.635462587779443310865 200.03764198784531914 0.635462587779443310865 103.35461899046806877
0.800000000000011368684 224.72008124657472194 0.800000000000011368684 112.75005274441105030
1.007140329435344483500 251.54129457948104687 1.007140329435344483500 122.54664896347819081
1.267914553968907398485 280.58208614344465559 1.267914553968907398485 132.77002833648097635
1.596209851975117999245 311.90523142573874793 1.596209851975117999245 143.59565355123700670
2.009509145207687197399 345.65335686911356561 2.009509145207687197399 155.11878467709033202
2.529822128134725289783 381.90898034112956339 2.529822128134725289783 167.54036848294526862
3.184857364427983839050 420.87252275043539385 3.184857364427983839050 181.13374169148008264
4.009497869018204596614 462.70623874545520948 4.009497869018204596614 196.00068928190557926
5.009497869018190385759 506.07037001745686666 5.009497869018190385759 211.69479175923294179
6.009497869018190385759 543.73948220345596383 6.009497869018190385759 225.48328353812976843
7.009497869018204596614 577.19527635885640393 7.009497869018204596614 237.78079825857534502
8.009497869018190385759 607.36643443665661835 8.009497869018190385759 248.81777345317499339
9.009497869018204596614 634.87979648688792622 9.009497869018204596614 258.79752032618409885
10.009497869018190385759 660.18326814553631721 10.009497869018190385759 267.85102160151160433
11.009497869018190385759 683.61107538183591714 11.009497869018190385759 276.02483762979375115
12.009497869018204596614 705.42143288669035428 12.009497869018204596614 283.49906059051710372
13.009497869018190385759 725.81828655823596819 13.009497869018190385759 290.35093960766863574
14.009497869018204596614 744.96850681008936590 14.009497869018204596614 296.63720548578294256
15.009497869018190385759 763.00671375212357361 15.009497869018190385759 302.42519107615936491
16.009497869018190385759 780.04460469514310716 16.009497869018190385759 307.77346074273009435
17.009497869018204596614 796.17994470113978878 17.009497869018204596614 312.73657150751068912
18.009497869018190385759 811.49736185635356378 18.009497869018190385759 317.37085744168490464
19.009497869018204596614 826.06878981834995557 19.009497869018204596614 321.69078335357329479
20.009497869018190385759 839.95914079764656890 20.009497869018190385759 325.71782285355652675
21.009497869018190385759 853.22159676000762829 21.009497869018190385759 329.47189653286517341
22.009497869018204596614 865.90166613588894506 22.009497869018204596614 332.98570639164256590
23.009497869018190385759 878.04095419403313372 23.009497869018190385759 336.27130675898922618
24.009497869018204596614 889.67792016352211704 24.009497869018204596614 339.36359816528289457
25.009497869018204596614 900.84862319909927919 25.009497869018204596614 342.27883880214727697
26.009497869018190385759 911.58480331651264805 26.009497869018190385759 345.03412086490209276
27.009497869018204596614 921.91541301590848434 27.009497869018204596614 347.64810573817692330
28.009497869018190385759 931.86559779957610772 28.009497869018190385759 350.12697528432425997
29.009497869018190385759 941.45791212633332634 29.009497869018190385759 352.46034196248490389
30.009497869018190385759 950.71328633291807364 30.009497869018190385759 354.69521559706777225
31.009497869018218807469 959.65089343185923099 31.009497869018218807469 356.81557588296448102
32.009497869018190385759 968.28839358300558615 32.009497869018190385759 358.83001975217433710
33.009497869018190385759 976.64213103198653698 33.009497869018190385759 360.73556930225441874
34.009497869018218807469 984.72782088626274799 34.009497869018218807469 362.57182781248025094
35.009497869018190385759 992.55946385874756288 35.009497869018190385759 364.32198394801378072
36.009497869018190385759 1000.15000239400001192 36.009497869018190385759 366.00884167342633191
37.009497869018190385759 1007.51142562399900271 37.009497869018190385759 367.63088138145678840
38.009497869018218807469 1014.65515169097557191 38.009497869018218807469 369.19528807327606046
39.009497869018190385759 1021.59162709241991251 39.009497869018190385759 370.71298141585532449
40.009497869018190385759 1028.33063435927260798 40.009497869018190385759 372.17921464750389760
41.009497869018218807469 1034.88156788609489922 41.009497869018218807469 373.59274834891868977
42.009497869018190385759 1041.25302883232529894 42.009497869018190385759 374.94847056997002710
43.009497869018190385759 1047.45310105960265901 43.009497869018190385759 376.27461284058466617
44.009497869018218807469 1053.48960284164763834 44.009497869018218807469 377.52593276047446125
46.009497869018190385759 1065.10104836246023297 46.009497869018190385759 379.92899496661920011
48.009497869018218807469 1076.13742714300724401 48.009497869018218807469 382.15784675587980246
50.009497869018190385759 1086.63869087946545733 50.009497869018190385759 384.14296020293892298
52.009497869018190385759 1096.64454869539508763 52.009497869018190385759 385.94399425839242213
54.009497869018218807469 1106.19270267267688723 54.009497869018218807469 387.58651293135750393
56.009497869018190385759 1115.31301760943574664 56.009497869018190385759 389.08779787981836762
58.009497869018218807469 1124.03152329768840900 58.009497869018218807469 390.50734241352955678
60.009497869018190385759 1132.37390219981284645 60.009497869018190385759 391.94153188682776090
62.009497869018190385759 1140.36178667429567213 62.009497869018190385759 393.34230930459062847
64.009497869018218807469 1148.01774806607249957 64.009497869018218807469 394.70942399275924117
66.009497869018190385759 1155.37193719176707418 66.009497869018190385759 396.18017123128629464
68.009497869018190385759 1162.45040371614777541 68.009497869018190385759 397.68117418706748367
70.009497869018190385759 1169.26888102636121403 70.009497869018190385759 398.97261819106137182
72.009497869018190385759 1175.84371542219673756 72.009497869018190385759 400.03271864925034151
74.009497869018218807469 1182.19004632948690414 74.009497869018218807469 401.03482463634452415
76.009497869018190385759 1188.32004447602548680 76.009497869018190385759 401.98178259842552507
78.009497869018190385759 1194.24929810349317449 78.009497869018190385759 403.05050309502610162
80.009497869018218807469 1199.98747848771517965 80.009497869018218807469 403.84325417405085545
82.009497869018190385759 1205.53452510754482319 82.009497869018190385759 404.74463419235166839
84.009497869018218807469 1210.89313677491713861 84.009497869018218807469 405.53024621770123304
86.009497869018190385759 1216.06773893405602394 86.009497869018190385759 405.97409862788668988
88.009497869018190385759 1221.07079787412726546 88.009497869018190385759 406.51077284243615395
91.009497869018218807469 1228.26530739420581995 91.009497869018218807469 407.14258500251685291
94.009497869018218807469 1235.11225970797408991 94.009497869018218807469 408.05571851283622209
97.009497869018218807469 1241.65853899471949262 97.009497869018218807469 409.47710401773633748
99.504748934509137825444 1246.90829054535925025 99.504748934509137825444 409.77064211905690172
nan nan nan nan

