Time Pressure difference Time.1 Pressure.1 difference.1
(hr) (psi) (hr) (psi)
0.000200000000020850166 0.53038248666268772 0.000200000000020850166 0.42708900880589423
0.000399999999999067768 1.01752212079266280 0.000399999999999067768 0.97850291583862103
0.000600000000019917934 1.47966119253601369 0.000600000000019917934 1.37470394984269006
0.000799999999998135536 1.92308671951639898 0.000799999999998135536 1.75457198655717894
0.001007140329434719206 2.36637767370864349 0.001007140329434719206 2.13263962420246722
0.001267914553977789183 2.90519335968895476 0.001267914553977789183 2.58744845197581297
0.001596209851982166583 3.55792614487512227 0.001596209851982166583 3.12839206380954726
0.002009509145224797066 4.34584744725118810 0.002009509145224797066 3.76857448613904422
0.002529822128153114136 5.29338290664062328 0.002529822128153114136 4.52227253948866448
0.003184857364431081805 6.42837666651054551 0.003184857364431081805 5.40487922146857169
0.004009497869034817086 7.78234018660170879 0.004009497869034817086 6.43283419807911372
0.005047658755856332391 9.39068410764653905 0.005047658755856332391 7.62355816602319258
0.006354625877790454069 11.29293626018154306 0.006354625877790454069 8.99541381207798807
0.008000000000009777068 13.53295473523197856 0.008000000000009777068 10.56772053185344085
0.010071403294361402914 16.15915152110923358 0.010071403294361402914 12.36085148751485541
0.012679145539692626699 19.22474865175312786 0.012679145539692626699 14.39643703282507303
0.015962098519750611558 22.78809324511743739 0.015962098519750611558 16.69768267038578458
0.020095091452091651263 26.91305686938141406 0.020095091452091651263 19.28978258682190017
0.025298221281360611101 31.66953651151890270 0.025298221281360611101 22.20040060941187932
0.031848573644296607199 37.13406909271542133 0.031848573644296607199 25.46026108055499293
0.040094978690191851456 43.39059562531071634 0.040094978690191851456 29.10403522349247041
0.050476587558435426217 50.53147131955439875 0.050476587558435426217 33.17167656814215349
0.063546258777947173257 58.65882685919295625 0.063546258777947173257 37.70975518978713836
0.080000000000012505552 67.88616765772722772 0.080000000000012505552 42.77120914260552098
0.100714032943542974863 78.33958551126779923 0.100714032943542974863 48.41129385730432233
0.126791455396883634421 90.15744532370942466 0.126791455396883634421 54.67853429774688578
0.159620985197506115583 103.48736961488754105 0.159620985197506115583 61.60254545666012405
0.200950914520774404082 118.48024168494690400 0.200950914520774404082 69.18357212022480951
0.252982212813464002465 135.28228180116906287 0.252982212813464002465 77.38985389040512075
0.318485736442809752589 154.02772185917265801 0.318485736442809752589 86.16092432772505560
0.400949786901833249431 174.83225657013650789 0.400949786901833249431 95.42850795775891015
0.504765875584169521062 197.79512617811710129 0.504765875584169521062 105.12876271330671329
0.635462587779443310865 222.99793737324264953 0.635462587779443310865 115.21764915761298198
0.800000000000011368684 250.51342390537971028 0.800000000000011368684 125.69148961601798931
1.007140329435344483500 280.41317273089947548 1.007140329435344483500 136.61253791683338932
1.267914553968907398485 312.78726269764507606 1.267914553968907398485 148.00935548830977950
1.596209851975117999245 347.70567465542256969 1.596209851975117999245 160.07754460350165004
2.009509145207687197399 385.32740569214075776 2.009509145207687197399 172.92329927052995231
2.529822128134725289783 425.74444506581892256 2.529822128134725289783 186.77063090315755289
3.184857364427983839050 469.18021797179034138 3.184857364427983839050 201.92424977870970793
4.009497869018204596614 515.81560262661594152 4.009497869018204596614 218.49762374350794403
5.009497869018190385759 564.15706343141027901 5.009497869018190385759 235.99309332908197234
6.009497869018190385759 606.14983157586527796 6.009497869018190385759 251.36422645995912717
7.009497869018204596614 643.44567757614663606 7.009497869018204596614 265.07324837316025423
8.009497869018190385759 677.07987738300244018 8.009497869018190385759 277.37704619229725722
9.009497869018204596614 707.75121966855908795 9.009497869018204596614 288.50226715607630013
10.009497869018190385759 735.95902062136053701 10.009497869018190385759 298.59492816898074352
11.009497869018190385759 762.07586862534856209 11.009497869018190385759 307.70693377283612335
12.009497869018204596614 786.38961622116903527 12.009497869018204596614 316.03904710483743656
13.009497869018190385759 809.12761819149261555 13.009497869018190385759 323.67738393370609629
14.009497869018204596614 830.47589831502102697 14.009497869018204596614 330.68518661858507812
15.009497869018190385759 850.58452838090499881 15.009497869018190385759 337.13751646697642173
16.009497869018190385759 869.57802630323340054 16.009497869018190385759 343.09965985313772308
17.009497869018204596614 887.56537860551588892 17.009497869018204596614 348.63243584720925128
18.009497869018190385759 904.64092697508590390 18.009497869018190385759 353.79864453797887336
19.009497869018204596614 920.88486160567629213 19.009497869018204596614 358.61441100264698889
20.009497869018190385759 936.36954532316258337 20.009497869018190385759 363.10367358989242348
21.009497869018190385759 951.15426431265007068 21.009497869018190385759 367.28863937390156025
22.009497869018204596614 965.28975045651770870 22.009497869018204596614 371.20576388628074938
23.009497869018190385759 978.82238447102133705 23.009497869018190385759 374.86848505050846825
24.009497869018204596614 991.79503993071864443 24.009497869018204596614 378.31570927544902361
25.009497869018204596614 1004.24791485559956072 25.009497869018204596614 381.56556086591581334
26.009497869018190385759 1016.21639237642693843 26.009497869018190385759 384.63709385725718448
27.009497869018204596614 1027.73274815767149448 27.009497869018204596614 387.55111158548339745
28.009497869018190385759 1038.82501389921321788 28.009497869018190385759 390.31450546633004706
29.009497869018190385759 1049.51833285781503946 29.009497869018190385759 392.91569567830475762
30.009497869018190385759 1059.83603775163351202 30.009497869018190385759 395.40708782754882122
31.009497869018218807469 1069.79950226916389511 31.009497869018218807469 397.77082280034875339
32.009497869018190385759 1079.42841360118086413 32.009497869018190385759 400.01648428347738218
33.009497869018190385759 1088.74099198377120956 33.009497869018190385759 402.14075257122385665
34.009497869018218807469 1097.75475630245341563 34.009497869018218807469 404.18777660227749493
35.009497869018190385759 1106.48531427020770934 35.009497869018190385759 406.13881543890221337
36.009497869018190385759 1114.94709386375143367 36.009497869018190385759 408.01929048185422744
37.009497869018190385759 1123.15346032612455929 37.009497869018190385759 409.82750770354226688
38.009497869018218807469 1131.11714237248679638 38.009497869018218807469 411.57147679866778844
39.009497869018190385759 1138.84978554799658923 39.009497869018190385759 413.26337079220348869
40.009497869018190385759 1146.36229522126495795 40.009497869018190385759 414.89789808974887819
41.009497869018218807469 1153.66514407427871447 41.009497869018218807469 416.47367701160902698
42.009497869018190385759 1160.76792050647577526 42.009497869018190385759 417.98500885866155841
43.009497869018190385759 1167.67963624411663659 43.009497869018190385759 419.46336557228698894
44.009497869018218807469 1174.40900694139645566 44.009497869018218807469 420.85831183518303078
46.009497869018190385759 1187.35321271852899372 46.009497869018190385759 423.53719721907708617
48.009497869018218807469 1199.65634566728317623 48.009497869018218807469 426.02187633635031716
50.009497869018190385759 1211.36294313449843685 50.009497869018190385759 428.23484085516298592
52.009497869018190385759 1222.51727205194174530 52.009497869018190385759 430.24259737295636796
54.009497869018218807469 1233.16136194171053830 54.009497869018218807469 432.07364413259824687
56.009497869018190385759 1243.32850547970133448 56.009497869018190385759 433.74724637860259691
58.009497869018218807469 1253.04772015418416231 58.009497869018218807469 435.32972605533399246
60.009497869018190385759 1262.34763625733853587 60.009497869018190385759 436.92853161597622602
62.009497869018190385759 1271.25236910703711146 62.009497869018190385759 438.49009008955147237
64.009497869018218807469 1279.78708078434783602 64.009497869018218807469 440.01412202966400855
66.009497869018190385759 1287.98538281283458673 66.009497869018190385759 441.65368145122954502
68.009497869018190385759 1295.87631483451082204 68.009497869018190385759 443.32696933746990453
70.009497869018190385759 1303.47741611272022055 70.009497869018190385759 444.76664512179638677
72.009497869018190385759 1310.80690917348670155 72.009497869018190385759 445.94842377723034588
74.009497869018218807469 1317.88167114403495361 74.009497869018218807469 447.06555136347208190
76.009497869018190385759 1324.71526970676450219 76.009497869018190385759 448.12120104132657161
78.009497869018190385759 1331.32508231977453761 78.009497869018190385759 449.31258914209666955
80.009497869018218807469 1337.72189032671394671 80.009497869018218807469 450.19633209025477072
82.009497869018190385759 1343.90562625982602185 82.009497869018190385759 451.20117239367505135
84.009497869018218807469 1349.87929870034008673 84.009497869018218807469 452.07695686847506522
86.009497869018190385759 1355.64784104441127965 86.009497869018190385759 452.57175460247117371
88.009497869018190385759 1361.22515046030866870 88.009497869018190385759 453.17002821586038408
91.009497869018218807469 1369.24544487813182059 91.009497869018218807469 453.87435969620196374
94.009497869018218807469 1376.87828951722258353 94.009497869018218807469 454.89230255597630048
97.009497869018218807469 1384.17594991706937435 97.009497869018218807469 456.47683451033816482
99.504748934509137825444 1390.02826729034541131 99.504748934509137825444 456.80406487800524928
nan nan nan nan

