Time Pressure difference Time.1 Pressure.1 difference.1
(hr) (psi) (hr) (psi)
0.000200000000020850166 0.44585044012829605 0.000200000000020850166 0.35901981558295198
0.000399999999999067768 0.85535004794418490 0.000399999999999067768 0.82254970076137968
0.000600000000019917934 1.24383366819670527 0.000600000000019917934 1.15560444866889034
0.000799999999998135536 1.61658629736498405 0.000799999999998135536 1.47492934271943388
0.001007140329434719206 1.98922580187637710 0.001007140329434719206 1.79274078423789907
0.001267914553977789183 2.44216536301074338 0.001267914553977789183 2.17506245046203750
0.001596209851982166583 2.99086598356216182 0.001596209851982166583 2.62979078988785631
0.002009509145224797066 3.65320885551721819 0.002009509145224797066 3.16794131698007053
0.002529822128153114136 4.44972667469366900 0.002529822128153114136 3.80151542106522511
0.003184857364431081805 5.40382580146725644 0.003184857364431081805 4.54345277291293215
0.004009497869034817086 6.54199541779212801 0.004009497869034817086 5.40757289429499544
0.005047658755856332391 7.89400243745745822 0.005047658755856332391 6.40851998159354430
0.006354625877790454069 9.49307476878448497 0.006354625877790454069 7.56173008744496489
0.008000000000009777068 11.37608042623167748 0.008000000000009777068 8.88344349363138441
0.010071403294361402914 13.58371552409182570 0.010071403294361402914 10.39078629980092217
0.012679145539692626699 16.16071960006328112 0.012679145539692626699 12.10194142674717099
0.015962098519750611558 19.15614044300422236 0.015962098519750611558 14.03641589781372190
0.020095091452091651263 22.62366980839397002 0.020095091452091651263 16.21538846508583021
0.025298221281360611101 26.62206454282830137 0.025298221281360611101 18.66211391143791687
0.031848573644296607199 31.21566315833341676 0.031848573644296607199 21.40241975177824330
0.040094978690191851456 36.47502819842762278 0.040094978690191851456 24.46545133032653041
0.050476587558435426217 42.47779535466068523 0.050476587558435426217 27.88479440707013168
0.063546258777947173257 49.30981778290409778 0.063546258777947173257 31.69959674628086432
0.080000000000012505552 57.06651047109368591 0.080000000000012505552 35.95435916642156826
0.100714032943542974863 65.85386877957067497 0.100714032943542974863 40.69553052038558860
0.126791455396883634421 75.78820509581215958 0.126791455396883634421 45.96390189204111465
0.159620985197506115583 86.99361394989135476 0.159620985197506115583 51.78436825411768751
0.200950914520774404082 99.59693095095678927 0.200950914520774404082 58.15713537891957685
0.252982212813464002465 113.72107186670909584 0.252982212813464002465 65.05550482183559780
0.318485736442809752589 129.47887479276008094 0.318485736442809752589 72.42864724869411930
0.400949786901833249431 146.96759508575652831 0.400949786901833249431 80.21916888973809989
0.504765875584169521062 166.27065613844538916 0.504765875584169521062 88.37340278861888976
0.635462587779443310865 187.45665821502484505 0.635462587779443310865 96.85432848792289917
0.800000000000011368684 210.58674280339391771 0.800000000000011368684 105.65885445859902347
1.007140329435344483500 235.72108737322437833 1.007140329435344483500 114.83931255068080191
1.267914553968907398485 262.93541405895126672 1.267914553968907398485 124.41971208890355172
1.596209851975117999245 292.28855020399413434 1.596209851975117999245 134.56448037191393041
2.009509145207687197399 323.91415203457808047 2.009509145207687197399 145.36288626972617521
2.529822128134725289783 357.88954761527236315 2.529822128134725289783 157.00323838967830170
3.184857364427983839050 394.40255276613129354 3.184857364427983839050 169.74168246560083162
4.009497869018204596614 433.60521744070962313 4.009497869018204596614 183.67360190568510347
5.009497869018190385759 474.24204485912622431 5.009497869018190385759 198.38065391274028570
6.009497869018190385759 509.54203049254687130 6.009497869018190385759 211.30194495082599815
7.009497869018204596614 540.89368665075221543 7.009497869018204596614 222.82603107250142216
8.009497869018190385759 569.16728761674119141 8.009497869018190385759 233.16885688379289832
9.009497869018204596614 594.95024953802715117 9.009497869018204596614 242.52094672076373172
10.009497869018190385759 618.66230788481072977 10.009497869018190385759 251.00504540015870703
11.009497869018190385759 640.61666812511668923 11.009497869018190385759 258.66478494867465088
12.009497869018204596614 661.05530503218153626 12.009497869018204596614 265.66893099362920339
13.009497869018190385759 680.16933771809544851 13.009497869018190385759 272.08987422353851571
14.009497869018204596614 698.11514160190768052 14.009497869018204596614 277.98077746780921871
15.009497869018190385759 715.01887011991459531 15.009497869018190385759 283.40473880721856403
16.009497869018190385759 730.98519559481962915 16.009497869018190385759 288.41663931236962526
17.009497869018204596614 746.10573434257753433 17.009497869018204596614 293.06760474603203193
18.009497869018190385759 760.45979192828099258 18.009497869018190385759 297.41042615604430921
19.009497869018204596614 774.11477788008892276 19.009497869018204596614 301.45865861435481747
20.009497869018190385759 787.13152187955563477 20.009497869018190385759 305.23242518981084004
21.009497869018190385759 799.55986111472418543 21.009497869018190385759 308.75039360626988127
22.009497869018204596614 811.44244185061279495 22.009497869018204596614 312.04320913430649398
23.009497869018190385759 822.81825267239594268 23.009497869018190385759 315.12216796911576466
24.009497869018204596614 833.72333398971568386 24.009497869018204596614 318.01997563916449963
25.009497869018204596614 844.19147708594834967 25.009497869018204596614 320.75186780830154021
26.009497869018190385759 854.25242574943638374 26.009497869018190385759 323.33386169100884899
27.009497869018204596614 863.93331156836700302 27.009497869018204596614 325.78344499992681449
28.009497869018190385759 873.25769856689839798 28.009497869018190385759 328.10641080103340528
29.009497869018190385759 882.24672268442566292 29.009497869018190385759 330.29302485792607058
30.009497869018190385759 890.91999788430678109 30.009497869018190385759 332.38734040228359845
31.009497869018218807469 899.29549132922670651 31.009497869018218807469 334.37434469535668313
32.009497869018190385759 907.38975247715620753 32.009497869018190385759 336.26209398159738839
33.009497869018190385759 915.21809763374835711 33.009497869018190385759 338.04779764802458430
34.009497869018218807469 922.79525353492556405 34.009497869018218807469 339.76856820163237671
35.009497869018190385759 930.13434034561885255 35.009497869018190385759 341.40865162423932588
36.009497869018190385759 937.24748652016342021 36.009497869018190385759 342.98941766880835758
37.009497869018190385759 944.14592715708079140 37.009497869018190385759 344.50944230086207654
38.009497869018218807469 950.84036227644867267 38.009497869018218807469 345.97545863470520544
39.009497869018190385759 957.34058136333703715 39.009497869018190385759 347.39769956580153121
40.009497869018190385759 963.65575169516750975 40.009497869018190385759 348.77171687093135688
41.009497869018218807469 969.79467682407641860 41.009497869018218807469 350.09634908169113032
42.009497869018190385759 975.76541695607852489 42.009497869018190385759 351.36680575424861672
43.009497869018190385759 981.57554753384147261 43.009497869018190385759 352.60954285061080782
44.009497869018218807469 987.23239511575798133 44.009497869018218807469 353.78216340446977028
46.009497869018190385759 998.11356104406661416 46.009497869018190385759 356.03408962280667538
48.009497869018218807469 1008.45582795162317780 48.009497869018218807469 358.12276205425217768
50.009497869018190385759 1018.29663484931052153 50.009497869018190385759 359.98302559898047548
52.009497869018190385759 1027.67319343153371847 52.009497869018190385759 361.67078707233002888
54.009497869018218807469 1036.62083458005554348 54.009497869018218807469 363.21000268410233502
56.009497869018190385759 1045.16754480381109715 56.009497869018190385759 364.61686719555308400
58.009497869018218807469 1053.33771680097856915 58.009497869018218807469 365.94713219884215505
60.009497869018190385759 1061.15541778473038903 60.009497869018190385759 367.29112107633545747
62.009497869018190385759 1068.64091958786207215 62.009497869018190385759 368.60379928543397909
64.009497869018218807469 1075.81537397386659904 64.009497869018218807469 369.88493191774290381
66.009497869018190385759 1082.70703548159303864 66.009497869018190385759 371.26317932994754756
68.009497869018190385759 1089.34031543211358439 68.009497869018190385759 372.66977958410728888
70.009497869018190385759 1095.72995769136991839 70.009497869018190385759 373.88000069476817089
72.009497869018190385759 1101.89128048998327358 72.009497869018190385759 374.87342816816544655
74.009497869018218807469 1107.83847108863892572 74.009497869018218807469 375.81250862148010583
76.009497869018190385759 1113.58293476055246174 76.009497869018190385759 376.69990947902766720
78.009497869018190385759 1119.13927935484571208 78.009497869018190385759 377.70141485005586901
80.009497869018218807469 1124.51656789100366041 80.009497869018218807469 378.44430737065135872
82.009497869018190385759 1129.71474365424023745 82.009497869018190385759 379.28899682176353281
84.009497869018218807469 1134.73633571989103075 84.009497869018218807469 380.02519928577027031
86.009497869018190385759 1139.58549120235420560 86.009497869018190385759 380.44113645003216106
88.009497869018190385759 1144.27389234745260183 88.009497869018190385759 380.94405756932695795
91.009497869018218807469 1151.01591699205437180 91.009497869018218807469 381.53613311556608778
94.009497869018218807469 1157.43224337413926150 94.009497869018218807469 382.39183684536226338
97.009497869018218807469 1163.56680698247305372 97.009497869018218807469 383.72382703548879590
99.504748934509137825444 1168.48638547961331824 99.504748934509137825444 383.99890362100296670
nan nan nan nan

