Time Pressure difference Time.1 Pressure.1 difference.1
(hr) (psi) (hr) (psi)
0.000200000000020850166 0.59920503782343149 0.000200000000020850166 0.48250817496970561
0.000399999999999067768 1.14955602081089281 0.000399999999999067768 1.10547367501655214
0.000600000000019917934 1.67166236279456548 0.000600000000019917934 1.55308584460365973
0.000799999999998135536 2.17262688622374522 0.000799999999998135536 1.98224564348702437
0.001007140329434719206 2.67343937466942672 0.001007140329434719206 2.40937142311167340
0.001267914553977789183 3.28217190565705597 0.001267914553977789183 2.92319634701357689
0.001596209851982166583 4.01960344435116124 0.001596209851982166583 3.53433292399357901
0.002009509145224797066 4.90976559273371116 0.002009509145224797066 4.25758556191449156
0.002529822128153114136 5.98025346716380746 0.002529822128153114136 5.10908364475376686
0.003184857364431081805 7.26252427344844342 0.003184857364431081805 6.10621756896519852
0.004009497869034817086 8.79217840545552853 0.004009497869034817086 7.26756021531928109
0.005047658755856332391 10.60922139665004060 0.005047658755856332391 8.61279279405441045
0.006354625877790454069 12.75831021777914742 0.006354625877790454069 10.16266073832787953
0.008000000000009777068 15.28899399565700357 0.008000000000009777068 11.93899033288378853
0.010071403294361402914 18.25596666912340993 0.010071403294361402914 13.96479836600761537
0.012679145539692626699 21.71935637525282914 0.012679145539692626699 16.26452195104779008
0.015962098519750611558 25.74508136719191498 0.015962098519750611558 18.86437774186038752
0.020095091452091651263 30.40530120222075539 0.020095091452091651263 21.79282912841233255
0.025298221281360611101 35.77898271611655900 0.025298221281360611101 25.08112960245263423
0.031848573644296607199 41.95259427822998077 0.031848573644296607199 28.76399030398384937
0.040094978690191851456 49.02096910560491239 0.040094978690191851456 32.88058140199925106
0.050476587558435426217 57.08844644141477431 0.050476587558435426217 37.47604080547512950
0.063546258777947173257 66.27040946997681203 0.063546258777947173257 42.60298153317277325
0.080000000000012505552 76.69509209286249529 0.080000000000012505552 48.32121089312697393
0.100714032943542974863 88.50494780610084433 0.100714032943542974863 54.69315427320277223
0.126791455396883634421 101.85629577474082907 0.126791455396883634421 61.77363324752504781
0.159620985197506115583 116.91591405010565552 0.159620985197506115583 69.59610565696016238
0.200950914520774404082 133.85426458341675016 0.200950914520774404082 78.16084805119896828
0.252982212813464002465 152.83654121683557037 0.252982212813464002465 87.43197879578913501
0.318485736442809752589 174.01439380704837845 0.318485736442809752589 97.34118531242282302
0.400949786901833249431 197.51852963706537025 0.400949786901833249431 107.81133268570506800
0.504765875584169521062 223.46106638740732819 0.504765875584169521062 118.77029468738882656
0.635462587779443310865 251.93420005072974277 0.635462587779443310865 130.16831731346687206
0.800000000000011368684 283.02010232469552875 0.800000000000011368684 142.00124567338559700
1.007140329435344483500 316.79964930528979039 1.007140329435344483500 154.33941166626732411
1.267914553968907398485 353.37460849197981361 1.267914553968907398485 167.21508285773782632
1.596209851975117999245 392.82404146543507295 1.596209851975117999245 180.84924291594472834
2.009509145207687197399 435.32757681157227125 2.009509145207687197399 195.36186560746753571
2.529822128134725289783 480.98914033529052858 2.529822128134725289783 211.00603011767165640
3.184857364427983839050 530.06114893568985735 3.184857364427983839050 228.12598599823198242
4.009497869018204596614 582.74795162753093791 4.009497869018204596614 246.84992470881505255
5.009497869018190385759 637.36221129557065979 5.009497869018190385759 266.61561037601506996
6.009497869018190385759 684.80397051095633287 6.009497869018190385759 283.98130521075779598
7.009497869018204596614 726.93933390478616730 7.009497869018204596614 299.46921290113027680
8.009497869018190385759 764.93791506880825182 8.009497869018190385759 313.36955430187606453
9.009497869018204596614 799.58917765093906382 9.009497869018204596614 325.93838644854315589
10.009497869018190385759 831.45722922102913799 10.009497869018190385759 337.34067343209244427
11.009497869018190385759 860.96300531580277493 11.009497869018190385759 347.63505493941005398
12.009497869018204596614 888.43171028653932808 12.009497869018204596614 357.04834517767949364
13.009497869018190385759 914.12020052381615187 13.009497869018190385759 365.67783431720528142
14.009497869018204596614 938.23863829383901702 14.009497869018204596614 373.59497105992477373
15.009497869018190385759 960.95656873498580808 15.009497869018190385759 380.88455668554036038
16.009497869018190385759 982.41466723397741134 16.009497869018190385759 387.62034914296663146
17.009497869018204596614 1002.73606243020901729 17.009497869018204596614 393.87105939861015713
18.009497869018190385759 1022.02733780965274946 18.009497869018190385759 399.70763649495216896
19.009497869018204596614 1040.37908906367647432 19.009497869018204596614 405.14829790284937872
20.009497869018190385759 1057.87306883477185693 20.009497869018190385759 410.22008821650751997
21.009497869018190385759 1074.57625629680228485 21.009497869018190385759 414.94809610507076059
22.009497869018204596614 1090.54596631265258111 22.009497869018204596614 419.37350757815357838
23.009497869018190385759 1105.83459797078717202 23.009497869018190385759 423.51150426721761733
24.009497869018204596614 1120.49058813047349759 24.009497869018204596614 427.40604108552139451
25.009497869018204596614 1134.55935091584660768 25.009497869018204596614 431.07759415176099083
26.009497869018190385759 1148.08086078070232361 26.009497869018190385759 434.54768995721155989
27.009497869018204596614 1161.09158148701681057 27.009497869018204596614 437.83983128345869318
28.009497869018190385759 1173.62318213437197301 28.009497869018190385759 440.96180377789892191
29.009497869018190385759 1185.70406857420289271 29.009497869018190385759 443.90052501878994917
30.009497869018190385759 1197.36060118343925751 30.009497869018190385759 446.71520077555231865
31.009497869018218807469 1208.61692710521901972 31.009497869018218807469 449.38565453184679654
32.009497869018190385759 1219.49528814463428716 32.009497869018190385759 451.92271355580453474
33.009497869018190385759 1230.01626879971900053 33.009497869018190385759 454.32262737595249291
34.009497869018218807469 1240.19966121052925700 34.009497869018218807469 456.63527370722749765
35.009497869018190385759 1250.06309835040383405 35.009497869018190385759 458.83947978358344244
36.009497869018190385759 1259.62288037357552639 36.009497869018190385759 460.96396569247565367
37.009497869018190385759 1268.89410680003652487 37.009497869018190385759 463.00681758891028039
38.009497869018218807469 1277.89115802589844861 38.009497869018218807469 464.97708450738070951
39.009497869018190385759 1286.62719072488744132 39.009497869018190385759 466.88851904732723597
40.009497869018190385759 1295.11452534870682030 40.009497869018190385759 468.73514297586581279
41.009497869018218807469 1303.36499351692145865 41.009497869018218807469 470.51539532623252171
42.009497869018190385759 1311.38942782184381031 42.009497869018190385759 472.22283793482074543
43.009497869018190385759 1319.19800935336729708 43.009497869018190385759 473.89302654922693137
44.009497869018218807469 1326.80058471094298511 44.009497869018218807469 475.46898135399379726
46.009497869018190385759 1341.42443355083446477 46.009497869018190385759 478.49547950984589306
48.009497869018218807469 1355.32402380746680137 48.009497869018218807469 481.30257115009396784
50.009497869018190385759 1368.54967200385499382 50.009497869018190385759 483.80269044426734126
52.009497869018190385759 1381.15138915882289439 52.009497869018190385759 486.07097390089990085
54.009497869018218807469 1393.17665855473933334 54.009497869018218807469 488.13961770128514672
56.009497869018190385759 1404.66309293263861946 56.009497869018190385759 490.03038695241275491
58.009497869018218807469 1415.64347509661706681 58.009497869018218807469 491.81820954911506760
60.009497869018190385759 1426.15015041202832435 60.009497869018190385759 493.62447648010856938
62.009497869018190385759 1436.21036340583464153 62.009497869018190385759 495.38866313361182847
64.009497869018218807469 1445.85254119642127080 64.009497869018218807469 497.11045380220144807
66.009497869018190385759 1455.11465674623491395 66.009497869018190385759 498.96276282430864057
68.009497869018190385759 1464.02951788779000708 68.009497869018190385759 500.85317692427844349
70.009497869018190385759 1472.61693978320022325 70.009497869018190385759 502.47966536327061249
72.009497869018190385759 1480.89750951757810071 72.009497869018190385759 503.81479188372571798
74.009497869018218807469 1488.89029419798612253 74.009497869018218807469 505.07687819766027815
76.009497869018190385759 1496.61062205235316469 76.009497869018190385759 506.26950921594158217
78.009497869018190385759 1504.07812544166358748 78.009497869018190385759 507.61549210552811928
80.009497869018218807469 1511.30498469915073656 80.009497869018218807469 508.61390973807340288
82.009497869018190385759 1518.29112360242675095 82.009497869018190385759 509.74913834602779161
84.009497869018218807469 1525.03994112690043039 84.009497869018218807469 510.73856481191609191
86.009497869018190385759 1531.55701082732502982 86.009497869018190385759 511.29756761153652178
88.009497869018190385759 1537.85803317166028137 88.009497869018190385759 511.97347334401155194
91.009497869018218807469 1546.91904280307971931 91.009497869018218807469 512.76919903618875196
94.009497869018218807469 1555.54232708504264338 94.009497869018218807469 513.91923039116647942
97.009497869018218807469 1563.78693354523647940 97.009497869018218807469 515.70937156950753888
99.504748934509137825444 1570.39864894156107766 99.504748934509137825444 516.07906342352919182
nan nan nan nan

