Time Pressure difference Time.1 Pressure.1 difference.1
(hr) (psi) (hr) (psi)
0.000200000000020850166 0.61491453319707945 0.000200000000020850166 0.49515820202883642
0.000399999999999067768 1.17969419364114092 0.000399999999999067768 1.13445613091586250
0.000600000000019917934 1.71548871687532190 0.000600000000019917934 1.59380345101648979
0.000799999999998135536 2.22958714166781391 0.000799999999998135536 2.03421463039492378
0.001007140329434719206 2.74352954554090989 0.001007140329434719206 2.47253846416703515
0.001267914553977789183 3.36822135636716613 0.001267914553977789183 2.99983445348958844
0.001596209851982166583 4.12498630618808271 0.001596209851982166583 3.62699333773123822
0.002009509145224797066 5.03848603898515712 0.002009509145224797066 4.36920765529801702
0.002529822128153114136 6.13703913858757755 0.002529822128153114136 5.24302965791210518
0.003184857364431081805 7.45292753155383370 0.003184857364431081805 6.26630567002421124
0.004009497869034817086 9.02268495541129134 0.004009497869034817086 7.45809550186323289
0.005047658755856332391 10.88736577783562254 0.005047658755856332391 8.83859635045284087
0.006354625877790454069 13.09279775157860115 0.006354625877790454069 10.42909753671100859
0.008000000000009777068 15.68982904423227964 0.008000000000009777068 12.25199757007549906
0.010071403294361402914 18.73458751812664502 0.010071403294361402914 14.33091667522878865
0.012679145539692626699 22.28877770344297815 0.012679145539692626699 16.69093263890297507
0.015962098519750611558 26.42004604723065597 0.015962098519750611558 19.35894944295785081
0.020095091452091651263 31.20244393036886876 0.020095091452091651263 22.36417670855797013
0.025298221281360611101 36.71700848020950758 0.025298221281360611101 25.73868730738584887
0.031848573644296607199 43.05247502709742946 0.031848573644296607199 29.51810240933173901
0.040094978690191851456 50.30616305219380990 0.040094978690191851456 33.74261911665840330
0.050476587558435426217 58.58514728444812647 0.050476587558435426217 38.45855872921417529
0.063546258777947173257 68.00783593548182182 0.063546258777947173257 43.71991363329340885
0.080000000000012505552 78.70582484436076243 0.080000000000012505552 49.58805911878948081
0.100714032943542974863 90.82530224296492349 0.100714032943542974863 56.12705719422307027
0.126791455396883634421 104.52668555160668973 0.126791455396883634421 63.39316670345266402
0.159620985197506115583 119.98112527988371312 0.159620985197506115583 71.42072265920258189
0.200950914520774404082 137.36355241893704715 0.200950914520774404082 80.21000886153001375
0.252982212813464002465 156.84349173562898727 0.252982212813464002465 89.72420295897461529
0.318485736442809752589 178.57656892558520667 0.318485736442809752589 99.89320140675599191
0.400949786901833249431 202.69691805451651589 0.400949786901833249431 110.63784702577973462
0.504765875584169521062 229.31959621778878500 0.504765875584169521062 121.88412263799452262
0.635462587779443310865 258.53921653146045401 0.635462587779443310865 133.58096982730305058
0.800000000000011368684 290.44010500736544600 0.800000000000011368684 145.72412477343692672
1.007140329435344483500 325.10525808857460106 1.007140329435344483500 158.38576328298594831
1.267914553968907398485 362.63911133633882855 1.267914553968907398485 171.59899888771599308
1.596209851975117999245 403.12279910685100504 1.596209851975117999245 185.59060883508934126
2.009509145207687197399 446.74065934970337821 2.009509145207687197399 200.48371227133372940
2.529822128134725289783 493.59934251636559566 2.529822128134725289783 216.53802341663680409
3.184857364427983839050 543.95788317744950291 3.184857364427983839050 234.10681709181858423
4.009497869018204596614 598.02598781252231674 4.009497869018204596614 253.32164558133081300
5.009497869018190385759 654.07208200369416318 5.009497869018190385759 273.60553274542371582
6.009497869018190385759 702.75763265918374145 6.009497869018190385759 291.42650796909219935
7.009497869018204596614 745.99766850154094300 7.009497869018204596614 307.32046567381905788
8.009497869018190385759 784.99246714926380264 8.009497869018190385759 321.58523550080161613
9.009497869018204596614 820.55218979909113841 9.009497869018204596614 334.48358759138886853
10.009497869018190385759 853.25573335791011687 10.009497869018190385759 346.18481093780275160
11.009497869018190385759 883.53506912558043496 11.009497869018190385759 356.74908259699753899
12.009497869018204596614 911.72392741015642059 12.009497869018204596614 366.40916321604566974
13.009497869018190385759 938.08589866488989628 13.009497869018190385759 375.26489364387362002
14.009497869018204596614 962.83665502813425974 14.009497869018204596614 383.38959576936093754
15.009497869018190385759 986.15018664189540232 15.009497869018190385759 390.87029412673427942
16.009497869018190385759 1008.17085701164717193 16.009497869018190385759 397.78268039390582089
17.009497869018204596614 1029.02502286845424351 17.009497869018204596614 404.19726694838647063
18.009497869018190385759 1048.82206202189081523 18.009497869018190385759 410.18686291991355120
19.009497869018204596614 1067.65494533126366150 19.009497869018204596614 415.77016339093904662
20.009497869018190385759 1085.60756876676964566 20.009497869018190385759 420.97492198997400692
21.009497869018190385759 1102.74866751057606962 21.009497869018190385759 425.82688514153329606
22.009497869018204596614 1119.13705906242239507 22.009497869018204596614 430.36831863825500477
23.009497869018190385759 1134.82651626964661773 23.009497869018190385759 434.61480213190122868
24.009497869018204596614 1149.86674587172205975 24.009497869018204596614 438.61144291173354759
25.009497869018204596614 1164.30435262525088547 25.009497869018204596614 442.37925392353002962
26.009497869018190385759 1178.18035900341737943 26.009497869018190385759 445.94032602350546313
27.009497869018204596614 1191.53218474697609963 27.009497869018204596614 449.31877817103998041
28.009497869018190385759 1204.39232923152758303 28.009497869018190385759 452.52260013162663199
29.009497869018190385759 1216.78994303120430232 29.009497869018190385759 455.53836649868333097
30.009497869018190385759 1228.75207761896012926 30.009497869018190385759 458.42683525281398715
31.009497869018218807469 1240.30351320910108370 31.009497869018218807469 461.16730090534088049
32.009497869018190385759 1251.46707472520529336 32.009497869018190385759 463.77087458535743281
33.009497869018190385759 1262.26388633379406201 33.009497869018190385759 466.23370749442312899
34.009497869018218807469 1272.71425906998115352 34.009497869018218807469 468.60698500292255630
35.009497869018190385759 1282.83628819479645244 35.009497869018190385759 470.86897925356498718
36.009497869018190385759 1292.64670120733967451 36.009497869018190385759 473.04916329490009730
37.009497869018190385759 1302.16099349516844086 37.009497869018190385759 475.14557310622251407
38.009497869018218807469 1311.39392246852480639 38.009497869018218807469 477.16749496263037145
39.009497869018190385759 1320.35898973265602763 39.009497869018190385759 479.12904201860544617
40.009497869018190385759 1329.06883874736195139 40.009497869018190385759 481.02407930856639950
41.009497869018218807469 1337.53561132448112403 41.009497869018218807469 482.85100494152698047
42.009497869018190385759 1345.77042405687325299 42.009497869018190385759 484.60321196307450009
43.009497869018190385759 1353.78372495439202794 43.009497869018190385759 486.31718829396328374
44.009497869018218807469 1361.58561876703515736 44.009497869018218807469 487.93446026589617759
46.009497869018190385759 1376.59286439299125959 46.009497869018190385759 491.04030481534749697
48.009497869018218807469 1390.85686338294340203 48.009497869018218807469 493.92099061844839980
50.009497869018190385759 1404.42925141968635216 50.009497869018190385759 496.48665611134555320
52.009497869018190385759 1417.36135067235022689 52.009497869018190385759 498.81440767358270705
54.009497869018218807469 1429.70188930336530575 54.009497869018218807469 500.93728558109410187
56.009497869018190385759 1441.48946615559179918 56.009497869018190385759 502.87762556165205297
58.009497869018218807469 1452.75772350738998284 58.009497869018218807469 504.71231991182594356
60.009497869018190385759 1463.53985472994668271 60.009497869018190385759 506.56594215561699457
62.009497869018190385759 1473.86381862621237815 62.009497869018190385759 508.37638089366902250
64.009497869018218807469 1483.75878759482930036 64.009497869018218807469 510.14331214158499961
66.009497869018190385759 1493.26373014407613482 66.009497869018190385759 512.04418357251154248
68.009497869018190385759 1502.41231423690805968 68.009497869018190385759 513.98415909083246333
70.009497869018190385759 1511.22487453407052271 70.009497869018190385759 515.65328954882465951
72.009497869018190385759 1519.72253785699012951 72.009497869018190385759 517.02341938629524520
74.009497869018218807469 1527.92487119943120888 74.009497869018218807469 518.31859410546405798
76.009497869018190385759 1535.84760465297654264 76.009497869018190385759 519.54249260362541918
78.009497869018190385759 1543.51088528470359051 78.009497869018190385759 520.92376343413752693
80.009497869018218807469 1550.92721276242423301 80.009497869018218807469 521.94835680985818271
82.009497869018190385759 1558.09650886541180625 82.009497869018190385759 523.11334796558662674
84.009497869018218807469 1565.02226168078914270 84.009497869018218807469 524.12871445117991698
86.009497869018190385759 1571.71019088646835371 86.009497869018190385759 524.70237275491012952
88.009497869018190385759 1578.17640857316450820 88.009497869018190385759 525.39599886239386706
91.009497869018218807469 1587.47497276420926937 91.009497869018218807469 526.21258627683778286
94.009497869018218807469 1596.32433566030590555 94.009497869018218807469 527.39276826659022390
97.009497869018218807469 1604.78509285166592235 97.009497869018218807469 529.22984198518759058
99.504748934509137825444 1611.57014910107773176 99.504748934509137825444 529.60922613500747502
nan nan nan nan

