Time Pressure difference Time.1 Pressure.1 difference.1
(hr) (psi) (hr) (psi)
0.000200000000020850166 0.17280444911012818 0.000200000000020850166 0.13915029765043946
0.000399999999999067768 0.33151990113272939 0.000399999999999067768 0.31880701489241392
0.000600000000019917934 0.48208989488832032 0.000600000000019917934 0.44789367054113033
0.000799999999998135536 0.62656280988475066 0.000799999999998135536 0.57165885598689470
0.001007140329434719206 0.77099187958631399 0.001007140329434719206 0.69483745160898447
0.001267914553977789183 0.94654395781121092 0.001267914553977789183 0.84301917123612524
0.001596209851982166583 1.15921148020613995 0.001596209851982166583 1.01926455111425307
0.002009509145224797066 1.41592490876590160 0.002009509145224797066 1.22784302721878591
0.002529822128153114136 1.72464238566147232 0.002529822128153114136 1.47340614474172305
0.003184857364431081805 2.09443583915928944 0.003184857364431081805 1.76096911164913972
0.004009497869034817086 2.53557204951339177 0.004009497869034817086 2.09588815198346312
0.005047658755856332391 3.05958819304139729 0.005047658755856332391 2.48383912038273280
0.006354625877790454069 3.67936287179398658 0.006354625877790454069 2.93080478221440766
0.008000000000009777068 4.40918553432804927 0.008000000000009777068 3.44307960910880828
0.010071403294361402914 5.26482933903559047 0.010071403294361402914 4.02730140143290782
0.012679145539692626699 6.26363461009164002 0.012679145539692626699 4.69051756640704109
0.015962098519750611558 7.42461148042613317 0.015962098519750611558 5.44028871207209708
0.020095091452091651263 8.76857000962920630 0.020095091452091651263 6.28482338160205778
0.025298221281360611101 10.31828340502237751 0.025298221281360611101 7.23313475426536634
0.031848573644296607199 12.09868823754197820 0.031848573644296607199 8.29523315882680201
0.040094978690191851456 14.13713341247782118 0.040094978690191851456 9.48241486125072086
0.050476587558435426217 16.46370927336680978 0.050476587558435426217 10.80769716112953205
0.063546258777947173257 19.11169112055511121 0.063546258777947173257 12.28625310132697912
0.080000000000012505552 22.11806026648094203 0.080000000000012505552 13.93533048228755433
0.100714032943542974863 25.52389880550473933 0.100714032943542974863 15.77293213122327309
0.126791455396883634421 29.37428754552450982 0.126791455396883634421 17.81486801520385299
0.159620985197506115583 33.71732352755855544 0.159620985197506115583 20.07078702466641928
0.200950914520774404082 38.60216619072318167 0.200950914520774404082 22.54076891364164936
0.252982212813464002465 44.07645570672785595 0.252982212813464002465 25.21446579504031149
0.318485736442809752589 50.18392630390533782 0.318485736442809752589 28.07217703766500705
0.400949786901833249431 56.96227259196267312 0.400949786901833249431 31.09165774082131151
0.504765875584169521062 64.44382813419611011 0.504765875584169521062 34.25210745666269219
0.635462587779443310865 72.65518128803816467 0.635462587779443310865 37.53917765219830471
0.800000000000011368684 81.62002950936911816 0.800000000000011368684 40.95167010056438528
1.007140329435344483500 91.36169661613227788 1.007140329435344483500 44.50986778390480936
1.267914553968907398485 101.90953128794923543 1.267914553968907398485 48.22307632975959990
1.596209851975117999245 113.28633405557491187 1.596209851975117999245 52.15502511059079893
2.009509145207687197399 125.54390791944219075 2.009509145207687197399 56.34031330252809511
2.529822128134725289783 138.71222399182533991 2.529822128134725289783 60.85192628861692299
3.184857364427983839050 152.86407665935624323 3.184857364427983839050 65.78914202945266254
4.009497869018204596614 168.05839803490590612 4.009497869018204596614 71.18892959767325124
5.009497869018190385759 183.80857778935933311 5.009497869018190385759 76.88914606349497660
6.009497869018190385759 197.49028363050052803 6.009497869018190385759 81.89723034167920446
7.009497869018204596614 209.64168056430165166 7.009497869018204596614 86.36378049957689029
8.009497869018190385759 220.60007288501208222 8.009497869018190385759 90.37249318818147970
9.009497869018204596614 230.59313362967156991 9.009497869018204596614 93.99721257130272534
10.009497869018190385759 239.78354550569008552 10.009497869018190385759 97.28551256281318160
11.009497869018190385759 248.29270190755363501 11.009497869018190385759 100.25430423346280406
12.009497869018204596614 256.21438835978852921 12.009497869018204596614 102.96899842202742548
13.009497869018190385759 263.62267955181215484 13.009497869018190385759 105.45765259335134090
14.009497869018204596614 270.57818407724943199 14.009497869018204596614 107.74087180379852668
15.009497869018190385759 277.12979697600712825 15.009497869018190385759 109.84311185313335102
16.009497869018190385759 283.31808755436799174 16.009497869018190385759 111.78564376033119743
17.009497869018204596614 289.17856482069697677 17.009497869018204596614 113.58828304753926375
18.009497869018190385759 294.74196633461895090 18.009497869018190385759 115.27149067457422404
19.009497869018204596614 300.03441894345729679 19.009497869018204596614 116.84052036898653171
20.009497869018190385759 305.07949925197544871 20.009497869018190385759 118.30317150813137062
21.009497869018190385759 309.89652335151225770 21.009497869018190385759 119.66667940108781920
22.009497869018204596614 314.50202024746909046 22.009497869018204596614 120.94292166111544873
23.009497869018190385759 318.91110128745543761 23.009497869018190385759 122.13627651151969644
24.009497869018204596614 323.13773515373208056 24.009497869018204596614 123.25942008833388286
25.009497869018204596614 327.19501880344643041 25.009497869018204596614 124.31825748945915677
26.009497869018190385759 331.09448044986544346 26.009497869018190385759 125.31899672923329092
27.009497869018204596614 334.84663585955161125 27.009497869018204596614 126.26841576339445794
28.009497869018190385759 338.46061806871398403 28.009497869018190385759 127.16875989100455513
29.009497869018190385759 341.94461902701726785 29.009497869018190385759 128.01625627882705771
30.009497869018190385759 345.30624079072970289 30.009497869018190385759 128.82797924987841043
31.009497869018218807469 348.55244714270361328 31.009497869018218807469 129.59811010843520762
32.009497869018190385759 351.68965238628032921 32.009497869018190385759 130.32977132508219142
33.009497869018190385759 354.72379287482533528 33.009497869018190385759 131.02188130317730952
34.009497869018218807469 357.66057645397279430 34.009497869018218807469 131.68882425264612834
35.009497869018190385759 360.50508828831868868 35.009497869018190385759 132.32449416979747525
36.009497869018190385759 363.26202917140562931 36.009497869018190385759 132.93717362666902204
37.009497869018190385759 365.93575364645244008 37.009497869018190385759 133.52631069043476941
38.009497869018218807469 368.53040886889203875 38.009497869018218807469 134.09451500774650867
39.009497869018190385759 371.04978908545444938 39.009497869018190385759 134.64575268406068176
40.009497869018190385759 373.49744738520757892 40.009497869018190385759 135.17829965970662442
41.009497869018218807469 375.87679588315711499 41.009497869018218807469 135.69170576823933061
42.009497869018190385759 378.19095858532568855 42.009497869018190385759 136.18411431079098861
43.009497869018190385759 380.44287161127073205 43.009497869018190385759 136.66577919209913716
44.009497869018218807469 382.63537461701355369 44.009497869018218807469 137.12026803092703631
46.009497869018190385759 386.85273926372377673 46.009497869018190385759 137.99307836051735876
48.009497869018218807469 390.86123533024323251 48.009497869018218807469 138.80261415189974628
50.009497869018190385759 394.67537357414551025 50.009497869018190385759 139.52362233785987655
52.009497869018190385759 398.30957664879912272 52.009497869018190385759 140.17777149951047022
54.009497869018218807469 401.77753823488734497 54.009497869018218807469 140.77434667789870559
56.009497869018190385759 405.09010545248384005 56.009497869018190385759 141.31962470163213652
58.009497869018218807469 408.25673251850008683 58.009497869018218807469 141.83521398981969242
60.009497869018190385759 411.28674749710182823 60.009497869018190385759 142.35612243059310345
62.009497869018190385759 414.18800742415459126 62.009497869018190385759 142.86489536062961747
64.009497869018218807469 416.96871038248855257 64.009497869018218807469 143.36144173321918061
66.009497869018190385759 419.63980737625502115 66.009497869018190385759 143.89562823023132410
68.009497869018190385759 422.21075984029903339 68.009497869018190385759 144.44080383209526985
70.009497869018190385759 424.68728225957454470 70.009497869018190385759 144.90986604109303926
72.009497869018190385759 427.07531173353373788 72.009497869018190385759 145.29490252826545316
74.009497869018218807469 429.38034701589856468 74.009497869018218807469 145.65887498584211812
76.009497869018190385759 431.60680860685835114 76.009497869018190385759 146.00281726452246289
78.009497869018190385759 433.76035827343855544 78.009497869018190385759 146.39098461470285883
80.009497869018218807469 435.84450869600976830 80.009497869018218807469 146.67891778963166871
82.009497869018190385759 437.85923789283469887 82.009497869018190385759 147.00630581514658957
84.009497869018218807469 439.80552609277651754 84.009497869018218807469 147.29164603190091043
86.009497869018190385759 441.68498065057690383 86.009497869018190385759 147.45285657710979876
88.009497869018190385759 443.50212941654626775 88.009497869018190385759 147.64778070220557993
91.009497869018218807469 446.11522957242374332 91.009497869018218807469 147.87725964714056204
94.009497869018218807469 448.60209432789628181 94.009497869018218807469 148.20891662966224089
97.009497869018218807469 450.97975237072358823 97.009497869018218807469 148.72517457247968764
99.504748934509137825444 452.88650175468239922 99.504748934509137825444 148.83178982626122888
nan nan nan nan

