Time Pressure difference Time.1 Pressure.1 difference.1
(hr) (psi) (hr) (psi)
0.000200000000020850166 0.64259316790303078 0.000200000000020850166 0.51744634494254316
0.000399999999999067768 1.23279478386586394 0.000399999999999067768 1.18552045797655214
0.000600000000019917934 1.79270657882713058 0.000600000000019917934 1.66554399564861888
0.000799999999998135536 2.32994568697402915 0.000799999999998135536 2.12577903589931827
0.001007140329434719206 2.86702175136209458 0.001007140329434719206 2.58383277459791172
0.001267914553977789183 3.51983229333259828 0.001267914553977789183 3.13486349823303723
0.001596209851982166583 4.31066087228170680 0.001596209851982166583 3.79025216193568548
0.002009509145224797066 5.26527920619008505 0.002009509145224797066 4.56587515316422987
0.002529822128153114136 6.41328055966755350 0.002529822128153114136 5.47902977633393906
0.003184857364431081805 7.78839993869190206 0.003184857364431081805 6.54836565760437672
0.004009497869034817086 9.42881554342858585 0.004009497869034817086 7.79380053053590860
0.005047658755856332391 11.37742968754355033 0.005047658755856332391 9.23644071172626546
0.006354625877790454069 13.68213293017763910 0.006354625877790454069 10.89853380052890053
0.008000000000009777068 16.39606222505538824 0.008000000000009777068 12.80348651179422603
0.010071403294361402914 19.57787187113234495 0.010071403294361402914 14.97598226766609386
0.012679145539692626699 23.29204385311133763 0.012679145539692626699 17.44222766036211425
0.015962098519750611558 27.60926953110843485 0.015962098519750611558 20.23033767822481011
0.020095091452091651263 32.60693349901077198 0.020095091452091651263 23.37083673071934342
0.025298221281360611101 38.36972054075421568 0.025298221281360611101 26.89724135893484558
0.031848573644296607199 44.99036015605437200 0.031848573644296607199 30.84677611875421377
0.040094978690191851456 52.57055238665994779 0.040094978690191851456 35.26144747105787758
0.050476587558435426217 61.22219162693545513 0.050476587558435426217 40.18966173770678552
0.063546258777947173257 71.06901589851446488 0.063546258777947173257 45.68784161922024367
0.080000000000012505552 82.24854445414341342 0.080000000000012505552 51.82012504019484567
0.100714032943542974863 94.91354577458255903 0.100714032943542974863 58.65345757887788380
0.126791455396883634421 109.23165801560844557 0.126791455396883634421 66.24663041151562481
0.159620985197506115583 125.38173554187359571 0.159620985197506115583 74.63552404410584984
0.200950914520774404082 143.54658336723468892 0.200950914520774404082 83.82043505116092774
0.252982212813464002465 163.90335693540791340 0.252982212813464002465 93.76288362744428184
0.318485736442809752589 186.61468699157870788 0.318485736442809752589 104.38961071581921658
0.400949786901833249431 211.82074526621616428 0.400949786901833249431 115.61789610114938398
0.504765875584169521062 239.64176782369898433 0.504765875584169521062 127.37039093191884831
0.635462587779443310865 270.17662652131934919 0.635462587779443310865 139.59373854215735378
0.800000000000011368684 303.51344306730766220 0.800000000000011368684 152.28348318781303306
1.007140329435344483500 339.73894975436201094 1.007140329435344483500 165.51504946482353375
1.267914553968907398485 378.96228301449519904 1.267914553968907398485 179.32304141672508990
1.596209851975117999245 421.26822923696471435 1.596209851975117999245 193.94444402596317900
2.009509145207687197399 466.84942382164865649 2.009509145207687197399 209.50791829814556877
2.529822128134725289783 515.81731778778339503 2.529822128134725289783 226.28486875290880675
3.184857364427983839050 568.44260541293078859 3.184857364427983839050 244.64447187575689213
4.009497869018204596614 624.94443251941197559 4.009497869018204596614 264.72420140433473534
5.009497869018190385759 683.51328277515005993 5.009497869018190385759 285.92111025342939001
6.009497869018190385759 734.39027549177467336 6.009497869018190385759 304.54424616234820178
7.009497869018204596614 779.57663898153725768 7.009497869018204596614 321.15362532093746495
8.009497869018190385759 820.32667795768577435 8.009497869018190385759 336.06048332748002849
9.009497869018204596614 857.48702072678736386 9.009497869018204596614 349.53941817640276213
10.009497869018190385759 891.66262159908126250 10.009497869018190385759 361.76733892405422921
11.009497869018190385759 923.30489583804569520 11.009497869018190385759 372.80713132703272095
12.009497869018204596614 952.76259567557713126 12.009497869018204596614 382.90203309316694913
13.009497869018190385759 980.31117634201996225 13.009497869018190385759 392.15637912419396116
14.009497869018204596614 1006.17601784570251766 14.009497869018204596614 400.64679168598672732
15.009497869018190385759 1030.53894200168883799 15.009497869018190385759 408.46421247550455291
16.009497869018190385759 1053.55081042944652836 16.009497869018190385759 415.68774021698919796
17.009497869018204596614 1075.34366745012425781 17.009497869018204596614 422.39106120275420153
18.009497869018190385759 1096.03181420535793222 18.009497869018190385759 428.65026185913103518
19.009497869018204596614 1115.71240637415485253 19.009497869018204596614 434.48487877471615093
20.009497869018190385759 1134.47311626600367163 20.009497869018190385759 439.92391482893879129
21.009497869018190385759 1152.38577298246332248 21.009497869018190385759 444.99427534863394840
22.009497869018204596614 1169.51184152630276003 22.009497869018204596614 449.74012860129079172
23.009497869018190385759 1185.90751517716125818 23.009497869018190385759 454.17775551253424737
24.009497869018204596614 1201.62473808249274043 24.009497869018204596614 458.35429374839310412
25.009497869018204596614 1216.71221277991548959 25.009497869018204596614 462.29170209283734039
26.009497869018190385759 1231.21280825296298644 26.009497869018190385759 466.01306575935672072
27.009497869018204596614 1245.16562858595193575 27.009497869018204596614 469.54358935392139074
28.009497869018190385759 1258.60463602175468623 28.009497869018190385759 472.89162227867063848
29.009497869018190385759 1271.56029326496900467 29.009497869018190385759 476.04313482040021199
30.009497869018190385759 1284.06086943392551802 30.009497869018190385759 479.06161980798935929
31.009497869018218807469 1296.13226015403643032 31.009497869018218807469 481.92543975387815181
32.009497869018190385759 1307.79831774811600553 32.009497869018190385759 484.64620592314116720
33.009497869018190385759 1319.08111722716421355 33.009497869018190385759 487.21989627458572159
34.009497869018218807469 1330.00188386996819645 34.009497869018218807469 489.70000014295681012
35.009497869018190385759 1340.57952744444060045 35.009497869018190385759 492.06381165305640479
36.009497869018190385759 1350.83152839063836836 36.009497869018190385759 494.34213049917178751
37.009497869018190385759 1360.77407957706782327 37.009497869018190385759 496.53290425577262113
38.009497869018218807469 1370.42260267696224219 38.009497869018218807469 498.64583719330840950
39.009497869018190385759 1379.79120703205785503 39.009497869018190385759 500.69567772990524190
40.009497869018190385759 1388.89310521165930368 40.009497869018190385759 502.67601475189599114
41.009497869018218807469 1397.74098555684849998 41.009497869018218807469 504.58517426371247439
42.009497869018190385759 1406.34646504240163267 42.009497869018190385759 506.41625191761670521
43.009497869018190385759 1414.72046196572114241 43.009497869018190385759 508.20737803468904303
44.009497869018218807469 1422.87353591348346527 44.009497869018218807469 509.89744692020059347
46.009497869018190385759 1438.55629016250532004 46.009497869018190385759 513.14309225837405393
48.009497869018218807469 1453.46234263497376560 48.009497869018218807469 516.15344396745410904
50.009497869018190385759 1467.64565324757995768 50.009497869018190385759 518.83459562000712140
52.009497869018190385759 1481.15985429142187968 52.009497869018190385759 521.26712432069041370
54.009497869018218807469 1494.05586728903995208 54.009497869018218807469 523.48555755980521553
56.009497869018190385759 1506.37402850079479322 56.009497869018190385759 525.51323644459750994
58.009497869018218807469 1518.14949451684674386 58.009497869018218807469 527.43051436041173474
60.009497869018190385759 1529.41695281389820593 60.009497869018190385759 529.36757215532247756
62.009497869018190385759 1540.20562068116350929 62.009497869018190385759 531.25950266138886491
64.009497869018218807469 1550.54598363011973561 64.009497869018218807469 533.10596731097518841
66.009497869018190385759 1560.47876422598733370 66.009497869018190385759 535.09240108124993185
68.009497869018190385759 1570.03914589964006154 68.009497869018190385759 537.11969909857066341
70.009497869018190385759 1579.24837861893752233 70.009497869018190385759 538.86396073289574815
72.009497869018190385759 1588.12854016928758938 72.009497869018190385759 540.29576308129878726
74.009497869018218807469 1596.70007829721589587 74.009497869018218807469 541.64923641921382114
76.009497869018190385759 1604.97943113978953988 76.009497869018190385759 542.92822523906841070
78.009497869018190385759 1612.98765262720235114 78.009497869018190385759 544.37167006073491393
80.009497869018218807469 1620.73780506438265547 80.009497869018218807469 545.44238260300267029
82.009497869018190385759 1628.22980670971878681 82.009497869018190385759 546.65981253338065926
84.009497869018218807469 1635.46730265668838911 84.009497869018218807469 547.72088286321593387
86.009497869018190385759 1642.45627003829235946 86.009497869018190385759 548.32036276942562836
88.009497869018190385759 1649.21354618533860048 88.009497869018190385759 549.04521049001982647
91.009497869018218807469 1658.93065888619912585 91.009497869018218807469 549.89855427226723350
94.009497869018218807469 1668.17835076910319003 94.009497869018218807469 551.13185880900368829
97.009497869018218807469 1677.01994496299380444 97.009497869018218807469 553.05162319376654523
99.504748934509137825444 1684.11041128689248580 99.504748934509137825444 553.44808424570726402
nan nan nan nan

