Time Pressure difference Time.1 Pressure.1 difference.1
(hr) (psi) (hr) (psi)
0.000200000000020850166 0.27529020464297477 0.000200000000020850166 0.22167666465524552
0.000399999999999067768 0.52813560007291960 0.000399999999999067768 0.50788303671172430
0.000600000000019917934 0.76800468103420738 0.000600000000019917934 0.71352757904387865
0.000799999999998135536 0.99816066682938620 0.000799999999998135536 0.91069462771938192
0.001007140329434719206 1.22824680384313223 0.001007140329434719206 1.10692719563682362
0.001267914553977789183 1.50791418387240528 0.001267914553977789183 1.34299158015105657
0.001596209851982166583 1.84670919790415367 0.001596209851982166583 1.62376344073612611
0.002009509145224797066 2.25567258193009446 0.002009509145224797066 1.95604430310178889
0.002529822128153114136 2.74748224209273539 0.002529822128153114136 2.34724442106040732
0.003184857364431081805 3.33659042775159476 0.003184857364431081805 2.80535338998650818
0.004009497869034817086 4.03935287541527277 0.004009497869034817086 3.33890406896066816
0.005047658755856332391 4.87414915601400089 0.005047658755856332391 3.95693851212487324
0.006354625877790454069 5.86149583039042010 0.006354625877790454069 4.66898770499957561
0.008000000000009777068 7.02415704170009647 0.008000000000009777068 5.48507920412139072
0.010071403294361402914 8.38726059205669827 0.010071403294361402914 6.41578751397103897
0.012679145539692626699 9.97843089399880334 0.012679145539692626699 7.47233967289086998
0.015962098519750611558 11.82795248829791035 0.015962098519750611558 8.66678028589840466
0.020095091452091651263 13.96897733135735109 0.020095091452091651263 10.01218616636172065
0.025298221281360611101 16.43778481839062877 0.025298221281360611101 11.52291597216300723
0.031848573644296607199 19.27410074205821644 0.031848573644296607199 13.21491689371542577
0.040094978690191851456 22.52149392117679128 0.040094978690191851456 15.10618471402712082
0.050476587558435426217 26.22790048744149871 0.050476587558435426217 17.21745694933189341
0.063546258777947173257 30.44633044313541959 0.063546258777947173257 19.57290537354255022
0.080000000000012505552 35.23569774054107029 0.080000000000012505552 22.20000700208580113
0.100714032943542974863 40.66144917933222303 0.100714032943542974863 25.12744166359378184
0.126791455396883634421 46.79540180412562478 0.126791455396883634421 28.38039579911263033
0.159620985197506115583 53.71417774087250763 0.159620985197506115583 31.97424080120018175
0.200950914520774404082 61.49609159387935620 0.200950914520774404082 35.90910372389664929
0.252982212813464002465 70.21703766266602997 0.252982212813464002465 40.16849962153608544
0.318485736442809752589 79.94668779150288174 0.318485736442809752589 44.72104393879100570
0.400949786901833249431 90.74509226771542103 0.400949786901833249431 49.53129891178460298
0.504765875584169521062 102.66376083716090761 0.504765875584169521062 54.56612789632845306
0.635462587779443310865 115.74505070994823086 0.635462587779443310865 59.80267262341548218
0.800000000000011368684 130.02671367726335916 0.800000000000011368684 65.23902422947053026
1.007140329435344483500 145.54590629756134490 1.007140329435344483500 70.90749499773579601
1.267914553968907398485 162.34938317733903546 1.267914553968907398485 76.82290947771225831
1.596209851975117999245 180.47346724005006990 1.596209851975117999245 83.08679324977235581
2.009509145207687197399 200.00068447772608238 2.009509145207687197399 89.75426534775037624
2.529822128134725289783 220.97878107788628199 2.529822128134725289783 96.94159685805638560
3.184857364427983839050 243.52372385559783652 3.184857364427983839050 104.80694487808909798
4.009497869018204596614 267.72939600365964452 4.009497869018204596614 113.40920386122839147
5.009497869018190385759 292.82059145664169364 5.009497869018190385759 122.49006818773224836
6.009497869018190385759 314.61655574036450389 6.009497869018190385759 130.46831500319458996
7.009497869018204596614 333.97462531455840917 7.009497869018204596614 137.58385811188006187
8.009497869018190385759 351.43215074322273495 8.009497869018190385759 143.97003243831508712
9.009497869018204596614 367.35183192952007403 9.009497869018204596614 149.74447716986753676
10.009497869018190385759 381.99283439867508605 10.009497869018190385759 154.98298105244697354
11.009497869018190385759 395.54854676181702189 11.009497869018190385759 159.71248466629575091
12.009497869018204596614 408.16837626148122808 12.009497869018204596614 164.03719229136837043
13.009497869018190385759 419.97032932929380422 13.009497869018190385759 168.00180153399693950
14.009497869018204596614 431.05095991527178967 14.009497869018204596614 171.63913776535866873
15.009497869018190385759 441.48816141632306653 15.009497869018190385759 174.98816087425572618
16.009497869018190385759 451.34656372297587268 16.009497869018190385759 178.08275715931549144
17.009497869018204596614 460.68273529877268402 17.009497869018204596614 180.95449420560365184
18.009497869018190385759 469.54564333826743905 18.009497869018190385759 183.63596782789315398
19.009497869018204596614 477.97690983200124037 19.009497869018204596614 186.13554760080970141
20.009497869018190385759 486.01409404643703738 20.009497869018190385759 188.46565850646038598
21.009497869018190385759 493.68796793660817457 21.009497869018190385759 190.63782692467668767
22.009497869018204596614 501.02486342453954649 22.009497869018204596614 192.67097476749125917
23.009497869018190385759 508.04885399906328303 23.009497869018190385759 194.57207686683656789
24.009497869018204596614 514.78219279901907157 24.009497869018204596614 196.36132724028948360
25.009497869018204596614 521.24574424098830150 25.009497869018204596614 198.04813314338085206
26.009497869018190385759 527.45787361710176810 26.009497869018190385759 199.64238439981755846
27.009497869018204596614 533.43533331738103698 27.009497869018204596614 201.15487879190109766
28.009497869018190385759 539.19267294063524787 28.009497869018190385759 202.58919324627566994
29.009497869018190385759 544.74294286555141298 29.009497869018190385759 203.93931736194096516
30.009497869018190385759 550.09825372722298198 30.009497869018190385759 205.23245179201407495
31.009497869018218807469 555.26969934422049846 31.009497869018218807469 206.45932692599203051
32.009497869018190385759 560.26749817381448793 32.009497869018190385759 207.62491708930843970
33.009497869018190385759 565.10110726379105017 33.009497869018190385759 208.72749921891451663
34.009497869018218807469 569.77961963230302445 34.009497869018218807469 209.78998841979989720
35.009497869018190385759 574.31113632078483988 35.009497869018190385759 210.80265737872494469
36.009497869018190385759 578.70314603929557506 36.009497869018190385759 211.77870084248570492
37.009497869018190385759 582.96258589564718022 37.009497869018190385759 212.71723954147185509
38.009497869018218807469 587.09606261364615420 38.009497869018218807469 213.62243083485154216
39.009497869018190385759 591.10962070756374942 39.009497869018190385759 214.50059302049490384
40.009497869018190385759 595.00892050976790415 40.009497869018190385759 215.34897954446768154
41.009497869018218807469 598.79939777057063566 41.009497869018218807469 216.16687325849383683
42.009497869018190385759 602.48602926147123071 42.009497869018190385759 216.95131630463674810
43.009497869018190385759 606.07349243700275565 43.009497869018190385759 217.71864390775968445
44.009497869018218807469 609.56631107818611781 44.009497869018218807469 218.44267807524306590
46.009497869018190385759 616.28488332922233894 46.009497869018190385759 219.83312916307525597
48.009497869018218807469 622.67071256073381846 48.009497869018218807469 221.12277925497448905
50.009497869018190385759 628.74691547742656894 50.009497869018190385759 222.27139835641744980
52.009497869018190385759 634.53646842752414159 52.009497869018190385759 223.31350611177421683
54.009497869018218807469 640.06118645211483908 54.009497869018218807469 224.26389427474774152
56.009497869018190385759 645.33834981174913992 56.009497869018190385759 225.13256229524083096
58.009497869018218807469 650.38301976973173169 58.009497869018218807469 225.95393397512398792
60.009497869018190385759 655.21005661875960868 60.009497869018190385759 226.78377945652928815
62.009497869018190385759 659.83197719519000657 62.009497869018190385759 227.59429217624114017
64.009497869018218807469 664.26184164829339807 64.009497869018218807469 228.38532709014998545
66.009497869018190385759 668.51709573360108152 66.009497869018190385759 229.23632549231660960
68.009497869018190385759 672.61281221311696754 68.009497869018190385759 230.10483034723404216
70.009497869018190385759 676.55809468191966971 70.009497869018190385759 230.85208096589715865
72.009497869018190385759 680.36240137636536929 72.009497869018190385759 231.46547242598134630
74.009497869018218807469 684.03449221580376616 74.009497869018218807469 232.04530733675278498
76.009497869018190385759 687.58140938235442263 76.009497869018190385759 232.59323269846004223
78.009497869018190385759 691.01217248755574474 78.009497869018190385759 233.21161185372577052
80.009497869018218807469 694.33237748974715942 80.009497869018218807469 233.67031059127469916
82.009497869018190385759 697.54198937040337114 82.009497869018190385759 234.19186380941104630
84.009497869018218807469 700.64256970624137466 84.009497869018218807469 234.64643177376422045
86.009497869018190385759 703.63667913165500067 86.009497869018190385759 234.90325203626147754
88.009497869018190385759 706.53153084540701911 88.009497869018190385759 235.21378051260455777
91.009497869018218807469 710.69439169979193593 91.009497869018218807469 235.57935735994684023
94.009497869018218807469 714.65615027128058045 94.009497869018218807469 236.10771134076060207
97.009497869018218807469 718.44393451266796546 97.009497869018218807469 236.93014823667763835
99.504748934509137825444 721.48152660486198329 99.504748934509137825444 237.09999418209579858
nan nan nan nan

