Time Pressure difference Time.1 Pressure.1 difference.1
(hr) (psi) (hr) (psi)
0.000200000000020850166 0.28501513035047116 0.000200000000020850166 0.22950763378708844
0.000399999999999067768 0.54679256420593036 0.000399999999999067768 0.52582455703034503
0.000600000000019917934 0.79513528117943755 0.000600000000019917934 0.73873371634705920
0.000799999999998135536 1.03342177734238083 0.000799999999998135536 0.94286590532903403
0.001007140329434719206 1.27163595723976464 0.001007140329434719206 1.14603060200442863
0.001267914553977789183 1.56118289145485423 0.001267914553977789183 1.39043421749334950
0.001596209851982166583 1.91194620761272449 0.001596209851982166583 1.68112464924039151
0.002009509145224797066 2.33535666770479855 0.002009509145224797066 2.02514369424397156
0.002529822128153114136 2.84454003868840255 0.002529822128153114136 2.43016338158699785
0.003184857364431081805 3.45445911134064554 0.003184857364431081805 2.90445554778494452
0.004009497869034817086 4.18204740634026972 0.004009497869034817086 3.45685448444025756
0.005047658755856332391 5.04633377293840812 0.005047658755856332391 4.09672166608580568
0.006354625877790454069 6.06855954179008172 0.006354625877790454069 4.83392477066532145
0.008000000000009777068 7.27229302415145806 0.008000000000009777068 5.67884558904959214
0.010071403294361402914 8.68354968905869917 0.010071403294361402914 6.64243218158414628
0.012679145539692626699 10.33092981144984890 0.012679145539692626699 7.73630819394408054
0.015962098519750611558 12.24578776641712885 0.015962098519750611558 8.97294371991111994
0.020095091452091651263 14.46244663925856067 0.020095091452091651263 10.36587752549949926
0.025298221281360611101 17.01846743425769048 0.025298221281360611101 11.92997550378833083
0.031848573644296607199 19.95497930088092531 0.031848573644296607199 13.68174819702602463
0.040094978690191851456 23.31709017382705795 0.040094978690191851456 15.63982710881612093
0.050476587558435426217 27.15442958074785196 0.050476587558435426217 17.82568233069416053
0.063546258777947173257 31.52188015987661274 0.063546258777947173257 20.26433953076008265
0.080000000000012505552 36.48043706289713839 0.080000000000012505552 22.98424637987687547
0.100714032943542974863 42.09785906881950268 0.100714032943542974863 26.01509585279682568
0.126791455396883634421 48.44850023742354495 0.126791455396883634421 29.38296412897258492
0.159620985197506115583 55.61168945454463852 0.159620985197506115583 33.10376561211214153
0.200950914520774404082 63.66850787301096659 0.200950914520774404082 37.17763184457778181
0.252982212813464002465 72.69753084096672069 0.252982212813464002465 41.58749553207947258
0.318485736442809752589 82.77089143631138768 0.318485736442809752589 46.30086342575916802
0.400949786901833249431 93.95076128804234372 0.400949786901833249431 51.28104588421177112
0.504765875584169521062 106.29046977977800736 0.504765875584169521062 56.49373567527482720
0.635462587779443310865 119.83387043611489275 0.635462587779443310865 61.91526703674266230
0.800000000000011368684 134.62004867129712693 0.800000000000011368684 67.54366367235944324
1.007140329435344483500 150.68747363959479912 1.007140329435344483500 73.41237933189495379
1.267914553968907398485 168.08455160479940105 1.267914553968907398485 79.53676225817493162
1.596209851975117999245 186.84888863711705653 1.596209851975117999245 86.02192453305237052
2.009509145207687197399 207.06592604895010368 2.009509145207687197399 92.92493233014374709
2.529822128134725289783 228.78509671378986923 2.529822128134725289783 100.36616413836816264
3.184857364427983839050 252.12646410049663359 3.184857364427983839050 108.50936412649986096
4.009497869018204596614 277.18722792770194019 4.009497869018204596614 117.41550725850004255
5.009497869018190385759 303.16479713309917088 5.009497869018190385759 126.81716298784236585
6.009497869018190385759 325.73072754640998028 6.009497869018190385759 135.07725004406830749
7.009497869018204596614 345.77264196969235854 7.009497869018204596614 142.44415744735408680
8.009497869018190385759 363.84687345969530270 8.009497869018190385759 149.05593032336426518
9.009497869018204596614 380.32893468789990266 9.009497869018204596614 155.03436359162915892
10.009497869018190385759 395.48714648341086786 10.009497869018190385759 160.45792331788666729
11.009497869018190385759 409.52172912025076812 11.009497869018190385759 165.35450178765944429
12.009497869018204596614 422.58736781419662520 12.009497869018204596614 169.83198441035690962
13.009497869018190385759 434.80623770233950154 13.009497869018190385759 173.93664778383924840
14.009497869018204596614 446.27830360793086584 14.009497869018204596614 177.70247687120016167
15.009497869018190385759 457.08421059679102427 15.009497869018190385759 181.16980786166152484
16.009497869018190385759 467.29087168058100588 16.009497869018190385759 184.37372412418261547
17.009497869018204596614 476.95685366530545934 17.009497869018204596614 187.34690840308422821
18.009497869018190385759 486.13285356489097921 18.009497869018190385759 190.12310799572634323
19.009497869018204596614 494.86196371193608456 19.009497869018204596614 192.71098814105567953
20.009497869018190385759 503.18307019481659381 20.009497869018190385759 195.12341274717772421
21.009497869018190385759 511.12803202132539582 21.009497869018190385759 197.37231537582016472
22.009497869018204596614 518.72411131725425548 22.009497869018204596614 199.47728637612547686
23.009497869018190385759 525.99623199359530190 23.009497869018190385759 201.44554697354544714
24.009497869018204596614 532.96743330550611972 24.009497869018204596614 203.29800456127796338
25.009497869018204596614 539.65931672776230243 25.009497869018204596614 205.04439871638069803
26.009497869018190385759 546.09089632640143464 26.009497869018190385759 206.69496863133284137
27.009497869018204596614 552.27951628783193883 27.009497869018204596614 208.26089353183240860
28.009497869018190385759 558.24024019125556606 28.009497869018190385759 209.74587670334517497
29.009497869018190385759 563.98657943417140359 29.009497869018190385759 211.14369542092256893
30.009497869018190385759 569.53107247302159521 30.009497869018190385759 212.48251123031889165
31.009497869018218807469 574.88520502757603481 31.009497869018218807469 213.75272706196457762
32.009497869018190385759 580.05955653321564114 32.009497869018190385759 214.95949296474594803
33.009497869018190385759 585.06391811821833926 33.009497869018190385759 216.10102500653920288
34.009497869018218807469 589.90770402148757512 34.009497869018218807469 217.20104779332541511
35.009497869018190385759 594.59930146255157979 35.009497869018190385759 218.24949038395166667
36.009497869018190385759 599.14646369829245032 36.009497869018190385759 219.26001364398655369
37.009497869018190385759 603.55637289739559037 37.009497869018190385759 220.23170724266518050
38.009497869018218807469 607.83586917336742772 38.009497869018218807469 221.16887540238707288
39.009497869018190385759 611.99121056951582887 39.009497869018190385759 222.07805962176237813
40.009497869018190385759 616.02825737560215202 40.009497869018190385759 222.95641632185376579
41.009497869018218807469 619.95263736572678681 41.009497869018218807469 223.80320302034280644
42.009497869018190385759 623.76950312125143228 42.009497869018190385759 224.61535736974619226
43.009497869018190385759 627.48369733287518102 43.009497869018190385759 225.40979165450119126
44.009497869018218807469 631.09990358910033592 44.009497869018218807469 226.15940311594462742
46.009497869018190385759 638.05581670770027358 46.009497869018190385759 227.59897339981432651
48.009497869018218807469 644.66723229793365135 48.009497869018218807469 228.93418178300348131
50.009497869018190385759 650.95808368722691739 50.009497869018190385759 230.12337710270392677
52.009497869018190385759 656.95215888827908657 52.009497869018190385759 231.20229844724451596
54.009497869018218807469 662.67204358221681559 54.009497869018218807469 232.18626010510570268
56.009497869018190385759 668.13562847357718510 56.009497869018190385759 233.08561476762704956
58.009497869018218807469 673.35850688116249785 58.009497869018218807469 233.93600229489740627
60.009497869018190385759 678.35606405366138461 60.009497869018190385759 234.79516296993926971
62.009497869018190385759 683.14125899828093225 62.009497869018190385759 235.63430793246701000
64.009497869018218807469 687.72761322826033847 64.009497869018218807469 236.45328701453027520
66.009497869018190385759 692.13318878940765444 66.009497869018190385759 237.33434786025168250
68.009497869018190385759 696.37359090542827289 68.009497869018190385759 238.23353359319608558
70.009497869018190385759 700.45824476579184648 70.009497869018190385759 239.00718165219242906
72.009497869018190385759 704.39694272933490993 72.009497869018190385759 239.64224183233395138
74.009497869018218807469 708.19875416907939325 74.009497869018218807469 240.24256004158374367
76.009497869018190385759 711.87097003988321831 76.009497869018190385759 240.80984146226433040
78.009497869018190385759 715.42292858086614160 78.009497869018190385759 241.45006553334107480
80.009497869018218807469 718.86042343367842022 80.009497869018218807469 241.92496830237951144
82.009497869018190385759 722.18341834272735014 82.009497869018190385759 242.46494595485216905
84.009497869018218807469 725.39353004912493361 84.009497869018218807469 242.93557202664175065
86.009497869018190385759 728.49340964445786994 86.009497869018190385759 243.20146474406419657
88.009497869018190385759 731.49052514157619953 88.009497869018190385759 243.52296297636505074
91.009497869018218807469 735.80044358049121911 91.009497869018218807469 243.90145422320583179
94.009497869018218807469 739.90215557977694516 94.009497869018218807469 244.44847288268965713
97.009497869018218807469 743.82374741664807516 97.009497869018218807469 245.29996325590806805
99.504748934509137825444 746.96864575122947372 99.504748934509137825444 245.47580919396332888
nan nan nan nan

