Time Pressure difference Time.1 Pressure.1 difference.1
(hr) (psi) (hr) (psi)
0.000200000000020850166 0.35533382392775276 0.000200000000020850166 0.28613156443272181
0.000399999999999067768 0.68169676639846954 0.000399999999999067768 0.65555555010344846
0.000600000000019917934 0.99131038992187104 0.000600000000019917934 0.92099347838544121
0.000799999999998135536 1.28838673028249562 0.000799999999998135536 1.17548898958344128
0.001007140329434719206 1.58537291256926061 0.001007140329434719206 1.42877830958557395
0.001267914553977789183 1.94635662320487079 0.001267914553977789183 1.73348097981454319
0.001596209851982166583 2.38365997012085051 0.001596209851982166583 2.09589031073277177
0.002009509145224797066 2.91153390330650774 0.002009509145224797066 2.52478544557975448
0.002529822128153114136 3.54634256791861224 0.002529822128153114136 3.02973125001003663
0.003184857364431081805 4.30674036190762877 0.003184857364431081805 3.62104038109671578
0.004009497869034817086 5.21383862995177960 0.004009497869034817086 4.30972671944651520
0.005047658755856332391 6.29136100300720269 0.005047658755856332391 5.10746139472639893
0.006354625877790454069 7.56578945498763478 0.006354625877790454069 6.02654663009456115
0.008000000000009777068 9.06650705110746102 0.008000000000009777068 7.07992560314581709
0.010071403294361402914 10.82594777507318184 0.010071403294361402914 8.28124747047892207
0.012679145539692626699 12.87976813763432382 0.012679145539692626699 9.64500365386729008
0.015962098519750611558 15.26705823897148484 0.015962098519750611558 11.18674085815690944
0.020095091452091651263 18.03060932715962394 0.020095091452091651263 12.92333812234189416
0.025298221281360611101 21.21724942591181673 0.025298221281360611101 14.87332904015605628
0.031848573644296607199 24.87825503390666526 0.031848573644296607199 17.05729762096420288
0.040094978690191851456 29.06986307760590904 0.040094978690191851456 19.49847211729044361
0.050476587558435426217 33.85394764003997636 0.050476587558435426217 22.22361970362132766
0.063546258777947173257 39.29893195785142268 0.063546258777947173257 25.26394035987149778
0.080000000000012505552 45.48085985531795927 0.080000000000012505552 28.65490034236618300
0.100714032943542974863 52.48420750049675831 0.100714032943542974863 32.43351845164958291
0.126791455396883634421 60.40167352434692560 0.126791455396883634421 36.63230436026766768
0.159620985197506115583 69.33215876878925599 0.159620985197506115583 41.27109886024479835
0.200950914520774404082 79.37674866057797374 0.200950914520774404082 46.35006594796443125
0.252982212813464002465 90.63340459175641683 0.252982212813464002465 51.84792750062401723
0.318485736442809752589 103.19205625261919579 0.318485736442809752589 57.72417356229816932
0.400949786901833249431 117.13021420425225472 0.400949786901833249431 63.93306245406979116
0.504765875584169521062 132.51436521100933419 0.504765875584169521062 70.43182269227177983
0.635462587779443310865 149.39918230224299123 0.635462587779443310865 77.19094971772379665
0.800000000000011368684 167.83339401277200409 0.800000000000011368684 84.20797964401766933
1.007140329435344483500 187.86496057429795314 1.007140329435344483500 91.52461990196876229
1.267914553968907398485 209.55423100335883646 1.267914553968907398485 99.16000543998185890
1.596209851975117999245 232.94808950821681037 1.596209851975117999245 107.24518150446161258
2.009509145207687197399 258.15305741010837437 2.009509145207687197399 115.85129358744953265
2.529822128134725289783 285.23076361955429547 2.529822128134725289783 125.12841985754560881
3.184857364427983839050 314.33089356361131195 3.184857364427983839050 135.28070330731608806
4.009497869018204596614 345.57462799385416474 4.009497869018204596614 146.38416259261816776
5.009497869018190385759 377.96136125517608662 5.009497869018190385759 158.10538692710005648
6.009497869018190385759 406.09473906704653245 6.009497869018190385759 168.40339572423212644
7.009497869018204596614 431.08137778373713900 7.009497869018204596614 177.58786033462780551
8.009497869018190385759 453.61486848649673220 8.009497869018190385759 185.83088426141210903
9.009497869018204596614 474.16337001772296844 9.009497869018204596614 193.28431156436707283
10.009497869018190385759 493.06140309611595285 10.009497869018190385759 200.04596739106608538
11.009497869018190385759 510.55858617354101625 11.009497869018190385759 206.15062558828935835
12.009497869018204596614 526.84776827229234186 12.009497869018204596614 211.73278896304341856
13.009497869018190385759 542.08126747666995016 13.009497869018190385759 216.85015143654499070
14.009497869018204596614 556.38371184715788331 14.009497869018204596614 221.54508271343851789
15.009497869018190385759 569.85564313248221424 15.009497869018190385759 225.86787069367250069
16.009497869018190385759 582.58048306634111668 16.009497869018190385759 229.86225448552951889
17.009497869018204596614 594.63124800792672886 17.009497869018204596614 233.56898029255907545
18.009497869018190385759 606.07114289586138511 18.009497869018190385759 237.03012151698166576
19.009497869018204596614 616.95389176684932409 19.009497869018204596614 240.25648127821904154
20.009497869018190385759 627.32797465233034018 20.009497869018190385759 243.26409725698010789
21.009497869018190385759 637.23311078774156613 21.009497869018190385759 246.06784725331908703
22.009497869018204596614 646.70328838765294677 22.009497869018204596614 248.69215493086511515
23.009497869018190385759 655.76958056944306463 23.009497869018190385759 251.14602312974830056
24.009497869018204596614 664.46071081395132296 24.009497869018204596614 253.45551749765624550
25.009497869018204596614 672.80361009366686176 25.009497869018204596614 255.63278055191821636
26.009497869018190385759 680.82198360903078083 26.009497869018190385759 257.69057768998186475
27.009497869018204596614 688.53745468955435172 27.009497869018204596614 259.64284626672019840
28.009497869018190385759 695.96880338804817256 28.009497869018190385759 261.49420323907867214
29.009497869018190385759 703.13287462265464001 29.009497869018190385759 263.23689061663577604
30.009497869018190385759 710.04530032725801902 30.009497869018190385759 264.90601793806160913
31.009497869018218807469 716.72039996876287660 31.009497869018218807469 266.48962035284301919
32.009497869018190385759 723.17136313196169795 32.009497869018190385759 267.99411852560189118
33.009497869018190385759 729.41039660407807332 33.009497869018190385759 269.41728839397927686
34.009497869018218807469 735.44923729713025295 34.009497869018218807469 270.78870787881777460
35.009497869018190385759 741.29834171840423096 35.009497869018190385759 272.09582134482161564
36.009497869018190385759 746.96737600180802019 36.009497869018190385759 273.35566005483889285
37.009497869018190385759 752.46529429465329031 37.009497869018190385759 274.56708908206286424
38.009497869018218807469 757.80062429750523734 38.009497869018218807469 275.73547458302851965
39.009497869018190385759 762.98116803286086451 39.009497869018190385759 276.86897196938878096
40.009497869018190385759 768.01423163624929202 40.009497869018190385759 277.96403609679936153
41.009497869018218807469 772.90683136147038113 41.009497869018218807469 279.01974129832768767
42.009497869018190385759 777.66539103043157866 42.009497869018190385759 280.03226968669144981
43.009497869018190385759 782.29594811841388946 43.009497869018190385759 281.02270613093986640
44.009497869018218807469 786.80434174494132549 44.009497869018218807469 281.95726110255560570
46.009497869018190385759 795.47641190592560179 46.009497869018190385759 283.75200095777375964
48.009497869018218807469 803.71899039768629791 48.009497869018218807469 285.41663083182845639
50.009497869018190385759 811.56191535809136894 50.009497869018190385759 286.89922342200623007
52.009497869018190385759 819.03484375835319042 52.009497869018190385759 288.24433533449121114
54.009497869018218807469 826.16593359987655276 54.009497869018218807469 289.47105918615540077
56.009497869018190385759 832.97748956679572530 56.009497869018190385759 290.59230187565054848
58.009497869018218807469 839.48895214843093981 58.009497869018218807469 291.65249629941274634
60.009497869018190385759 845.71950242910543238 60.009497869018190385759 292.72362837459621687
62.009497869018190385759 851.68529665140010820 62.009497869018190385759 293.76980647748513320
64.009497869018218807469 857.40319234494393186 64.009497869018218807469 294.79084339081862254
66.009497869018190385759 862.89570780831661523 66.009497869018190385759 295.88927882839772110
68.009497869018190385759 868.18229837290925843 68.009497869018190385759 297.01031091015261154
70.009497869018190385759 873.27471460302126616 70.009497869018190385759 297.97483276848134892
72.009497869018190385759 878.18516482003690271 72.009497869018190385759 298.76657446288351139
74.009497869018218807469 882.92495598507287013 74.009497869018218807469 299.51500267651516651
76.009497869018190385759 887.50317787124561164 76.009497869018190385759 300.22224329284921396
78.009497869018190385759 891.93147264018750775 78.009497869018190385759 301.02042290902102195
80.009497869018218807469 896.21706333595079741 80.009497869018218807469 301.61249329036814970
82.009497869018190385759 900.35990475799337673 82.009497869018190385759 302.28569377573433030
84.009497869018218807469 904.36201252843659404 84.009497869018218807469 302.87243231667935106
86.009497869018190385759 908.22669181395679061 86.009497869018190385759 303.20392586202223129
88.009497869018190385759 911.96325312926171591 88.009497869018190385759 303.60474386817162440
91.009497869018218807469 917.33651102554676982 91.009497869018218807469 304.07661615754011564
94.009497869018218807469 922.45019396428881464 94.009497869018218807469 304.75859480125348000
97.009497869018218807469 927.33931764542739984 97.009497869018218807469 305.82016416418991867
99.504748934509137825444 931.26012265573217519 99.504748934509137825444 306.03939466438993122
nan nan nan nan

