Time Pressure difference Time.1 Pressure.1 difference.1
(hr) (psi) (hr) (psi)
0.000200000000020850166 0.16831602186051448 0.000200000000020850166 0.13553600420497350
0.000399999999999067768 0.32290899460980138 0.000399999999999067768 0.31052631320689666
0.000600000000019917934 0.46956807943667567 0.000600000000019917934 0.43626006870889317
0.000799999999998135536 0.61028845118644537 0.000799999999998135536 0.55681057401320910
0.001007140329434719206 0.75096611648017608 0.001007140329434719206 0.67678972559316664
0.001267914553977789183 0.92195840046546518 0.001267914553977789183 0.82112256938583628
0.001596209851982166583 1.12910209110987680 0.001596209851982166583 0.99279014718920766
0.002009509145224797066 1.37914763840834587 0.002009509145224797066 1.19595100053777847
0.002529822128153114136 1.67984647954039534 0.002529822128153114136 1.43513585526791188
0.003184857364431081805 2.04003490827203482 0.003184857364431081805 1.71522965420370754
0.004009497869034817086 2.46971303524031649 0.004009497869034817086 2.04144949868519099
0.005047658755856332391 2.98011836984551692 0.005047658755856332391 2.41932381855461021
0.006354625877790454069 3.58379500499414272 0.006354625877790454069 2.85467998267637091
0.008000000000009777068 4.29466123473511363 0.008000000000009777068 3.35364896991117689
0.010071403294361402914 5.12808052503466527 0.010071403294361402914 3.92269617022685813
0.012679145539692626699 6.10094280203731110 0.012679145539692626699 4.56868594130555916
0.015962098519750611558 7.23176442898649352 0.015962098519750611558 5.29898251175853652
0.020095091452091651263 8.54081494444403155 0.020095091452091651263 6.12158121584616044
0.025298221281360611101 10.05027604385296591 0.025298221281360611101 7.04526112428444762
0.031848573644296607199 11.78443659500842067 0.031848573644296607199 8.07977255729883304
0.040094978690191851456 13.76993514202385249 0.040094978690191851456 9.23611837134810365
0.050476587558435426217 16.03608046107156682 0.050476587558435426217 10.52697775434694627
0.063546258777947173257 18.61528355898225229 0.063546258777947173257 11.96712964414965441
0.080000000000012505552 21.54356519462429631 0.080000000000012505552 13.57337384638398170
0.100714032943542974863 24.86094039497215036 0.100714032943542974863 15.36324558236032978
0.126791455396883634421 28.61131903784854913 0.126791455396883634421 17.35214417065310144
0.159620985197506115583 32.84154889047911752 0.159620985197506115583 19.54946788116858869
0.200950914520774404082 37.59951252343167027 0.200950914520774404082 21.95529439640420577
0.252982212813464002465 42.93161270135830421 0.252982212813464002465 24.55954460555874519
0.318485736442809752589 48.88044769860909611 0.318485736442809752589 27.34302958214123791
0.400949786901833249431 55.48273304411948459 0.400949786901833249431 30.28408221508569298
0.504765875584169521062 62.76996246837284588 0.504765875584169521062 33.36244232791820963
0.635462587779443310865 70.76803372211509213 0.635462587779443310865 36.56413407681653638
0.800000000000011368684 79.50002874289199895 0.800000000000011368684 39.88799035769258694
1.007140329435344483500 88.98866553519377476 1.007140329435344483500 43.35376732198520955
1.267914553968907398485 99.26253047527524132 1.267914553968907398485 46.97052889262298692
1.596209851975117999245 110.34383187231323120 1.596209851975117999245 50.80034913369234317
2.009509145207687197399 122.28302719426186229 2.009509145207687197399 54.87692854142346732
2.529822128134725289783 135.10930908294676556 2.529822128134725289783 59.27135677462686658
3.184857364427983839050 148.89358116171064239 3.184857364427983839050 64.08033314557077631
4.009497869018204596614 163.69324483919405111 4.009497869018204596614 69.33986649124018697
5.009497869018190385759 179.03432901560972823 5.009497869018190385759 74.89202538652108387
6.009497869018190385759 192.36066587386417837 6.009497869018190385759 79.77002955358364034
7.009497869018204596614 204.19644210808601770 7.009497869018204596614 84.12056542166581607
8.009497869018190385759 214.87020086202477387 8.009497869018190385759 88.02515570277415691
9.009497869018204596614 224.60370158734247070 9.009497869018204596614 91.55572653048966458
10.009497869018190385759 233.55540146658125877 10.009497869018190385759 94.75861613261024274
11.009497869018190385759 241.84354081904572809 11.009497869018190385759 97.65029633129495323
12.009497869018204596614 249.55946918161217241 12.009497869018204596614 100.29447898249425464
13.009497869018190385759 256.77533722579107689 13.009497869018190385759 102.71849278573182573
14.009497869018204596614 263.55017929602217919 14.009497869018204596614 104.94240760110245958
15.009497869018190385759 269.93162043117575877 15.009497869018190385759 106.99004401279222520
16.009497869018190385759 275.95917618931952120 16.009497869018190385759 108.88212054577714127
17.009497869018204596614 281.66743326691266702 17.009497869018204596614 110.63793803331745380
18.009497869018190385759 287.08633084540804248 18.009497869018190385759 112.27742598172815747
19.009497869018204596614 292.24131715271812482 19.009497869018204596614 113.80570165810375727
20.009497869018190385759 297.15535641426174607 20.009497869018190385759 115.23036185856952329
21.009497869018190385759 301.84726300471965033 21.009497869018190385759 116.55845396209853959
22.009497869018204596614 306.33313660467769068 22.009497869018204596614 117.80154707251504931
23.009497869018190385759 310.62769605920988170 23.009497869018190385759 118.96390569303866869
24.009497869018204596614 314.74454722766108716 24.009497869018204596614 120.05787670941612078
25.009497869018204596614 318.69644688647377961 25.009497869018204596614 121.08921184038230479
26.009497869018190385759 322.49462381480401518 26.009497869018190385759 122.06395785314933278
27.009497869018204596614 326.14932064242049137 27.009497869018204596614 122.98871665265693309
28.009497869018190385759 329.66943318381231620 28.009497869018190385759 123.86567521851094398
29.009497869018190385759 333.06294061073117518 29.009497869018190385759 124.69115871314325261
30.009497869018190385759 336.33724752343800901 30.009497869018190385759 125.48179797066076446
31.009497869018218807469 339.49913682730868913 31.009497869018218807469 126.23192543029404078
32.009497869018190385759 342.55485622040293947 32.009497869018190385759 126.94458245949564912
33.009497869018190385759 345.51018786508956282 33.009497869018190385759 127.61871555504282583
34.009497869018218807469 348.37069135127222808 34.009497869018218807469 128.26833531101897279
35.009497869018190385759 351.14131976134939350 35.009497869018190385759 128.88749432123131555
36.009497869018190385759 353.82665179033017466 36.009497869018190385759 129.48426002597631168
37.009497869018190385759 356.43092887641472544 37.009497869018190385759 130.05809482834558821
38.009497869018218807469 358.95819045671305503 38.009497869018218807469 130.61154059196087474
39.009497869018190385759 361.41213222609201239 39.009497869018190385759 131.14846040655257298
40.009497869018190385759 363.79621498559180282 40.009497869018190385759 131.66717499322072626
41.009497869018218807469 366.11376222385439405 41.009497869018218807469 132.16724587815519953
42.009497869018190385759 368.36781680388867244 42.009497869018190385759 132.64686458843280548
43.009497869018190385759 370.56123858240658819 43.009497869018190385759 133.11601869360308115
44.009497869018218807469 372.69679345813005966 44.009497869018218807469 133.55870262752634403
46.009497869018190385759 376.80461616596471686 46.009497869018190385759 134.40884255894548005
48.009497869018218807469 380.70899545153559984 48.009497869018218807469 135.19735144665560256
50.009497869018190385759 384.42406516962222440 50.009497869018190385759 135.89963214726611795
52.009497869018190385759 387.96387335921991735 52.009497869018190385759 136.53679042160109702
54.009497869018218807469 391.34175802099412067 54.009497869018218807469 137.11787014081045299
56.009497869018190385759 394.56828453164007442 56.009497869018190385759 137.64898509899234114
58.009497869018218807469 397.65266154399364495 58.009497869018218807469 138.15118245761658500
60.009497869018190385759 400.60397483483944825 60.009497869018190385759 138.65856080901926362
62.009497869018190385759 403.42987736118953990 62.009497869018190385759 139.15411885775611722
64.009497869018218807469 406.13835426865767886 64.009497869018218807469 139.63776792196668453
66.009497869018190385759 408.74007211972894993 66.009497869018190385759 140.15807944503052340
68.009497869018190385759 411.24424659769385926 68.009497869018190385759 140.68909464165122358
70.009497869018190385759 413.65644375932589583 70.009497869018190385759 141.14597341664907049
72.009497869018190385759 415.98244649370167281 72.009497869018190385759 141.52100895610271891
74.009497869018218807469 418.22761072977135655 74.009497869018218807469 141.87552758361243832
76.009497869018190385759 420.39624214953738601 76.009497869018190385759 142.21053629661278705
78.009497869018190385759 422.49385546114143608 78.009497869018190385759 142.58862137795733815
80.009497869018218807469 424.52387210650300631 80.009497869018218807469 142.86907576912173568
82.009497869018190385759 426.48627067483897690 82.009497869018190385759 143.18796020955838344
84.009497869018218807469 428.38200593452256726 84.009497869018218807469 143.46588899211127455
86.009497869018190385759 430.21264349082161971 86.009497869018190385759 143.62291225043159670
88.009497869018190385759 431.98259358754506820 88.009497869018190385759 143.81277341123919200
91.009497869018218807469 434.52782101210107157 91.009497869018218807469 144.03629186409796148
94.009497869018218807469 436.95009187782096660 94.009497869018218807469 144.35933437954111014
97.009497869018218807469 439.26599256888664513 97.009497869018218807469 144.86218302514257061
99.504748934509137825444 441.12321599482055490 99.504748934509137825444 144.96602905155313579
nan nan nan nan

