Time Pressure difference Time.1 Pressure.1 difference.1
(hr) (psi) (hr) (psi)
0.000200000000020850166 0.14362967198763901 0.000200000000020850166 0.11565739025491072
0.000399999999999067768 0.27554900873369714 0.000399999999999067768 0.26498245393655184
0.000600000000019917934 0.40069809445262994 0.000600000000019917934 0.37227525863158883
0.000799999999998135536 0.52077947834576666 0.000799999999998135536 0.47514502315793844
0.001007140329434719206 0.64082441939641677 0.001007140329434719206 0.57752723250616889
0.001267914553977789183 0.78673783506386363 0.001267914553977789183 0.70069125920924702
0.001596209851982166583 0.96350045108042814 0.001596209851982166583 0.84718092560145708
0.002009509145224797066 1.17687265144178843 0.002009509145224797066 1.02054485379223769
0.002529822128153114136 1.43346899587447063 0.002529822128153114136 1.22464926316195166
0.003184857364431081805 1.74082978839213642 0.003184857364431081805 1.46366263825383047
0.004009497869034817086 2.10748845673840357 0.004009497869034817086 1.74203690554469648
0.005047658755856332391 2.54303434226817426 0.005047658755856332391 2.06448965849993371
0.006354625877790454069 3.05817173759500172 0.006354625877790454069 2.43599358521716969
0.008000000000009777068 3.66477758697396316 0.008000000000009777068 2.86178045432420403
0.010071403294361402914 4.37596204802958155 0.010071403294361402914 3.34736739859358590
0.012679145539692626699 5.20613785773850601 0.012679145539692626699 3.89861200324741075
0.015962098519750611558 6.17110564606847500 0.015962098519750611558 4.52179841003395033
0.020095091452091651263 7.28816208592557402 0.020095091452091651263 5.22374930418872374
0.025298221281360611101 8.57623555742119770 0.025298221281360611101 6.01195615938939554
0.031848573644296607199 10.05605256107385337 0.031848573644296607199 6.89473924889500456
0.040094978690191851456 11.75034465452702115 0.040094978690191851456 7.88148767688371521
0.050476587558435426217 13.68412199344773761 0.050476587558435426217 8.98302101704272715
0.063546258777947173257 15.88504197033152110 0.063546258777947173257 10.21195062967437295
0.080000000000012505552 18.38384229941273063 0.080000000000012505552 11.58261234891433133
0.100714032943542974863 21.21466913704290036 0.100714032943542974863 13.10996956361414689
0.126791455396883634421 24.41499224563075998 0.126791455396883634421 14.80716302562398212
0.159620985197506115583 28.02478838654218052 0.159620985197506115583 16.68221259193052930
0.200950914520774404082 32.08491735332836470 0.200950914520774404082 18.73518455159825180
0.252982212813464002465 36.63497617182574828 0.252982212813464002465 20.95747806341012875
0.318485736442809752589 41.71131536947976315 0.318485736442809752589 23.33271857676052363
0.400949786901833249431 47.34526553098196189 0.400949786901833249431 25.84241682353978931
0.504765875584169521062 53.56370130634481797 0.504765875584169521062 28.46928411982353779
0.635462587779443310865 60.38872210953820741 0.635462587779443310865 31.20139441221677146
0.800000000000011368684 67.84002452726784327 0.800000000000011368684 34.03775177189767476
1.007140329435344483500 75.93699459003201468 1.007140329435344483500 36.99521478142737152
1.267914553968907398485 84.70402600556819550 1.267914553968907398485 40.08151798837161550
1.596209851975117999245 94.16006986437395199 1.596209851975117999245 43.34963126075079742
2.009509145207687197399 104.34818320577012685 2.009509145207687197399 46.82831235534801806
2.529822128134725289783 115.29327708411457820 2.529822128134725289783 50.57822444768159187
3.184857364427983839050 127.05585592465973832 3.184857364427983839050 54.68188428422040204
4.009497869018204596614 139.68490226277893385 4.009497869018204596614 59.17001940585829090
5.009497869018190385759 152.77596075998698666 5.009497869018190385759 63.90786166316465966
6.009497869018190385759 164.14776821236409887 6.009497869018190385759 68.07042521905805188
7.009497869018204596614 174.24763059890005934 7.009497869018204596614 71.78288249315481551
8.009497869018190385759 183.35590473559446423 8.009497869018190385759 75.11479953303395973
9.009497869018204596614 191.66182535453222613 9.009497869018204596614 78.12755330601783044
10.009497869018190385759 199.30060925148265483 10.009497869018190385759 80.86068576649408612
11.009497869018190385759 206.37315483225236790 11.009497869018190385759 83.32825286937168130
12.009497869018204596614 212.95741370164236628 12.009497869018204596614 85.58462206506176528
13.009497869018190385759 219.11495443267500605 13.009497869018190385759 87.65311384382449944
14.009497869018204596614 224.89615299927223191 14.009497869018204596614 89.55085448627410472
15.009497869018190385759 230.34164943460334030 15.009497869018190385759 91.29817089091604032
16.009497869018190385759 235.48516368155262057 16.009497869018190385759 92.91274286572982533
17.009497869018204596614 240.35620972109879290 17.009497869018204596614 94.41104045509756304
18.009497869018190385759 244.98033565474821671 18.009497869018190385759 95.81007017107468471
19.009497869018204596614 249.37925730365279264 19.009497869018204596614 97.11419874824854048
20.009497869018190385759 253.57257080683666572 20.009497869018190385759 98.32990878597932749
21.009497869018190385759 257.57633109736082133 21.009497869018190385759 99.46321404765740226
22.009497869018204596614 261.40427656932496348 22.009497869018204596614 100.52398683521285250
23.009497869018190385759 265.06896730385909677 23.009497869018190385759 101.51586619139298762
24.009497869018204596614 268.58201363427082242 24.009497869018204596614 102.44938812536842931
25.009497869018204596614 271.95430134312431392 25.009497869018204596614 103.32946077045956201
26.009497869018190385759 275.19541232196610281 26.009497869018190385759 104.16124403468741377
27.009497869018204596614 278.31408694819879202 27.009497869018204596614 104.95037154360058196
28.009497869018190385759 281.31791631685314314 28.009497869018190385759 105.69870951979599738
29.009497869018190385759 284.21370932115723917 29.009497869018190385759 106.40312210188223219
30.009497869018190385759 287.00778455333374950 30.009497869018190385759 107.07780093496384666
31.009497869018218807469 289.70593009263672002 31.009497869018218807469 107.71790970051758052
32.009497869018190385759 292.31347730807721064 32.009497869018190385759 108.32604369876962380
33.009497869018190385759 294.83536031154307011 33.009497869018190385759 108.90130394030320815
34.009497869018218807469 297.27632328641891490 34.009497869018218807469 109.45564613206950355
35.009497869018190385759 299.64059286301812790 35.009497869018190385759 109.98399515411736616
36.009497869018190385759 301.93207619441506040 36.009497869018190385759 110.49323522216644733
37.009497869018190385759 304.15439264120726648 37.009497869018190385759 110.98290758685489266
38.009497869018218807469 306.31098918972844558 38.009497869018218807469 111.45518130513993071
39.009497869018190385759 308.40501949959849526 39.009497869018190385759 111.91335288025821626
40.009497869018190385759 310.43943678770500583 40.009497869018190385759 112.35598932754835744
41.009497869018218807469 312.41707709768905943 41.009497869018218807469 112.78271648269243599
42.009497869018190385759 314.34053700598502701 42.009497869018190385759 113.19199111546264191
43.009497869018190385759 316.21225692365362647 43.009497869018190385759 113.59233595187461674
44.009497869018218807469 318.03459708427101305 44.009497869018218807469 113.97009290882247967
46.009497869018190385759 321.53993912828991597 46.009497869018190385759 114.69554565030013293
48.009497869018218807469 324.87167611864373384 48.009497869018218807469 115.36840656781278369
50.009497869018190385759 328.04186894474435121 50.009497869018190385759 115.96768609900040303
52.009497869018190385759 331.06250526653428778 52.009497869018190385759 116.51139449309958707
54.009497869018218807469 333.94496684458169966 54.009497869018218807469 117.00724918682490738
56.009497869018190385759 336.69826946699953396 56.009497869018190385759 117.46046728447346652
58.009497869018218807469 339.33027118420790202 58.009497869018218807469 117.88900903049947999
60.009497869018190385759 341.84872519239632993 60.009497869018190385759 118.32197189036310192
62.009497869018190385759 344.26016201488170054 62.009497869018190385759 118.74484809195188006
64.009497869018218807469 346.57139564258790188 64.009497869018218807469 119.15756196007825451
66.009497869018190385759 348.79152820883535924 66.009497869018190385759 119.60156112642604853
68.009497869018190385759 350.92842376336545840 68.009497869018190385759 120.05469409420906857
70.009497869018190385759 352.98683200795807124 70.009497869018190385759 120.44456398220721383
72.009497869018190385759 354.97168767462545702 72.009497869018190385759 120.76459430920766636
74.009497869018218807469 356.88756115607156971 74.009497869018218807469 121.06711687134928468
76.009497869018190385759 358.73812663427190728 76.009497869018190385759 121.35299097310958416
78.009497869018190385759 360.52808999350736485 78.009497869018190385759 121.67562357585691757
80.009497869018218807469 362.26037086421587219 80.009497869018218807469 121.91494465631721766
82.009497869018190385759 363.93495097586264819 82.009497869018190385759 122.18705937882313606
84.009497869018218807469 365.55264506412589753 84.009497869018218807469 122.42422527326829140
86.009497869018190385759 367.11478911216784127 86.009497869018190385759 122.55821845370164169
88.009497869018190385759 368.62514652803838544 88.009497869018190385759 122.72023331092410103
91.009497869018218807469 370.79707393032623486 91.009497869018218807469 122.91096905736358735
94.009497869018218807469 372.86407840240724454 94.009497869018218807469 123.18663200387508994
97.009497869018218807469 374.84031365878325914 97.009497869018218807469 123.61572951478832749
99.504748934509137825444 376.42514431558021215 99.504748934509137825444 123.70434479065869482
nan nan nan nan

