Time Pressure difference Time.1 Pressure.1 difference.1
(hr) (psi) (hr) (psi)
0.000200000000020850166 0.24013085785433397 0.000200000000020850166 0.19336469933242884
0.000399999999999067768 0.46068349897664995 0.000399999999999067768 0.44301754017517259
0.000600000000019917934 0.66991712666299064 0.000600000000019917934 0.62239769802468758
0.000799999999998135536 0.87067819035932881 0.000799999999998135536 0.79438308559217830
0.001007140329434719206 1.07137832617838447 0.001007140329434719206 0.96555334184625097
0.001267914553977789183 1.31532731799739699 0.001267914553977789183 1.17146819899045962
0.001596209851982166583 1.61085231665009054 0.001596209851982166583 1.41638060998993609
0.002009509145224797066 1.96758396412923986 0.002009509145224797066 1.70622342743389743
0.002529822128153114136 2.39658097747763055 0.002529822128153114136 2.04746048684888793
0.003184857364431081805 2.91044980246810292 0.003184857364431081805 2.44706097333062278
0.004009497869034817086 3.52345726360951828 0.004009497869034817086 2.91246795145753978
0.005047658755856332391 4.25163554097960361 0.005047658755856332391 3.45156864780457706
0.006354625877790454069 5.11288087379164402 0.006354625877790454069 4.07267677528495575
0.008000000000009777068 6.12705002822209455 0.008000000000009777068 4.78453919707327824
0.010071403294361402914 7.31606154904945605 0.010071403294361402914 5.59637986952365107
0.012679145539692626699 8.70401173090656499 0.012679145539692626699 6.51799194292926476
0.015962098519750611558 10.31731725202073058 0.015962098519750611558 7.55988171677551168
0.020095091452091651263 12.18489598740681856 0.020095091452091651263 8.73345586794052231
0.025298221281360611101 14.33839382256356387 0.025298221281360611101 10.05123920397914539
0.031848573644296607199 16.81246287554534646 0.031848573644296607199 11.52714218174633487
0.040094978690191851456 19.64510746928736395 0.040094978690191851456 13.17686220978996126
0.050476587558435426217 22.87814145779543651 0.050476587558435426217 15.01848826286830985
0.063546258777947173257 26.55780454414801284 0.063546258777947173257 17.07310495898684266
0.080000000000012505552 30.73548634433065985 0.080000000000012505552 19.36468002084114559
0.100714032943542974863 35.46827496349359876 0.100714032943542974863 21.91823036416740322
0.126791455396883634421 40.81881516066392379 0.126791455396883634421 24.75572568346509428
0.159620985197506115583 46.85394308375020245 0.159620985197506115583 27.89057417713385334
0.200950914520774404082 53.64197120009585262 0.200950914520774404082 31.32288667220333167
0.252982212813464002465 61.24910078727117480 0.252982212813464002465 35.03828363726380957
0.318485736442809752589 69.73610538334898479 0.318485736442809752589 39.00938887052149795
0.400949786901833249431 79.15536580961047264 0.400949786901833249431 43.20529062685558586
0.504765875584169521062 89.55181312154525131 0.504765875584169521062 47.59708438782998030
0.635462587779443310865 100.96239477688419584 0.635462587779443310865 52.16483128292492211
0.800000000000011368684 113.42004100652593479 0.800000000000011368684 56.90686624364142432
1.007140329435344483500 126.95716283020978210 1.007140329435344483500 61.85137471269889886
1.267914553968907398485 141.61454347805934617 1.267914553968907398485 67.01128788680878756
1.596209851975117999245 157.42386680450022141 1.596209851975117999245 72.47516476406772767
2.009509145207687197399 174.45711879714690440 2.009509145207687197399 78.29108471909746925
2.529822128134725289783 192.75594762500406887 2.529822128134725289783 84.56046899846766962
3.184857364427983839050 212.42150912404051155 3.184857364427983839050 91.42127528768097022
4.009497869018204596614 233.53569597058353224 4.009497869018204596614 98.92487619416932887
5.009497869018190385759 255.42230939560320735 5.009497869018190385759 106.84595621810342436
6.009497869018190385759 274.43454998004619938 6.009497869018190385759 113.80524216311265207
7.009497869018204596614 291.32025740753601895 7.009497869018204596614 120.01200666824321672
8.009497869018190385759 306.54815322982204862 8.009497869018190385759 125.58255546929113677
9.009497869018204596614 320.43461426460856956 9.009497869018204596614 130.61950318349857980
10.009497869018190385759 333.20570609232260040 10.009497869018190385759 135.18895901585727870
11.009497869018190385759 345.03011823517192624 11.009497869018190385759 139.31442276598082231
12.009497869018204596614 356.03817603243339818 12.009497869018204596614 143.08679001502514438
13.009497869018190385759 366.33281444212855149 13.009497869018190385759 146.54504970764406835
14.009497869018204596614 375.99825579565833777 14.009497869018204596614 149.71783484423951904
15.009497869018190385759 385.10244514847744313 15.009497869018190385759 152.63912945825023826
16.009497869018190385759 393.70175803009578885 16.009497869018190385759 155.33849197864205394
17.009497869018204596614 401.84553812746207768 17.009497869018204596614 157.84345826086624243
18.009497869018190385759 409.57649867278217926 18.009497869018190385759 160.18246106726547850
19.009497869018204596614 416.93094580454459219 19.009497869018204596614 162.36280103222802040
20.009497869018190385759 423.94164181768013577 20.009497869018190385759 164.39531625155916572
21.009497869018190385759 430.63542855340006099 21.009497869018190385759 166.29006098592722651
22.009497869018204596614 437.03527488934020084 22.009497869018204596614 168.06354049012148266
23.009497869018190385759 443.16217971113940166 23.009497869018190385759 169.72183878873514118
24.009497869018204596614 449.03555404479652680 24.009497869018204596614 171.28257077210034254
25.009497869018204596614 454.67359755803596499 25.009497869018204596614 172.75394222561206448
26.009497869018190385759 460.09232997578709501 26.009497869018190385759 174.14457987049303256
27.009497869018204596614 465.30636411651983053 27.009497869018204596614 175.46390242445724539
28.009497869018190385759 470.32839134223888777 28.009497869018190385759 176.71502997840892135
29.009497869018190385759 475.16979527130973793 29.009497869018190385759 177.89271976408437581
30.009497869018190385759 479.84113980010488376 30.009497869018190385759 179.02069843814268779
31.009497869018218807469 484.35210187362707757 31.009497869018218807469 180.09088028055282393
32.009497869018190385759 488.71159487444145952 32.009497869018190385759 181.10760430888043970
33.009497869018190385759 492.92786802086112630 33.009497869018190385759 182.06936752519445122
34.009497869018218807469 497.00885299448174237 34.009497869018218807469 182.99615837705368904
35.009497869018190385759 500.96161619285845745 35.009497869018190385759 183.87949189828998442
36.009497869018190385759 504.79268988753773328 36.009497869018190385759 184.73087763705953535
37.009497869018190385759 508.50812519701827341 37.009497869018190385759 185.54954862177302743
38.009497869018218807469 512.11368505157724940 38.009497869018218807469 186.33913124453081878
39.009497869018190385759 515.61464197589123160 39.009497869018190385759 187.10513684668168821
40.009497869018190385759 519.01593337944427731 40.009497869018190385759 187.84516965699492630
41.009497869018218807469 522.32230077269889534 41.009497869018218807469 188.55860411950141042
42.009497869018190385759 525.53808530688127121 42.009497869018190385759 189.24286014616410512
43.009497869018190385759 528.66736704423340143 43.009497869018190385759 189.91218666954040373
44.009497869018218807469 531.71409200026562303 44.009497869018218807469 190.54374908193759097
46.009497869018190385759 537.57458573010967484 46.009497869018190385759 191.75661538409553941
48.009497869018218807469 543.14483351085743834 48.009497869018218807469 192.88155473056198730
50.009497869018190385759 548.44499964199440001 50.009497869018190385759 193.88347519676634079
52.009497869018190385759 553.49512599248703282 52.009497869018190385759 194.79248766815089766
54.009497869018218807469 558.31424144328502734 54.009497869018218807469 195.62149473422292090
56.009497869018190385759 562.91741926513975613 56.009497869018190385759 196.37921874122909571
58.009497869018218807469 567.31779713609751070 58.009497869018218807469 197.09568697286630368
60.009497869018190385759 571.52833743103758479 60.009497869018190385759 197.81954675420081458
62.009497869018190385759 575.55995836863030490 62.009497869018190385759 198.52654290373203594
64.009497869018218807469 579.42405208995160137 64.009497869018218807469 199.21654890200582599
66.009497869018190385759 583.13583622414660113 66.009497869018190385759 199.95886000824356188
68.009497869018190385759 586.70845847937653161 68.009497869018190385759 200.71644168875576497
70.009497869018190385759 590.14985976330490303 70.009497869018190385759 201.36825540775265608
72.009497869018190385759 593.46829033101437290 72.009497869018190385759 201.90330611070655209
74.009497869018218807469 596.67139130780719825 74.009497869018218807469 202.40908601928708777
76.009497869018190385759 599.76530546667333965 76.009497869018190385759 202.88703178316760045
78.009497869018190385759 602.75790045789506166 78.009497869018190385759 203.42643316588581115
80.009497869018218807469 605.65405753861091398 80.009497869018218807469 203.82654809728035161
82.009497869018190385759 608.45374616277024415 82.009497869018190385759 204.28148989896993726
84.009497869018218807469 611.15832846658554445 84.009497869018218807469 204.67800162874542025
86.009497869018190385759 613.77003804690559718 86.009497869018190385759 204.90202147728243176
88.009497869018190385759 616.29516685156420408 88.009497869018190385759 205.17289006670122831
91.009497869018218807469 619.92635797726416058 91.009497869018218807469 205.49177639277974095
94.009497869018218807469 623.38213107902458887 94.009497869018218807469 205.95265038147866221
97.009497869018218807469 626.68614939827830312 97.009497869018218807469 206.67004778253675568
99.504748934509137825444 629.33578815261057571 99.504748934509137825444 206.81820144688248320
nan nan nan nan

