Time Pressure difference Time.1 Pressure.1 difference.1
(hr) (psi) (hr) (psi)
0.000200000000020850166 0.77500177176663543 0.000200000000020850166 0.62406800158378906
0.000399999999999067768 1.48681652629224104 0.000399999999999067768 1.42980115769931082
0.000600000000019917934 2.16210013465064899 0.000600000000019917934 2.00873524969961492
0.000799999999998135536 2.81003926857403297 0.000799999999998135536 2.56380335412304294
0.001007140329434719206 3.45778176299316575 0.001007140329434719206 3.11624069206453624
0.001267914553977789183 4.24510623503209672 0.001267914553977789183 3.78081325281656211
0.001596209851982166583 5.19888785062147640 0.001596209851982166583 4.57124707772452865
0.002009509145224797066 6.35020868173798370 0.002009509145224797066 5.50668994025394909
0.002529822128153114136 7.73475979023933036 0.002529822128153114136 6.60800331581136380
0.003184857364431081805 9.39322739986590349 0.003184857364431081805 7.89767965224462731
0.004009497869034817086 11.37165646448430323 0.004009497869034817086 9.39974080283492519
0.005047658755856332391 13.72178947182202435 0.005047658755856332391 11.13964211565589224
0.006354625877790454069 16.50138500077303050 0.006354625877790454069 13.14421538690097790
0.008000000000009777068 19.77452906304700875 0.008000000000009777068 15.44169036812435003
0.010071403294361402914 23.61196188415961572 0.010071403294361402914 18.06183658824455662
0.012679145539692626699 28.09145219071402266 0.012679145539692626699 21.03626060085581884
0.015962098519750611558 33.29825754857780851 0.015962098519750611558 24.39887058747486037
0.020095091452091651263 39.32570792197341092 0.020095091452091651263 28.18648062051832071
0.025298221281360611101 46.27593769525187639 0.025298221281360611101 32.43951344337195053
0.031848573644296607199 54.26078361079433421 0.031848573644296607199 37.20286386382930033
0.040094978690191851456 63.40290136505205254 0.040094978690191851456 42.52719392318504532
0.050476587558435426217 73.83724158964507467 0.050476587558435426217 48.47088423779305089
0.063546258777947173257 85.71303896491383512 0.063546258777947173257 55.10198360595130396
0.080000000000012505552 99.19614907391452618 0.080000000000012505552 62.49784579935023743
0.100714032943542974863 114.47081888529399407 0.100714032943542974863 70.73921077033466531
0.126791455396883634421 131.73922899204930559 0.126791455396883634421 79.89698382576273161
0.159620985197506115583 151.21708733571716721 0.159620985197506115583 90.01443877729181509
0.200950914520774404082 173.12486655233425381 0.200950914520774404082 101.09193330966557767
0.252982212813464002465 197.67622559380978942 0.252982212813464002465 113.08305871715049307
0.318485736442809752589 225.06730584781786320 0.318485736442809752589 125.89946065377031914
0.400949786901833249431 255.46716192759018327 0.400949786901833249431 139.44137411035012519
0.504765875584169521062 289.02080496548558131 0.504765875584169521062 153.61551222988117615
0.635462587779443310865 325.84747971604991790 0.635462587779443310865 168.35752401591966532
0.800000000000011368684 366.05346567838273586 0.800000000000011368684 183.66203560253120486
1.007140329435344483500 409.74336664204776071 1.007140329435344483500 199.62001309145188088
1.267914553968907398485 457.04880698837837372 1.267914553968907398485 216.27319081225519426
1.596209851975117999245 508.07204364318448597 1.596209851975117999245 233.90738534446782637
2.009509145207687197399 563.04540521446801904 2.009509145207687197399 252.67776875073204224
2.529822128134725289783 622.10330759970167946 2.529822128134725289783 272.91166941561527892
3.184857364427983839050 685.57222259347645377 3.184857364427983839050 295.05433395027256438
4.009497869018204596614 753.71645179291135719 4.009497869018204596614 319.27156304411039400
5.009497869018190385759 824.35362160076306282 5.009497869018190385759 344.83617022415933207
6.009497869018190385759 885.71399931254779858 6.009497869018190385759 367.29666941116732914
7.009497869018204596614 940.21117343989828896 7.009497869018204596614 387.32847011931454517
8.009497869018190385759 989.35790263581179715 8.009497869018190385759 405.30693914699571678
9.009497869018204596614 1034.17526597549681355 9.009497869018204596614 421.56325638038794068
10.009497869018190385759 1075.39287075279185046 10.009497869018190385759 436.31078361504097529
11.009497869018190385759 1113.55514794902842368 11.009497869018190385759 449.62536444098475386
12.009497869018204596614 1149.08271143177876183 12.009497869018204596614 461.80035655939570916
13.009497869018190385759 1182.30777495964230184 13.009497869018190385759 472.96159344896972243
14.009497869018204596614 1213.50215889190644702 14.009497869018204596614 483.20148566552069269
15.009497869018190385759 1242.88515007421369774 15.009497869018190385759 492.62971376556777159
16.009497869018190385759 1270.63869569837788731 16.009497869018190385759 501.34167504633393264
17.009497869018204596614 1296.92204828676221950 17.009497869018204596614 509.42623912229726102
18.009497869018190385759 1321.87306113707904842 18.009497869018190385759 516.97517029809046107
19.009497869018204596614 1345.60890920095994261 19.009497869018204596614 524.01203074575767005
20.009497869018190385759 1368.23532997855659232 20.009497869018190385759 530.57179949101350758
21.009497869018190385759 1389.83895321284262536 21.009497869018190385759 536.68692579881803795
22.009497869018204596614 1410.49390898864930932 22.009497869018204596614 542.41067896500260304
23.009497869018190385759 1430.26796941040629463 23.009497869018190385759 547.76269465772475087
24.009497869018204596614 1449.22378190158633515 24.009497869018204596614 552.79982342646712823
25.009497869018204596614 1467.42008433060823336 25.009497869018204596614 557.54854874060470138
26.009497869018190385759 1484.90857898727540487 26.009497869018190385759 562.03671260383418939
27.009497869018204596614 1501.73642749132250174 27.009497869018204596614 566.29471312067812505
28.009497869018190385759 1517.94459012635343242 28.009497869018190385759 570.33262011723252272
29.009497869018190385759 1533.56980654541075637 29.009497869018190385759 574.13351300807289590
30.009497869018190385759 1548.64617081903020335 30.009497869018190385759 577.77396754490905550
31.009497869018218807469 1563.20491445818583998 31.009497869018218807469 581.22788775904280101
32.009497869018190385759 1577.27480464149948602 32.009497869018190385759 584.50927745794433577
33.009497869018190385759 1590.88246501436810831 33.009497869018190385759 587.61328584455270629
34.009497869018218807469 1604.05349439963583791 34.009497869018218807469 590.60442392095831110
35.009497869018190385759 1616.81069899003523460 35.009497869018190385759 593.45530718575832907
36.009497869018190385759 1629.17516113236479214 36.009497869018190385759 596.20308171960641630
37.009497869018190385759 1641.16641029318066103 37.009497869018190385759 598.84527218740447552
38.009497869018218807469 1652.80304583624297265 38.009497869018218807469 601.39358245898426958
39.009497869018190385759 1664.10208438325025782 39.009497869018190385759 603.86579991639325726
40.009497869018190385759 1675.07946100032495451 40.009497869018190385759 606.25419241322970265
41.009497869018218807469 1685.75047850628061497 41.009497869018218807469 608.55674102119462532
42.009497869018190385759 1696.12914759479394888 42.009497869018190385759 610.76511872718390350
43.009497869018190385759 1706.22863631721429556 43.009497869018190385759 612.92531274032353394
44.009497869018218807469 1716.06168010054557271 44.009497869018218807469 614.96362632052125718
46.009497869018190385759 1734.97592154639778528 46.009497869018190385759 618.87804840474450430
48.009497869018218807469 1752.95341905684836092 48.009497869018218807469 622.50869377215644818
50.009497869018190385759 1770.05925118101617954 50.009497869018190385759 625.74230624252311372
52.009497869018190385759 1786.35810133400832456 52.009497869018190385759 628.67606611901658198
54.009497869018218807469 1801.91138359888873310 54.009497869018218807469 631.35161540390936352
56.009497869018190385759 1816.76774566568496994 56.009497869018190385759 633.79710472247143116
58.009497869018218807469 1830.96958826478817173 58.009497869018218807469 636.10944456040340356
60.009497869018190385759 1844.55874635063855749 60.009497869018190385759 638.44563999175090885
62.009497869018190385759 1857.57045753863280879 62.009497869018190385759 640.72740949615706540
64.009497869018218807469 1870.04148898813036794 64.009497869018218807469 642.95434474292221694
66.009497869018190385759 1882.02095429350742961 66.009497869018190385759 645.35009024467387917
68.009497869018190385759 1893.55128655649264147 68.009497869018190385759 647.79512021666971577
70.009497869018190385759 1904.65811437627394298 70.009497869018190385759 649.89879315399309689
72.009497869018190385759 1915.36806474433319636 72.009497869018190385759 651.62562346009963221
74.009497869018218807469 1925.70579873796941683 74.009497869018218807469 653.25798478498882105
76.009497869018190385759 1935.69114163075869328 76.009497869018190385759 654.80051379240376264
78.009497869018190385759 1945.34948558996688917 78.009497869018190385759 656.54138554472797296
80.009497869018218807469 1954.69658445483150899 80.009497869018218807469 657.83272220804508379
82.009497869018190385759 1963.73233964059204482 82.009497869018190385759 659.30100789823313789
84.009497869018218807469 1972.46114732517935408 84.009497869018218807469 660.58071553701006451
86.009497869018190385759 1980.89021625107216096 86.009497869018190385759 661.30372040643180753
88.009497869018190385759 1989.03985314087390179 88.009497869018190385759 662.17792557352800031
91.009497869018218807469 2000.75921141571893713 91.009497869018218807469 663.20710387202427682
94.009497869018218807469 2011.91242304632260129 94.009497869018218807469 664.69453518757597976
97.009497869018218807469 2022.57585911718456373 97.009497869018218807469 667.00987384021209436
99.504748934509137825444 2031.12734120281811556 99.504748934509137825444 667.48802709959579715
nan nan nan nan

