Time Pressure difference Time.1 Pressure.1 difference.1
(hr) (psi) (hr) (psi)
0.000200000000020850166 0.21170415194011374 0.000200000000020850166 0.17047417417781111
0.000399999999999067768 0.40614775766477240 0.000399999999999067768 0.39057309616689673
0.000600000000019917934 0.59061229546924099 0.000600000000019917934 0.54871821975385238
0.000799999999998135536 0.76760725193672896 0.000799999999998135536 0.70034396642550301
0.001007140329434719206 0.94454849317284362 0.001007140329434719206 0.85125107707940517
0.001267914553977789183 1.15961878814100716 0.001267914553977789183 1.03278972060529628
0.001596209851982166583 1.42015951904042281 0.001596209851982166583 1.24870938513131446
0.002009509145224797066 1.73466125186471931 0.002009509145224797066 1.50424059178751679
0.002529822128153114136 2.11287357204414183 0.002529822128153114136 1.80508198684808496
0.003184857364431081805 2.56591057351549257 0.003184857364431081805 2.15737774284288530
0.004009497869034817086 3.10635017321337603 0.004009497869034817086 2.56768981390181850
0.005047658755856332391 3.74832666073902798 0.005047658755856332391 3.04297173622646477
0.006354625877790454069 4.50761771739263306 0.006354625877790454069 3.59055304487739102
0.008000000000009777068 5.40172946413349830 0.008000000000009777068 4.21814514882161351
0.010071403294361402914 6.44998572704360118 0.010071403294361402914 4.93388007188533706
0.012679145539692626699 7.67363027989581870 0.012679145539692626699 5.74639165061988066
0.015962098519750611558 9.09595259290301250 0.015962098519750611558 6.66494244812295822
0.020095091452091651263 10.74244724123404993 0.020095091452091651263 7.69958881815317131
0.025298221281360611101 12.64101386849061903 0.025298221281360611101 8.86137288076666074
0.031848573644296607199 14.82220247283281367 0.031848573644296607199 10.16255837206919921
0.040094978690191851456 17.31951842307889322 0.040094978690191851456 11.61698444040672662
0.050476587558435426217 20.16982564659224053 0.050476587558435426217 13.24059868657860228
0.063546258777947173257 23.41388998751989803 0.063546258777947173257 15.05198973019712305
0.080000000000012505552 27.09701755590522154 0.080000000000012505552 17.07228799345185166
0.100714032943542974863 31.26953836345385795 0.100714032943542974863 19.32354888803543957
0.126791455396883634421 35.98668127871617628 0.126791455396883634421 21.82514133464367845
0.159620985197506115583 41.30737038224707192 0.159620985197506115583 24.58888626831426905
0.200950914520774404082 47.29183130724961615 0.200950914520774404082 27.61488139636617234
0.252982212813464002465 53.99842841993066855 0.252982212813464002465 30.89044943721388847
0.318485736442809752589 61.48074088313943264 0.318485736442809752589 34.39145498553764213
0.400949786901833249431 69.78494867327029283 0.400949786901833249431 38.09064563053000541
0.504765875584169521062 78.95066390466450912 0.504765875584169521062 41.96253857244823848
0.635462587779443310865 89.01046019270475540 0.635462587779443310865 45.98955530550701098
0.800000000000011368684 99.99336948550416082 0.800000000000011368684 50.17022787212000168
1.007140329435344483500 111.92796598426593846 1.007140329435344483500 54.52940512054139077
1.267914553968907398485 124.85020499779062675 1.267914553968907398485 59.07848745161024340
1.596209851975117999245 138.78801964384285839 1.596209851975117999245 63.89555024371080094
2.009509145207687197399 153.80487420433826173 2.009509145207687197399 69.02298123210151459
2.529822128134725289783 169.93748653543971727 2.529822128134725289783 74.55019540986400273
3.184857364427983839050 187.27503763895157363 3.184857364427983839050 80.59881902309570023
4.009497869018204596614 205.88972573107520248 4.009497869018204596614 87.21414318675986976
5.009497869018190385759 225.18540049518912838 5.009497869018190385759 94.19752526393540393
6.009497869018190385759 241.94697085468246200 6.009497869018190385759 100.33297050517408877
7.009497869018204596614 256.83374718483707966 7.009497869018204596614 105.80497784147299001
8.009497869018190385759 270.25896375090229640 8.009497869018190385759 110.71608472837817772
9.009497869018204596614 282.50154466319071389 9.009497869018204596614 115.15675825834921397
10.009497869018190385759 293.76079384463332644 10.009497869018190385759 119.18528162457199926
11.009497869018190385759 304.18543134128861993 11.009497869018190385759 122.82237271891766284
12.009497869018204596614 313.89035457065000401 12.009497869018204596614 126.14816689798166749
13.009497869018190385759 322.96631304399494411 13.009497869018190385759 129.19703759272047705
14.009497869018204596614 331.48755884788567982 14.009497869018204596614 131.99422822716442738
15.009497869018190385759 339.51399369787884552 15.009497869018190385759 134.56969980275644616
16.009497869018190385759 347.09531938478852453 16.009497869018190385759 136.94951161979969356
17.009497869018204596614 354.27503828682790754 17.009497869018204596614 139.15793983746152662
18.009497869018190385759 361.09080724111328209 18.009497869018190385759 141.22005134590696684
19.009497869018204596614 367.57463446319655986 19.009497869018204596614 143.14228252997051527
20.009497869018190385759 373.75540384549367445 20.009497869018190385759 144.93418847100079461
21.009497869018190385759 379.65677969038080164 21.009497869018190385759 146.60463320566171319
22.009497869018204596614 385.29901181832792645 22.009497869018204596614 148.16816809565224844
23.009497869018190385759 390.70061326558396786 23.009497869018190385759 149.63015693835529873
24.009497869018204596614 395.87869717968038685 24.009497869018204596614 151.00612937228783039
25.009497869018204596614 400.84930875054260468 25.009497869018204596614 152.30331978145864014
26.009497869018190385759 405.62657128706467802 26.009497869018190385759 153.52933365529446519
27.009497869018204596614 410.22336774135550286 27.009497869018204596614 154.69247472311960223
28.009497869018190385759 414.65088707119502942 28.009497869018190385759 155.79549371928263213
29.009497869018190385759 418.91916530149740083 29.009497869018190385759 156.83376851475350122
30.009497869018190385759 423.03751577392421268 30.009497869018190385759 157.82821700309776247
31.009497869018218807469 427.01446987612609973 31.009497869018218807469 158.77171065232539604
32.009497869018190385759 430.85788582388454415 32.009497869018190385759 159.66807482683231001
33.009497869018190385759 434.57503629253488953 33.009497869018190385759 160.51598445367608292
34.009497869018218807469 438.17291401071128121 34.009497869018218807469 161.33306174674828526
35.009497869018190385759 441.65774885538610306 35.009497869018190385759 162.11182619070424948
36.009497869018190385759 445.03529980739307348 36.009497869018190385759 162.86242483267241710
37.009497869018190385759 448.31090165344608067 37.009497869018190385759 163.58418149520798579
38.009497869018218807469 451.48963510777684860 38.009497869018218807469 164.28029327788857472
39.009497869018190385759 454.57614853326236926 39.009497869018190385759 164.95561908913057891
40.009497869018190385759 457.57479484854434304 40.009497869018190385759 165.60804676925096146
41.009497869018218807469 460.48975426378126485 41.009497869018218807469 166.23702481563520905
42.009497869018190385759 463.32485402444660849 42.009497869018190385759 166.84027857122879368
43.009497869018190385759 466.08369119476026299 43.009497869018190385759 167.43037017906519281
44.009497869018218807469 468.76974466067031244 44.009497869018218807469 167.98716819373314024
46.009497869018190385759 473.93647277763562897 46.009497869018190385759 169.05645530747364091
48.009497869018218807469 478.84731427904256407 48.009497869018218807469 170.04822426401571533
50.009497869018190385759 483.52004641334707458 50.009497869018190385759 170.93153732300584124
52.009497869018190385759 487.97233849181878895 52.009497869018190385759 171.73294084139160987
54.009497869018218807469 492.22096675529490994 54.009497869018218807469 172.46380999933046496
56.009497869018190385759 496.27922009979624818 56.009497869018190385759 173.13183459117703933
58.009497869018218807469 500.15868096422303779 58.009497869018218807469 173.76348726891328056
60.009497869018190385759 503.87077723670915930 60.009497869018190385759 174.40165648423311495
62.009497869018190385759 507.42513463651835082 62.009497869018190385759 175.02495838553323892
64.009497869018218807469 510.83179670235614367 64.009497869018218807469 175.63328143074033960
66.009497869018190385759 514.10417959948131283 66.009497869018190385759 176.28771770197172941
68.009497869018190385759 517.25387460954380003 68.009497869018190385759 176.95561681594355719
70.009497869018190385759 520.28788259506325176 70.009497869018190385759 177.53026878627417773
72.009497869018190385759 523.21347714541150253 72.009497869018190385759 178.00198015367587345
74.009497869018218807469 526.03739482900130042 74.009497869018218807469 178.44788580516589604
76.009497869018190385759 528.76505123697370436 76.009497869018190385759 178.86925231973964401
78.009497869018190385759 531.40338264668014290 78.009497869018190385759 179.34479933316410438
80.009497869018218807469 533.95669247173486838 80.009497869018218807469 179.69754863405091783
82.009497869018190385759 536.42495378213084223 82.009497869018190385759 180.09863439691119424
84.009497869018218807469 538.80936746431063966 84.009497869018218807469 180.44820704341105966
86.009497869018190385759 541.11190270178894934 86.009497869018190385759 180.64570740832064644
88.009497869018190385759 543.33810660122333047 88.009497869018190385759 180.88451055724752337
91.009497869018218807469 546.53943709522047811 91.009497869018218807469 181.16564710017652828
94.009497869018218807469 549.58611556188157010 94.009497869018218807469 181.57196279737840428
97.009497869018218807469 552.49900398664408385 97.009497869018218807469 182.20443464940154854
99.504748934509137825444 554.83497834015201988 99.504748934509137825444 182.33504987373126482
nan nan nan nan

