Time Pressure difference Time.1 Pressure.1 difference.1
(hr) (psi) (hr) (psi)
0.000200000000020850166 0.15485074011167330 0.000200000000020850166 0.12469312386857562
0.000399999999999067768 0.29707627504101725 0.000399999999999067768 0.28568420815034490
0.000600000000019917934 0.43200263308174158 0.000600000000019917934 0.40135926321218174
0.000799999999998135536 0.56146537509152972 0.000799999999998135536 0.51226572809215243
0.001007140329434719206 0.69088882716176192 0.001007140329434719206 0.62264654754571325
0.001267914553977789183 0.84820172842822794 0.001267914553977789183 0.75543276383496949
0.001596209851982166583 1.03877392382108646 0.001596209851982166583 0.91336693541407099
0.002009509145224797066 1.26881582733567821 0.002009509145224797066 1.10027492049475617
0.002529822128153114136 1.54545876117716352 0.002529822128153114136 1.32032498684647903
0.003184857364431081805 1.87683211561027208 0.003184857364431081805 1.57801128186741080
0.004009497869034817086 2.27213599242109154 0.004009497869034817086 1.87813353879037592
0.005047658755856332391 2.74170890025787584 0.005047658755856332391 2.22577791307024109
0.006354625877790454069 3.29709140459461159 0.006354625877790454069 2.62630558406226156
0.008000000000009777068 3.95108833595630449 0.008000000000009777068 3.08535705231828272
0.010071403294361402914 4.71783408303189233 0.010071403294361402914 3.60888047660870948
0.012679145539692626699 5.61286737787432699 0.012679145539692626699 4.20319106600111425
0.015962098519750611558 6.65322327466757457 0.015962098519750611558 4.87506391081785306
0.020095091452091651263 7.85754974888850999 0.020095091452091651263 5.63185471857846753
0.025298221281360611101 9.24625396034472757 0.025298221281360611101 6.48164023434169145
0.031848573644296607199 10.84168166740774630 0.031848573644296607199 7.43339075271492700
0.040094978690191851456 12.66834033066194465 0.040094978690191851456 8.49722890164025557
0.050476587558435426217 14.75319402418584147 0.050476587558435426217 9.68481953399919071
0.063546258777947173257 17.12606087426367196 0.063546258777947173257 11.00975927261768383
0.080000000000012505552 19.82007997905435204 0.080000000000012505552 12.48750393867326203
0.100714032943542974863 22.87206516337437634 0.100714032943542974863 14.13418593577150340
0.126791455396883634421 26.32241351482066349 0.126791455396883634421 15.96397263700085567
0.159620985197506115583 30.21422497924078954 0.159620985197506115583 17.98551045067510046
0.200950914520774404082 34.59155152155713608 0.200950914520774404082 20.19887084469186433
0.252982212813464002465 39.49708368524964186 0.252982212813464002465 22.59478103711404628
0.318485736442809752589 44.97001188272036387 0.318485736442809752589 25.15558721556994115
0.400949786901833249431 51.04411440058992611 0.400949786901833249431 27.86135563787883385
0.504765875584169521062 57.74836547090301764 0.504765875584169521062 30.69344694168475129
0.635462587779443310865 65.10659102434588874 0.635462587779443310865 33.63900335067121006
0.800000000000011368684 73.14002644346064130 0.800000000000011368684 36.69695112907717771
1.007140329435344483500 81.86957229237826539 1.007140329435344483500 39.88546593622638881
1.267914553968907398485 91.32152803725320211 1.267914553968907398485 43.21288658121314796
1.596209851975117999245 101.51632532252817498 1.596209851975117999245 46.73632120299695458
2.009509145207687197399 112.50038501872091956 2.009509145207687197399 50.48677425810958397
2.529822128134725289783 124.30056435631104250 2.529822128134725289783 54.52964823265671868
3.184857364427983839050 136.98209466877375462 3.184857364427983839050 58.95390649392511762
4.009497869018204596614 150.59778525205854294 4.009497869018204596614 63.79267717194096576
5.009497869018190385759 164.71158269436094201 5.009497869018190385759 68.90066335559939148
6.009497869018190385759 176.97181260395501567 6.009497869018190385759 73.38842718929694797
7.009497869018204596614 187.86072673943914424 7.009497869018204596614 77.39092018793253658
8.009497869018190385759 197.68058479306279196 8.009497869018190385759 80.98314324655223118
9.009497869018204596614 206.63540546035505940 9.009497869018204596614 84.23126840805048232
10.009497869018190385759 214.87096934925472169 10.009497869018190385759 87.17792684200142617
11.009497869018190385759 222.49605755352209258 11.009497869018190385759 89.83827262479135811
12.009497869018204596614 229.59471164708321567 12.009497869018204596614 92.27092066389469949
13.009497869018190385759 236.23331024772775777 13.009497869018190385759 94.50101336287328024
14.009497869018204596614 242.46616495234039235 14.009497869018204596614 96.54701499301427248
15.009497869018190385759 248.33709079668170716 15.009497869018190385759 98.43084049176884776
16.009497869018190385759 253.88244209417391062 16.009497869018190385759 100.17155090211497281
17.009497869018204596614 259.13403860555962410 17.009497869018204596614 101.78690299065205238
18.009497869018190385759 264.11942437777543091 18.009497869018190385759 103.29523190318990089
19.009497869018204596614 268.86201178050066574 19.009497869018204596614 104.70124552545544816
20.009497869018190385759 273.38292790112080866 20.009497869018190385759 106.01193290988396711
21.009497869018190385759 277.69948196434211241 21.009497869018190385759 107.23377764513065813
22.009497869018204596614 281.82648567630349135 22.009497869018204596614 108.37742330671385105
23.009497869018190385759 285.77748037447310026 23.009497869018190385759 109.44679323759557121
24.009497869018204596614 289.56498344944822065 24.009497869018204596614 110.45324657266283452
25.009497869018204596614 293.20073113555588407 25.009497869018204596614 111.40207489315172040
26.009497869018190385759 296.69505390961973035 26.009497869018190385759 112.29884122489737308
27.009497869018204596614 300.05737499102684751 27.009497869018204596614 113.14961932044437276
28.009497869018190385759 303.29587852910736956 28.009497869018190385759 113.95642120103006789
29.009497869018190385759 306.41790536187261296 29.009497869018190385759 114.71586601609179468
30.009497869018190385759 309.43026772156292736 30.009497869018190385759 115.44325413300789762
31.009497869018218807469 312.33920588112397354 31.009497869018218807469 116.13337139587052604
32.009497869018190385759 315.15046772277071341 32.009497869018190385759 116.78901586273599378
33.009497869018190385759 317.86937283588235914 33.009497869018190385759 117.40921831063940317
34.009497869018218807469 320.50103604317041572 34.009497869018218807469 118.00686848613743507
35.009497869018190385759 323.05001418044145112 35.009497869018190385759 118.57649477553279382
36.009497869018190385759 325.52051964710375387 36.009497869018190385759 119.12551922389820902
37.009497869018190385759 327.91645456630152466 37.009497869018190385759 119.65344724207793092
38.009497869018218807469 330.24153522017599016 38.009497869018218807469 120.16261734460398714
39.009497869018190385759 332.49916164800464458 39.009497869018190385759 120.65658357402838874
40.009497869018190385759 334.69251778674447451 40.009497869018190385759 121.13380099376307442
41.009497869018218807469 336.82466124594600387 41.009497869018218807469 121.59386620790279210
42.009497869018190385759 338.89839145957756728 42.009497869018190385759 122.03511542135818502
43.009497869018190385759 340.91633949581404295 43.009497869018190385759 122.46673719811482783
44.009497869018218807469 342.88104998147963443 44.009497869018218807469 122.87400641732423878
46.009497869018190385759 346.66024687268759408 46.009497869018190385759 123.65613515422982971
48.009497869018218807469 350.25227581541275867 48.009497869018218807469 124.38156333092317141
50.009497869018190385759 353.67013995605248056 50.009497869018190385759 125.02766157548482795
52.009497869018190385759 356.92676349048230122 52.009497869018190385759 125.61384718787300585
54.009497869018218807469 360.03441737931461830 54.009497869018218807469 126.14844052954560993
56.009497869018190385759 363.00282176910883436 56.009497869018190385759 126.63706629107295498
58.009497869018218807469 365.84044862047409197 58.009497869018218807469 127.09908786100724853
60.009497869018190385759 368.55565684805230831 60.009497869018190385759 127.56587594429772992
62.009497869018190385759 371.15548717229438580 62.009497869018190385759 128.02178934913561648
64.009497869018218807469 373.64728592716505773 64.009497869018218807469 128.46674648820936682
66.009497869018190385759 376.04086635015062257 66.009497869018190385759 128.94543308942809290
68.009497869018190385759 378.34470686987833687 68.009497869018190385759 129.43396707031914161
70.009497869018190385759 380.56392825857983553 70.009497869018190385759 129.85429554331713575
72.009497869018190385759 382.70385077420553444 72.009497869018190385759 130.19932823961451618
74.009497869018218807469 384.76940187138967531 74.009497869018218807469 130.52548537692345576
76.009497869018190385759 386.76454277757437694 76.009497869018190385759 130.83369339288375954
78.009497869018190385759 388.69434702425013484 78.009497869018190385759 131.18153166772074769
80.009497869018218807469 390.56196233798277717 80.009497869018218807469 131.43954970759202183
82.009497869018190385759 392.36736902085192469 82.009497869018190385759 131.73292339279370822
84.009497869018218807469 394.11144545976077325 84.009497869018218807469 131.98861787274236690
86.009497869018190385759 395.79563201155593788 86.009497869018190385759 132.13307927039707579
88.009497869018190385759 397.42398610054141272 88.009497869018190385759 132.30775153834005664
91.009497869018218807469 399.76559533113299949 91.009497869018218807469 132.51338851497010296
94.009497869018218807469 401.99408452759530519 94.009497869018218807469 132.81058762917783156
97.009497869018218807469 404.12471316337570215 97.009497869018218807469 133.27320838313116269
99.504748934509137825444 405.83335871523485139 99.504748934509137825444 133.36874672742888492
nan nan nan nan

