Time Pressure difference Time.1 Pressure.1 difference.1
(hr) (psi) (hr) (psi)
0.000200000000020850166 0.67999672831647850 0.000200000000020850166 0.54756545698809289
0.000399999999999067768 1.30455233822359751 0.000399999999999067768 1.25452630535586263
0.000600000000019917934 1.89705504092416954 0.000600000000019917934 1.76249067758392841
0.000799999999998135536 2.46556534279323936 0.000799999999998135536 2.24951471901336486
0.001007140329434719206 3.03390311057991147 0.001007140329434719206 2.73423049139639307
0.001267914553977789183 3.72471193788047916 0.001267914553977789183 3.31733518031877850
0.001596209851982166583 4.56157244808390150 0.001596209851982166583 4.01087219464439837
0.002009509145224797066 5.57175645916971707 0.002009509145224797066 4.83164204217262494
0.002529822128153114136 6.78657977734319662 0.002529822128153114136 5.79794885528236481
0.003184857364431081805 8.24174102941902120 0.003184857364431081805 6.92952780298297810
0.004009497869034817086 9.97764066237087910 0.004009497869034817086 8.24745597468817238
0.005047658755856332391 12.03967821417588802 0.005047658755856332391 9.77406822696062427
0.006354625877790454069 14.47853182017633777 0.006354625877790454069 11.53290713001253742
0.008000000000009777068 17.35043138832985932 0.008000000000009777068 13.54874183844115443
0.010071403294361402914 20.71744532114004755 0.010071403294361402914 15.84769252771650727
0.012679145539692626699 24.64780892023074088 0.012679145539692626699 18.45749120287445777
0.015962098519750611558 29.21632829310543400 0.015962098519750611558 21.40788934750448647
0.020095091452091651263 34.50489237555388655 0.020095091452091651263 24.73118811201848644
0.025298221281360611101 40.60311521716597838 0.025298221281360611101 28.46285494210916767
0.031848573644296607199 47.60912384383401985 0.031848573644296607199 32.64228113148728738
0.040094978690191851456 55.63053797377636300 0.040094978690191851456 37.31391822024634308
0.050476587558435426217 64.78576506272912638 0.050476587558435426217 42.52899012756166286
0.063546258777947173257 75.20574557828830109 0.063546258777947173257 48.34720376236461448
0.080000000000012505552 87.03600338628214672 0.080000000000012505552 54.83643033939128486
0.100714032943542974863 100.43819919568747423 0.100714032943542974863 62.06751215273573052
0.126791455396883634421 115.58972891290812868 0.126791455396883634421 70.10266244943854019
0.159620985197506115583 132.67985751753565182 0.159620985197506115583 78.97985023992110598
0.200950914520774404082 151.90203059466395530 0.200950914520774404082 88.69938936147298136
0.252982212813464002465 173.44371531348755866 0.252982212813464002465 99.22056020645732133
0.318485736442809752589 197.47700870238074344 0.318485736442809752589 110.46583951185060357
0.400949786901833249431 224.15024149824270694 0.400949786901833249431 122.34769214894619438
0.504765875584169521062 253.59064837222626920 0.504765875584169521062 134.78426700478954103
0.635462587779443310865 285.90285623734496312 0.635462587779443310865 147.71910167033877315
0.800000000000011368684 321.18011612128367460 0.800000000000011368684 161.14748104507805238
1.007140329435344483500 359.51420876218281819 1.007140329435344483500 175.14921998082022014
1.267914553968907398485 401.02062312011190670 1.267914553968907398485 189.76093672619686004
1.596209851975117999245 445.78908076414546713 1.596209851975117999245 205.23341050011705988
2.009509145207687197399 494.02342986481789922 2.009509145207687197399 221.70279130735079320
2.529822128134725289783 545.84160869510492375 2.529822128134725289783 239.45628136949252962
3.184857364427983839050 601.53006789331095661 3.184857364427983839050 258.88454590810596301
4.009497869018204596614 661.32070915034398695 4.009497869018204596614 280.13306062461037982
5.009497869018190385759 723.29868922306332024 5.009497869018190385759 302.56378256154516748
6.009497869018190385759 777.13709013041113849 6.009497869018190385759 322.27091939647795016
7.009497869018204596614 824.95362611666746488 7.009497869018204596614 339.84708430352986852
8.009497869018190385759 868.07561148258002959 8.009497869018190385759 355.62162903920761892
9.009497869018204596614 907.39895441286353162 9.009497869018204596614 369.88513518317819262
10.009497869018190385759 943.56382192498824679 10.009497869018190385759 382.82480917574537216
11.009497869018190385759 977.04790490894470167 11.009497869018190385759 394.50719717843162471
12.009497869018204596614 1008.22025549371312536 12.009497869018204596614 405.18969508927676770
13.009497869018190385759 1037.37236239219578238 13.009497869018190385759 414.98271085435663963
14.009497869018204596614 1064.74272435592956754 14.009497869018204596614 423.96732670845392477
15.009497869018190385759 1090.52374654195023140 15.009497869018190385759 432.23977781168065349
16.009497869018190385759 1114.87507180485090430 16.009497869018190385759 439.88376700493967064
17.009497869018204596614 1137.93643039832704744 17.009497869018204596614 446.97726965460253723
18.009497869018190385759 1159.82877661544875991 18.009497869018190385759 453.60080096618173684
19.009497869018204596614 1180.65492129698145618 19.009497869018204596614 459.77503469873920494
20.009497869018190385759 1200.50763991361759508 20.009497869018190385759 465.53066190862085705
21.009497869018190385759 1219.46294253906762606 21.009497869018190385759 470.89615400687807778
22.009497869018204596614 1237.58587188289789083 22.009497869018204596614 475.91825017296076794
23.009497869018190385759 1254.93589207920786066 23.009497869018190385759 480.61417899987617375
24.009497869018204596614 1271.56797079975081033 24.009497869018204596614 485.03382190604116886
25.009497869018204596614 1287.53364542135409465 25.009497869018204596614 489.20041583514455397
26.009497869018190385759 1302.87828021180825999 26.009497869018190385759 493.13838972672323280
27.009497869018204596614 1317.64325539537867371 27.009497869018204596614 496.87441527673399833
28.009497869018190385759 1331.86451006260176655 28.009497869018190385759 500.41732788278420685
29.009497869018190385759 1345.57428006735358395 29.009497869018190385759 503.75228120109875363
30.009497869018190385759 1358.80247999468952003 30.009497869018190385759 506.94646380146946285
31.009497869018218807469 1371.57651278232719960 31.009497869018218807469 509.97697873838791338
32.009497869018190385759 1383.92161913042787091 32.009497869018190385759 512.85611313636240993
33.009497869018190385759 1395.86115897496188154 33.009497869018190385759 515.57961084237297200
34.009497869018218807469 1407.41759305913979006 34.009497869018218807469 518.20407465651658185
35.009497869018190385759 1418.61093183585148836 35.009497869018190385759 520.70547705777437386
36.009497869018190385759 1429.45967323293371010 36.009497869018190385759 523.11641050494438332
37.009497869018190385759 1439.98095266071550213 37.009497869018190385759 525.43470310651616728
38.009497869018218807469 1450.19108944512049675 38.009497869018218807469 527.67062399152189300
39.009497869018190385759 1460.10501419341176188 39.009497869018190385759 529.83978004247251192
40.009497869018190385759 1469.73670854179090384 40.009497869018190385759 531.93538697261169546
41.009497869018218807469 1479.09959938437168603 41.009497869018218807469 533.95567334774705159
42.009497869018190385759 1488.20597988771010023 42.009497869018190385759 535.89333293726849661
43.009497869018190385759 1497.06740387292256855 43.009497869018190385759 537.78871552215639440
44.009497869018218807469 1505.69504557084542284 44.009497869018218807469 539.57715861520637191
46.009497869018190385759 1522.29064931049742881 46.009497869018190385759 543.01172393813965300
48.009497869018218807469 1538.06434162420373468 48.009497869018218807469 546.19729984448872528
50.009497869018190385759 1553.07322328527379796 50.009497869018190385759 549.03451387495510971
52.009497869018190385759 1567.37404837124836376 52.009497869018190385759 551.60863330326844789
54.009497869018218807469 1581.02070240481634755 54.009497869018218807469 553.95619536887420509
56.009497869018190385759 1594.05586950782571876 56.009497869018190385759 556.10189979992912868
58.009497869018218807469 1606.51675263773404367 58.009497869018218807469 558.13077712877100112
60.009497869018190385759 1618.44005833275127770 60.009497869018190385759 560.18058566843785684
62.009497869018190385759 1629.85670453920579348 62.009497869018190385759 562.18264018533477611
64.009497869018218807469 1640.79895124537688389 64.009497869018218807469 564.13658240474546801
66.009497869018190385759 1651.30989136370476444 66.009497869018190385759 566.23864095792328044
68.009497869018190385759 1661.42675625468314138 68.009497869018190385759 568.38394235227099216
70.009497869018190385759 1671.17203278767669872 70.009497869018190385759 570.22973260326216405
72.009497869018190385759 1680.56908383455493095 72.009497869018190385759 571.74487618265504807
74.009497869018218807469 1689.63954734827620996 74.009497869018218807469 573.17713143779428719
76.009497869018190385759 1698.40081828413099174 76.009497869018190385759 574.53056663831580408
78.009497869018190385759 1706.87517606301139494 78.009497869018190385759 576.05803036694760522
80.009497869018218807469 1715.07644331027199769 80.009497869018218807469 577.19106610725191331
82.009497869018190385759 1723.00453352634963267 82.009497869018190385759 578.47935924661578611
84.009497869018218807469 1730.66330397547108078 84.009497869018218807469 579.60219152812965149
86.009497869018190385759 1738.05907970291946185 86.009497869018190385759 580.23656549174370411
88.009497869018190385759 1745.20967809368198687 88.009497869018190385759 581.00360458140630726
91.009497869018218807469 1755.49239688888837918 91.009497869018218807469 581.90661913095573254
94.009497869018218807469 1765.27837118639695291 94.009497869018218807469 583.21171089334620774
97.009497869018218807469 1774.63460997830202359 97.009497869018218807469 585.24321942157598642
99.504748934509137825444 1782.13779261907507134 99.504748934509137825444 585.66275736827469700
nan nan nan nan

