Time Pressure difference Time.1 Pressure.1 difference.1
(hr) (psi) (hr) (psi)
0.000200000000020850166 0.57302254553401810 0.000200000000020850166 0.46142479653782087
0.000399999999999067768 1.09932573276047929 0.000399999999999067768 1.05716958185103493
0.000600000000019917934 1.59861843932663827 0.000600000000019917934 1.48522316724894288
0.000799999999998135536 2.07769312715029830 0.000799999999998135536 1.89563066530719171
0.001007140329434719206 2.55662242321695476 0.001007140329434719206 2.30409302135273641
0.001267914553977789183 3.13875615447353917 0.001267914553977789183 2.79546616955355853
0.001596209851982166583 3.84396534128962442 0.001596209851982166583 3.37989890109748004
0.002009509145224797066 4.69523151564796848 0.002009509145224797066 4.07154873960861430
0.002529822128153114136 5.71894401479085701 0.002529822128153114136 4.88584028948986937
0.003184857364431081805 6.94518550993946082 0.003184857364431081805 5.83940406720017791
0.004009497869034817086 8.40800082219592326 0.004009497869034817086 6.95000140441269565
0.005047658755856332391 10.14564742800740405 0.005047658755856332391 8.23645353339036035
0.006354625877790454069 12.20083099478005906 0.006354625877790454069 9.71859940768933406
0.008000000000009777068 14.62093558136487381 0.008000000000009777068 11.41731160423093883
0.010071403294361402914 17.45826525411801455 0.010071403294361402914 13.35460118397232598
0.012679145539692626699 20.77032082826924864 0.012679145539692626699 15.55383747128914784
0.015962098519750611558 24.62014023379401806 0.015962098519750611558 18.04009157336461655
0.020095091452091651263 29.07672998864057234 0.020095091452091651263 20.84058316150292711
0.025298221281360611101 34.21560644262832085 0.025298221281360611101 23.98520009423060628
0.031848573644296607199 40.11945969678422586 0.031848573644296607199 27.50713679507069642
0.040094978690191851456 46.87897919462342600 0.040094978690191851456 31.44385187756732236
0.050476587558435426217 54.59394503635920159 0.050476587558435426217 35.83851093257671039
0.063546258777947173257 63.37469869413513379 0.063546258777947173257 40.74142803297171866
0.080000000000012505552 73.34387084036536919 0.080000000000012505552 46.20979718368946010
0.100714032943542974863 84.63769041132739801 0.100714032943542974863 52.30331607150227313
0.126791455396883634421 97.40564614663105658 0.126791455396883634421 59.07441082097901131
0.159620985197506115583 111.80722866714224040 0.159620985197506115583 66.55507731988950582
0.200950914520774404082 128.00545152421625517 0.200950914520774404082 74.74558003398053074
0.252982212813464002465 146.15829035217981868 0.252982212813464002465 83.61160519047999173
0.318485736442809752589 166.41076860948695071 0.318485736442809752589 93.08782515520084644
0.400949786901833249431 188.88788227464678471 0.400949786901833249431 103.10047545224728083
0.504765875584169521062 213.69685000343821457 0.504765875584169521062 113.58058143637931892
0.635462587779443310865 240.92583924951182439 0.635462587779443310865 124.48056312373982735
0.800000000000011368684 270.65343118691237123 0.800000000000011368684 135.79644717330009485
1.007140329435344483500 302.95696799981521963 1.007140329435344483500 147.59549230506962658
1.267914553968907398485 337.93377041804808414 1.267914553968907398485 159.90855614110759575
1.596209851975117999245 375.65944539640861422 1.596209851975117999245 172.94696638403704014
2.009509145207687197399 416.30577258135372176 2.009509145207687197399 186.82545450102387008
2.529822128134725289783 459.97213670016549258 2.529822128134725289783 201.78604128606301060
3.184857364427983839050 506.89992519942376248 3.184857364427983839050 218.15793417558765555
4.009497869018204596614 557.28455798587845038 4.009497869018204596614 236.06372325462214690
5.009497869018190385759 609.51242678203129799 5.009497869018190385759 254.96573976033400299
6.009497869018190385759 654.88120026391084139 6.009497869018190385759 271.57263394686697211
7.009497869018204596614 695.17544291019498814 7.009497869018204596614 286.38379161331556588
8.009497869018190385759 731.51366160138218220 8.009497869018190385759 299.67675230366671713
9.009497869018204596614 764.65082407068587145 9.009497869018204596614 311.69638454380037729
10.009497869018190385759 795.12638899289436267 10.009497869018190385759 322.60044425590865558
11.009497869018190385759 823.34289896617349314 11.009497869018190385759 332.44500884343085545
12.009497869018204596614 849.61134841384409810 12.009497869018204596614 341.44698178040266612
13.009497869018190385759 874.17737028869305504 13.009497869018190385759 349.69940210609149744
14.009497869018204596614 897.24194373668001390 14.009497869018204596614 357.27059654419770141
15.009497869018190385759 918.96720555680280995 15.009497869018190385759 364.24166095021712408
16.009497869018190385759 939.48768427119432545 16.009497869018190385759 370.68313039140127785
17.009497869018204596614 958.92112836646708729 17.009497869018204596614 376.66071348231633920
18.009497869018190385759 977.36946412258919281 18.009497869018190385759 382.24225912001674033
19.009497869018204596614 994.91932861769817009 19.009497869018204596614 387.44518875603324659
20.009497869018190385759 1011.64890228144224693 20.009497869018190385759 392.29536526073002278
21.009497869018190385759 1027.62223760717893128 21.009497869018190385759 396.81678104429988707
22.009497869018204596614 1042.89414506303592134 22.009497869018204596614 401.04882247798457229
23.009497869018190385759 1057.51473413935445933 23.009497869018190385759 405.00600782607824613
24.009497869018204596614 1071.53032522839293961 24.009497869018204596614 408.73037137516774919
25.009497869018204596614 1084.98434806683962961 25.009497869018204596614 412.24149453214602090
26.009497869018190385759 1097.91503040951056391 26.009497869018190385759 415.55996318005503554
27.009497869018204596614 1110.35724272041807126 27.009497869018204596614 418.70825313748980534
28.009497869018190385759 1122.34127030577883488 28.009497869018190385759 421.69380985501948089
29.009497869018190385759 1133.89427781253357352 29.009497869018190385759 424.50412255230099845
30.009497869018190385759 1145.04147379090454706 30.009497869018190385759 427.19580998011616657
31.009497869018218807469 1155.80595026541550396 31.009497869018218807469 429.74957724268995207
32.009497869018190385759 1166.20897717701609508 32.009497869018190385759 432.17577850654964777
33.009497869018190385759 1176.27023957626056472 33.009497869018190385759 434.47082717850133804
34.009497869018218807469 1186.00866477810905053 34.009497869018218807469 436.68242154773560060
35.009497869018190385759 1195.44111527641621251 35.009497869018190385759 438.79031400028077314
36.009497869018190385759 1204.58317898396853707 36.009497869018190385759 440.82196968843493323
37.009497869018190385759 1213.44929564148287682 37.009497869018190385759 442.77555839338987198
38.009497869018218807469 1222.05321728818762494 38.009497869018218807469 444.65973374863125400
39.009497869018190385759 1230.40752571194002485 39.009497869018190385759 446.48764742853018106
40.009497869018190385759 1238.52400301761463197 40.009497869018190385759 448.25358242136479703
41.009497869018218807469 1246.41396383765527389 41.009497869018218807469 449.95604596740838588
42.009497869018190385759 1254.08776743012754196 42.009497869018190385759 451.58888122106452556
43.009497869018190385759 1261.55515001832645794 43.009497869018190385759 453.18609030799979109
44.009497869018218807469 1268.82552795078959207 44.009497869018218807469 454.69318316748967845
46.009497869018190385759 1282.81038214724003410 46.009497869018190385759 457.58743733400990550
48.009497869018218807469 1296.10262451500580028 48.009497869018218807469 460.27187203616978195
50.009497869018190385759 1308.75037297746939657 50.009497869018190385759 462.66274766580369260
52.009497869018190385759 1320.80145330294431005 52.009497869018190385759 464.83191761309529966
54.009497869018218807469 1332.30127397369574282 54.009497869018218807469 466.81017123493688814
56.009497869018190385759 1343.28580422771688063 56.009497869018190385759 468.61832260368061043
58.009497869018218807469 1353.78639441199584326 58.009497869018218807469 470.32802561126351293
60.009497869018190385759 1363.83397654883128780 60.009497869018190385759 472.05536702092780388
62.009497869018190385759 1373.45460470520515628 62.009497869018190385759 473.74246686684972474
64.009497869018218807469 1382.67546386574122153 64.009497869018218807469 475.38902323656219551
66.009497869018190385759 1391.53286774983257601 66.009497869018190385759 477.16039491063719424
68.009497869018190385759 1400.05819063925991941 68.009497869018190385759 478.96820664668820200
70.009497869018190385759 1408.27038186508275430 70.009497869018190385759 480.52362505401413273
72.009497869018190385759 1416.18912895189100709 72.009497869018190385759 481.80041271277639225
74.009497869018218807469 1423.83266586224362982 74.009497869018218807469 483.00735168465394054
76.009497869018190385759 1431.21565105131389828 76.009497869018190385759 484.14787023646846364
78.009497869018190385759 1438.35685903659714313 78.009497869018190385759 485.43503989117914443
80.009497869018218807469 1445.26793792702801511 80.009497869018218807469 486.38983128509897824
82.009497869018190385759 1451.94881483078529527 82.009497869018190385759 487.47545564676318008
84.009497869018218807469 1458.40274020375250075 84.009497869018218807469 488.42164874647653505
86.009497869018190385759 1464.63504406208608088 86.009497869018190385759 488.95622570591382328
88.009497869018190385759 1470.66074083581997911 88.009497869018190385759 489.60259748004102676
91.009497869018218807469 1479.32582620119751482 91.009497869018218807469 490.36355363510676852
94.009497869018218807469 1487.57231279293728221 94.009497869018218807469 491.46333393212665896
97.009497869018218807469 1495.45666803452081695 97.009497869018218807469 493.17525421004091868
99.504748934509137825444 1501.77948200903347242 99.504748934509137825444 493.52879223773197737
nan nan nan nan

