Time Pressure difference Time.1 Pressure.1 difference.1
(hr) (psi) (hr) (psi)
0.000200000000020850166 0.49073471262443330 0.000200000000020850166 0.39516275003761159
0.000399999999999067768 0.94145911317346531 0.000399999999999067768 0.90535671761655212
0.000600000000019917934 1.36905182271315229 0.000600000000019917934 1.27194046699126195
0.000799999999998135536 1.77932988434803629 0.000799999999998135536 1.62341216245628961
0.001007140329434719206 2.18948343293775727 0.001007140329434719206 1.97321804439607695
0.001267914553977789183 2.68802093646820106 0.001267914553977789183 2.39402846896492694
0.001596209851982166583 3.29195987452479599 0.001596209851982166583 2.89453482913831195
0.002009509145224797066 4.02098155909277732 0.002009509145224797066 3.48686158379014488
0.002529822128153114136 4.89768573590444145 0.002529822128153114136 4.18421831580333503
0.003184857364431081805 5.94783511033979906 0.003184857364431081805 5.00084734736725434
0.004009497869034817086 7.20058556052287901 0.004009497869034817086 5.95195942727771321
0.005047658755856332391 8.68870066941626362 0.005047658755856332391 7.05367299987477381
0.006354625877790454069 10.44875343678292445 0.006354625877790454069 8.32297808282532969
0.008000000000009777068 12.52132342216104099 0.008000000000009777068 9.77774988560769742
0.010071403294361402914 14.95120366410106882 0.010071403294361402914 11.43683861186141826
0.012679145539692626699 17.78763768060656147 0.012679145539692626699 13.32025767776198499
0.015962098519750611558 21.08461095740062419 0.015962098519750611558 15.44947790094932927
0.020095091452091651263 24.90122046024571389 0.020095091452091651263 17.84781012264480538
0.025298221281360611101 29.30213815452242443 0.025298221281360611101 20.54085021124710053
0.031848573644296607199 34.35817958366899916 0.031848573644296607199 23.55702576705793305
0.040094978690191851456 40.14701090296732389 0.040094978690191851456 26.92841622935269541
0.050476587558435426217 46.75408347761310068 0.050476587558435426217 30.69198847489598592
0.063546258777947173257 54.27389339863269413 0.063546258777947173257 34.89083131805410432
0.080000000000012505552 62.81146118966016445 0.080000000000012505552 39.57392552545729814
0.100714032943542974863 72.48345288489656468 0.100714032943542974863 44.79239600901500751
0.126791455396883634421 83.41789017257175942 0.126791455396883634421 50.59114033754860174
0.159620985197506115583 95.75136032068579084 0.159620985197506115583 56.99755968909597215
0.200950914520774404082 109.62346762387188903 0.200950914520774404082 64.01188055129402699
0.252982212813464002465 125.16950192040465595 0.252982212813464002465 71.60471671665128213
0.318485736442809752589 142.51366084572251225 0.318485736442809752589 79.72012180393178937
0.400949786901833249431 161.76299056418835676 0.400949786901833249431 88.29492414709429227
0.504765875584169521062 183.00931279667813101 0.504765875584169521062 97.27005407606375798
0.635462587779443310865 206.32813387425554197 0.635462587779443310865 106.60476424174065357
0.800000000000011368684 231.78675046816513827 0.800000000000011368684 116.29565188731704950
1.007140329435344483500 259.45139818260940956 1.007140329435344483500 126.40031716987685684
1.267914553968907398485 289.40542218569135002 1.267914553968907398485 136.94518646026969577
1.596209851975117999245 321.71357203661102631 1.596209851975117999245 148.11124014089855905
2.009509145207687197399 356.52295928638125133 2.009509145207687197399 159.99673388077241043
2.529822128134725289783 393.91869670405816350 2.529822128134725289783 172.80893352957878051
3.184857364427983839050 434.10750774258741558 3.184857364427983839050 186.82977130441969393
4.009497869018204596614 477.25674939782805950 4.009497869018204596614 202.16423297001583137
5.009497869018190385759 521.98453259662210257 5.009497869018190385759 218.35186068247926983
6.009497869018190385759 560.83820805891059535 6.009497869018190385759 232.57395283178163936
7.009497869018204596614 595.34607121290855503 7.009497869018204596614 245.25818185161230645
8.009497869018190385759 626.46600784661438865 8.009497869018190385759 256.64223173786598409
9.009497869018204596614 654.84456996131848427 9.009497869018204596614 266.93580712889428241
10.009497869018190385759 680.94374827589911092 10.009497869018190385759 276.27400970218809562
11.009497869018190385759 705.10827901019558794 11.009497869018190385759 284.70486397035330128
12.009497869018204596614 727.60449681394482013 12.009497869018204596614 292.41412538896099704
13.009497869018190385759 748.64276097830622803 13.009497869018190385759 299.48147229973369576
14.009497869018204596614 768.39518941418020859 14.009497869018204596614 305.96541949476983291
15.009497869018190385759 787.00063556822817645 15.009497869018190385759 311.93541721062979377
16.009497869018190385759 804.57430924530478933 16.009497869018190385759 317.45187145791027206
17.009497869018204596614 821.21704988042085915 17.009497869018204596614 322.57105488824998929
18.009497869018190385759 837.01614682038973569 18.009497869018190385759 327.35107308450517394
19.009497869018204596614 852.04579578748041513 19.009497869018204596614 331.80684572318250503
20.009497869018190385759 866.37295025669209281 20.009497869018190385759 335.96052168542934169
21.009497869018190385759 880.05246458264946341 21.009497869018190385759 339.83264799616284790
22.009497869018204596614 893.13127827852690643 22.009497869018204596614 343.45695502031054502
23.009497869018190385759 905.65230495485184292 23.009497869018190385759 346.84587615392604221
24.009497869018204596614 917.65521325042527678 24.009497869018204596614 350.03540942834212046
25.009497869018204596614 929.17719625567463027 25.009497869018204596614 353.04232429907017377
26.009497869018190385759 940.25099210005078021 26.009497869018190385759 355.88425045184862938
27.009497869018204596614 950.90646373967922500 27.009497869018204596614 358.58043610730197770
28.009497869018190385759 961.16954741591507627 28.009497869018190385759 361.13725752596968732
29.009497869018190385759 971.06350684728715805 29.009497869018190385759 363.54400051476432054
30.009497869018190385759 980.60993055722360623 30.009497869018190385759 365.84915319445980231
31.009497869018218807469 989.82859448317560691 31.009497869018218807469 368.03619147676840839
32.009497869018190385759 998.73771413593033230 32.009497869018190385759 370.11398263746286830
33.009497869018190385759 1007.35414773110551323 33.009497869018190385759 372.07945512936930754
34.009497869018218807469 1015.69410456193145365 34.009497869018218807469 373.97345761790410279
35.009497869018190385759 1023.77202561531191805 35.009497869018190385759 375.77865010990097971
36.009497869018190385759 1031.60126033091819409 36.009497869018190385759 377.51855367573534750
37.009497869018190385759 1039.19417485745816521 37.009497869018190385759 379.19160092175422960
38.009497869018218807469 1046.56254639823896468 38.009497869018218807469 380.80520279256143112
39.009497869018190385759 1053.71714995696152073 39.009497869018190385759 382.37062234088222112
40.009497869018190385759 1060.66807569132538447 40.009497869018190385759 383.88296353579022480
41.009497869018218807469 1067.42501341710431007 41.009497869018218807469 385.34094798253249792
42.009497869018190385759 1073.99683477044868596 42.009497869018190385759 386.73930297783073229
43.009497869018190385759 1080.39187782248313852 43.009497869018190385759 388.10714783557165219
44.009497869018218807469 1086.61820670459269422 44.009497869018218807469 389.39781743847680673
46.009497869018190385759 1098.59479202165721290 46.009497869018190385759 391.87644763852546248
48.009497869018218807469 1109.97822673869927712 48.009497869018218807469 394.17538910669367169
50.009497869018190385759 1120.80971889454303891 50.009497869018190385759 396.22292750491811830
52.009497869018190385759 1131.13022632732554484 52.009497869018190385759 398.08059785142364717
54.009497869018218807469 1140.97863671898744542 54.009497869018218807469 399.77476805498508838
56.009497869018190385759 1150.38575401224829875 56.009497869018190385759 401.32326322195098101
58.009497869018218807469 1159.37842654604355630 58.009497869018218807469 402.78744752087317238
60.009497869018190385759 1167.98314440735407516 60.009497869018190385759 404.26673729207391261
62.009497869018190385759 1176.22222021751258580 62.009497869018190385759 405.71156431416892474
64.009497869018218807469 1184.11893511217522246 64.009497869018218807469 407.12167003026735301
66.009497869018190385759 1191.70438804685409195 66.009497869018190385759 408.63866718195566818
68.009497869018190385759 1199.00544785816509830 68.009497869018190385759 410.18687148854763791
70.009497869018190385759 1206.03834269385674816 70.009497869018190385759 411.51892693920797228
72.009497869018190385759 1212.81993288830358324 72.009497869018190385759 412.61236388979284584
74.009497869018218807469 1219.36583394991112073 74.009497869018218807469 413.64598264377673331
76.009497869018190385759 1225.68859933376234039 76.009497869018190385759 414.62271915812442558
78.009497869018190385759 1231.80430747781679202 78.009497869018190385759 415.72504721751113266
80.009497869018218807469 1237.72293378607105296 80.009497869018218807469 416.54272757575051855
82.009497869018190385759 1243.44441583419734343 82.009497869018190385759 417.47245287764576460
84.009497869018218807469 1248.97153730243007885 84.009497869018218807469 418.28276968366668598
86.009497869018190385759 1254.30886279990659204 86.009497869018190385759 418.74057971681395429
88.009497869018190385759 1259.46925063746471096 88.009497869018190385759 419.29413047899072353
91.009497869018218807469 1266.89000259528143033 91.009497869018218807469 419.94581094599220705
94.009497869018218807469 1273.95226787489127673 94.009497869018218807469 420.88765934657322987
97.009497869018218807469 1280.70440500084282576 97.009497869018218807469 422.35374250886013670
99.504748934509137825444 1286.11924307823232994 99.504748934509137825444 422.65651136808384081
nan nan nan nan

