Time Pressure difference Time.1 Pressure.1 difference.1
(hr) (psi) (hr) (psi)
0.000200000000020850166 0.57077833190921123 0.000200000000020850166 0.45961764981508790
0.000399999999999067768 1.09502027949901537 0.000399999999999067768 1.05302923100827628
0.000600000000019917934 1.59235753160081583 0.000600000000019917934 1.47940636633282452
0.000799999999998135536 2.06955594780114582 0.000799999999998135536 1.88820652432034897
0.001007140329434719206 2.54660954166388587 0.001007140329434719206 2.29506915834482728
0.001267914553977789183 3.12646337580066636 0.001267914553977789183 2.78451786862841377
0.001596209851982166583 3.82891064674149240 0.001596209851982166583 3.36666169913495716
0.002009509145224797066 4.67684288046919061 0.002009509145224797066 4.05560272626811091
0.002529822128153114136 5.69654606173031741 0.002529822128153114136 4.86670514475296390
0.003184857364431081805 6.91798504449583351 0.003184857364431081805 5.81653433847746104
0.004009497869034817086 8.37507131505938496 0.004009497869034817086 6.92278207776355980
0.005047658755856332391 10.10591251640946453 0.005047658755856332391 8.20419588247629861
0.006354625877790454069 12.15304706138013913 0.006354625877790454069 9.68053700792031613
0.008000000000009777068 14.56367343156840555 0.008000000000009777068 11.37259628463212380
0.010071403294361402914 17.38989084711755240 0.010071403294361402914 13.30229856836930225
0.012679145539692626699 20.68897492424208195 0.012679145539692626699 15.49292165873840688
0.015962098519750611558 24.52371670807419690 0.015962098519750611558 17.96943847320783405
0.020095091452091651263 28.96285245604798675 0.020095091452091651263 20.75896207862497889
0.025298221281360611101 34.08160276204361594 0.025298221281360611101 23.89126327924014959
0.031848573644296607199 39.96233387551744443 0.031848573644296607199 27.39940649430671016
0.040094978690191851456 46.69538005939644165 0.040094978690191851456 31.32070363261601642
0.050476587558435426217 54.38013063021158189 0.050476587558435426217 35.69815122918542016
0.063546258777947173257 63.12649491334869367 0.063546258777947173257 40.58186630438305542
0.080000000000012505552 73.05662330443705343 0.080000000000012505552 46.02881886573767645
0.100714032943542974863 84.30621120606110708 0.100714032943542974863 52.09847279707080503
0.126791455396883634421 97.02416189279307446 0.126791455396883634421 58.84304889870363553
0.159620985197506115583 111.36934134860251788 0.159620985197506115583 66.29441774814058874
0.200950914520774404082 127.50412469057052078 0.200950914520774404082 74.45284277536181605
0.252982212813464002465 145.58586884949505702 0.252982212813464002465 83.28414459573922102
0.318485736442809752589 165.75902930683884051 0.318485736442809752589 92.72325142743895299
0.400949786901833249431 188.14811250072520465 0.400949786901833249431 102.69668768937947334
0.504765875584169521062 212.85991717052655758 0.504765875584169521062 113.13574887200708474
0.635462587779443310865 239.98226546655027391 0.635462587779443310865 123.99304133604894673
0.800000000000011368684 269.59343080367375478 0.800000000000011368684 135.26460730186417436
1.007140329435344483500 301.77045245934601780 1.007140329435344483500 147.01744207410982312
1.267914553968907398485 336.61027001171112261 1.267914553968907398485 159.28228242253928215
1.596209851975117999245 374.18819430477776677 1.596209851975117999245 172.26962839558780161
2.009509145207687197399 414.67533221876357175 2.009509145207687197399 186.09376212047158106
2.529822128134725289783 458.17067924572614857 2.529822128134725289783 200.99575652906798950
3.184857364427983839050 504.91467745060089101 3.184857364427983839050 217.30352973364668401
4.009497869018204596614 555.10198138802252288 4.009497869018204596614 235.13919170140559345
5.009497869018190385759 607.12530239515660924 5.009497869018190385759 253.96717942184704953
6.009497869018190385759 652.31639138559262392 6.009497869018190385759 270.50903355281923268
7.009497869018204596614 692.45282368208722801 7.009497869018204596614 285.26218407436005009
8.009497869018190385759 728.64872558988838591 8.009497869018190385759 298.50308356096309126
9.009497869018204596614 761.65610804952120816 9.009497869018204596614 310.47564152339379007
10.009497869018190385759 792.01231697333992088 10.009497869018190385759 321.33699604080720746
11.009497869018190385759 820.11831842191952546 11.009497869018190385759 331.14300489234688030
12.009497869018204596614 846.28388882475599075 12.009497869018204596614 340.10972206063604517
13.009497869018190385759 870.75369912568248765 13.009497869018190385759 348.32982220228171855
14.009497869018204596614 893.72794134606635907 14.009497869018204596614 355.87136444284965364
15.009497869018190385759 915.36811728438726732 15.009497869018190385759 362.81512703004653986
16.009497869018190385759 935.80822858867020386 16.009497869018190385759 369.23136878412424267
17.009497869018204596614 955.16556258957484715 17.009497869018204596614 375.18554097520541291
18.009497869018190385759 973.54164637798373860 18.009497869018190385759 380.74522677359368572
19.009497869018204596614 991.02277772232855568 19.009497869018204596614 385.92777940059181674
20.009497869018190385759 1007.68683086258545245 20.009497869018190385759 390.75896043594912044
21.009497869018190385759 1023.59760743378274128 21.009497869018190385759 395.26266832480524727
22.009497869018204596614 1038.80970324164036356 22.009497869018204596614 399.47813518368434416
23.009497869018190385759 1053.37303152523168137 23.009497869018190385759 403.41982241683774646
24.009497869018204596614 1067.33373126535752817 24.009497869018204596614 407.12959968570891078
25.009497869018204596614 1080.73506210835330421 25.009497869018204596614 410.62697170760753806
26.009497869018190385759 1093.61510209197990662 26.009497869018190385759 413.93244374201304936
27.009497869018204596614 1106.00858511185242605 27.009497869018204596614 417.06840358212105002
28.009497869018190385759 1117.94567786332800097 28.009497869018190385759 420.04226751877263268
29.009497869018190385759 1129.45343860439038508 29.009497869018190385759 422.84157376945910300
30.009497869018190385759 1140.55697715725864327 30.009497869018190385759 425.52271934050742175
31.009497869018218807469 1151.27929510771787136 31.009497869018218807469 428.06648490361936865
32.009497869018190385759 1161.64157909407754232 32.009497869018190385759 430.48318407375631978
33.009497869018190385759 1171.66343707139253638 33.009497869018190385759 432.76924430443415304
34.009497869018218807469 1181.36372222675890953 34.009497869018218807469 434.97217707692203703
35.009497869018190385759 1190.75923101293142281 35.009497869018190385759 437.07181407599767908
36.009497869018190385759 1199.86549029343086659 36.009497869018190385759 439.09551288808853542
37.009497869018190385759 1208.69688325646416160 37.009497869018190385759 441.04145046234521033
38.009497869018218807469 1217.26710808209804782 38.009497869018218807469 442.91824654073838019
39.009497869018190385759 1225.58869728225863582 39.009497869018190385759 444.73900128977612667
40.009497869018190385759 1233.67338681780688603 40.009497869018190385759 446.49802008812184795
41.009497869018218807469 1241.53244700800382816 41.009497869018218807469 448.19381602236632034
42.009497869018190385759 1249.17619653940914759 42.009497869018190385759 449.82025635988543399
43.009497869018190385759 1256.61433350389415864 43.009497869018190385759 451.41121005875174887
44.009497869018218807469 1263.85623737134778821 44.009497869018218807469 452.91240046578934653
46.009497869018190385759 1277.78632059836058943 46.009497869018190385759 455.79531943322399457
48.009497869018218807469 1291.02650457565187025 48.009497869018218807469 458.46924068354763904
50.009497869018190385759 1303.62471877520783892 50.009497869018190385759 460.85075257050681330
52.009497869018190385759 1315.62860165815459368 52.009497869018190385759 463.01142707414061306
54.009497869018218807469 1327.08338386674904541 54.009497869018218807469 464.98193296639271921
56.009497869018190385759 1338.02489376729499782 56.009497869018190385759 466.78300280236072695
58.009497869018218807469 1348.48435892474276443 58.009497869018218807469 468.48600984516201606
60.009497869018190385759 1358.49259021769989886 60.009497869018190385759 470.20658621014081291
62.009497869018190385759 1368.07553967372268744 62.009497869018190385759 471.88707861541297461
64.009497869018218807469 1377.26028580882575625 64.009497869018218807469 473.52718633093599010
66.009497869018190385759 1386.08300012156951198 66.009497869018190385759 475.29162051803683653
68.009497869018190385759 1394.57493401795727550 68.009497869018190385759 477.09235205146615044
70.009497869018190385759 1402.75496261495845829 70.009497869018190385759 478.64167874179219098
72.009497869018190385759 1410.64269633197500298 72.009497869018190385759 479.91346592669503934
74.009497869018218807469 1418.25629771918033839 74.009497869018218807469 481.11567798353905800
76.009497869018190385759 1425.61036782265341571 76.009497869018190385759 482.25172975251359730
78.009497869018190385759 1432.72360763044866871 78.009497869018190385759 483.53385827280641251
80.009497869018218807469 1439.60761963227446358 80.009497869018218807469 484.48491027484396909
82.009497869018190385759 1446.26233122178723534 82.009497869018190385759 485.56628284396902018
84.009497869018218807469 1452.69098012462541192 84.009497869018218807469 486.50877022658175974
86.009497869018190385759 1458.89887548220849567 86.009497869018190385759 487.04125354257479330
88.009497869018190385759 1464.90097292131940776 88.009497869018190385759 487.68509383455784700
91.009497869018218807469 1473.53212192103615052 91.009497869018218807469 488.44306974358551088
94.009497869018218807469 1481.74631156789973829 94.009497869018218807469 489.53854280706610780
97.009497869018218807469 1489.59978813360226013 97.009497869018218807469 491.24375843637238859
99.504748934509137825444 1495.89783912910252184 99.504748934509137825444 491.59591185037794503
nan nan nan nan

