Time Pressure difference Time.1 Pressure.1 difference.1
(hr) (psi) (hr) (psi)
0.000200000000020850166 0.19225430052512096 0.000200000000020850166 0.15481223591412527
0.000399999999999067768 0.36883382939875092 0.000399999999999067768 0.35469005552965527
0.000600000000019917934 0.53635109517878066 0.000600000000019917934 0.49830594514749138
0.000799999999998135536 0.69708503091073981 0.000799999999998135536 0.63600141120619880
0.001007140329434719206 0.85777018637957880 0.001007140329434719206 0.77304426434419471
0.001267914553977789183 1.05308137297610926 0.001267914553977789183 0.93790444592071087
0.001596209851982166583 1.28968549962328138 0.001596209851982166583 1.13398696812278388
0.002009509145224797066 1.57529308031531068 0.002009509145224797066 1.36604180950315124
0.002529822128153114136 1.91875797885280686 0.002529822128153114136 1.63924406579490389
0.003184857364431081805 2.33017320633739100 0.003184857364431081805 1.95917342724601262
0.004009497869034817086 2.82096111136338390 0.004009497869034817086 2.33178898294264059
0.005047658755856332391 3.40395742689021263 0.005047658755856332391 2.76340542830459901
0.006354625877790454069 4.09349029459330982 0.006354625877790454069 3.26067891354589934
0.008000000000009777068 4.90545749923077334 0.008000000000009777068 3.83061237896521023
0.010071403294361402914 5.85740753303959583 0.010071403294361402914 4.48059073665912244
0.012679145539692626699 6.96863244499372936 0.012679145539692626699 5.21845460851346132
0.015962098519750611558 8.26028203666457195 0.015962098519750611558 6.05261558009752765
0.020095091452091651263 9.75550862543162722 0.020095091452091651263 6.99220609987761410
0.025298221281360611101 11.47964863675649916 0.025298221281360611101 8.04725381751601354
0.031848573644296607199 13.46044535518739593 0.031848573644296607199 9.22889576544800150
0.040094978690191851456 15.72832591777835631 0.040094978690191851456 10.54969965082872463
0.050476587558435426217 18.31676745997952338 0.050476587558435426217 12.02414792385406805
0.063546258777947173257 21.26279055403750462 0.063546258777947173257 13.66912141576205109
0.080000000000012505552 24.60753891119308534 0.080000000000012505552 15.50380923786970300
0.100714032943542974863 28.39671858447929864 0.100714032943542974863 17.54824050962935544
0.126791455396883634421 32.68048441212034305 0.126791455396883634421 19.82000467492376572
0.159620985197506115583 37.51234695490281013 0.159620985197506115583 22.32983664649034239
0.200950914520774404082 42.94699874898639536 0.200950914520774404082 25.07782515500391085
0.252982212813464002465 49.03744206332926581 0.252982212813464002465 28.05245761612709998
0.318485736442809752589 55.83233359352238523 0.318485736442809752589 31.23181601160132459
0.400949786901833249431 63.37361063261647587 0.400949786901833249431 34.59115168567566201
0.504765875584169521062 71.69724601943030962 0.504765875584169521062 38.10732301455546178
0.635462587779443310865 80.83282074037146003 0.635462587779443310865 41.76436647885265785
0.800000000000011368684 90.80669949743665370 0.800000000000011368684 45.56094898634219703
1.007140329435344483500 101.64483130019910107 1.007140329435344483500 49.51963645222310362
1.267914553968907398485 113.37986814286992399 1.267914553968907398485 53.65078189068492520
1.596209851975117999245 126.03717684970888513 1.596209851975117999245 58.02528767715080704
2.009509145207687197399 139.67439106189021913 2.009509145207687197399 62.68164726731480130
2.529822128134725289783 154.32485526363254280 2.529822128134725289783 67.70106084924047707
3.184857364427983839050 170.06955714915392264 3.184857364427983839050 73.19398052627417428
4.009497869018204596614 186.97406188299055430 4.009497869018204596614 79.20153639221656761
5.009497869018190385759 204.49698914227423074 5.009497869018190385759 85.54333566371519737
6.009497869018190385759 219.71862724259150923 6.009497869018190385759 91.11510042342665372
7.009497869018204596614 233.23771387456935145 7.009497869018204596614 96.08437917052494015
8.009497869018190385759 245.42951831795718931 8.009497869018190385759 100.54428895827982160
9.009497869018204596614 256.54733914643117032 9.009497869018204596614 104.57698541482596966
10.009497869018190385759 266.77216967516170598 10.009497869018190385759 108.23539709369258333
11.009497869018190385759 276.23906662442112747 11.009497869018190385759 111.53833847619023345
12.009497869018204596614 285.05237146521920977 12.009497869018204596614 114.55858266000453227
13.009497869018190385759 293.29449629790354948 13.009497869018190385759 117.32734509303591608
14.009497869018204596614 301.03287146256752749 14.009497869018204596614 119.86755001548146993
15.009497869018190385759 308.32189533694298689 15.009497869018190385759 122.20640582794490570
16.009497869018190385759 315.20670346957825814 16.009497869018190385759 124.36757769006545971
17.009497869018204596614 321.72680155376241373 17.009497869018204596614 126.37311144250038808
18.009497869018190385759 327.91638678786614491 18.009497869018190385759 128.24577101024058834
19.009497869018204596614 333.80452670332692833 19.009497869018204596614 129.99140144947853059
20.009497869018190385759 339.41745154873456158 20.009497869018190385759 131.61867998956608972
21.009497869018190385759 344.77665152094652967 21.009497869018190385759 133.13565630337475909
22.009497869018204596614 349.90051603289850846 22.009497869018204596614 134.55554487838386990
23.009497869018190385759 354.80585727651970274 23.009497869018190385759 135.88321672493751180
24.009497869018204596614 359.50821616670623371 24.009497869018204596614 137.13277473031087084
25.009497869018204596614 364.02216377699448913 25.009497869018204596614 138.31078863545891977
26.009497869018190385759 368.36052586846506074 26.009497869018190385759 139.42416519226389937
27.009497869018204596614 372.53500180045358547 27.009497869018204596614 140.48044524325703719
28.009497869018190385759 376.55575256995450673 28.009497869018190385759 141.48212680514362205
29.009497869018190385759 380.43189216425730592 29.009497869018190385759 142.42501239679029368
30.009497869018190385759 384.17187828232698621 30.009497869018190385759 143.32809812648807224
31.009497869018218807469 387.78345850941485651 31.009497869018218807469 144.18491038038030183
32.009497869018190385759 391.27376910508246510 32.009497869018190385759 144.99892307595726493
33.009497869018190385759 394.64941458368008398 33.009497869018190385759 145.76893287842671043
34.009497869018218807469 397.91674523234206617 34.009497869018218807469 146.51094299969719259
35.009497869018190385759 401.08141857185239587 35.009497869018190385759 147.21816018025086237
36.009497869018190385759 404.14866448939937982 36.009497869018190385759 147.89979922967071957
37.009497869018190385759 407.12332764994926038 37.009497869018190385759 148.55524609282139181
38.009497869018218807469 410.01002198833441525 38.009497869018218807469 149.18740414281754170
39.009497869018190385759 412.81296880935843774 39.009497869018190385759 149.80068588659563034
40.009497869018190385759 415.53612111687596098 40.009497869018190385759 150.39317321447879294
41.009497869018218807469 418.18327507346918992 41.009497869018218807469 150.96436529193726983
42.009497869018190385759 420.75790630488614852 42.009497869018190385759 151.51219644100990536
43.009497869018190385759 423.26328140301546910 43.009497869018190385759 152.04807468558217920
44.009497869018218807469 425.70255963884187622 44.009497869018218807469 152.55371811233007406
46.009497869018190385759 430.39460602067970285 46.009497869018190385759 153.52476683399549984
48.009497869018218807469 434.85427480464289829 48.009497869018218807469 154.42541920795773080
50.009497869018190385759 439.09770999374626399 50.009497869018190385759 155.22757983043285890
52.009497869018190385759 443.14095757030895584 52.009497869018190385759 155.95535617045104004
54.009497869018218807469 446.99925249509112746 54.009497869018218807469 156.61907833861459949
56.009497869018190385759 450.68466277614004412 56.009497869018190385759 157.22572964640460214
58.009497869018218807469 454.20770674136156231 58.009497869018218807469 157.79935062936650070
60.009497869018190385759 457.57876236690549376 60.009497869018190385759 158.37888945741309499
62.009497869018190385759 460.80657103033649946 62.009497869018190385759 158.94492687308144241
64.009497869018218807469 463.90025354242231970 64.009497869018218807469 159.49736158197973168
66.009497869018190385759 466.87199348786811015 66.009497869018190385759 160.09167296610155518
68.009497869018190385759 469.73231722492141671 68.009497869018190385759 160.69821032401941352
70.009497869018190385759 472.48758242731895507 70.009497869018190385759 161.22006741368360849
72.009497869018190385759 475.14439443947259178 72.009497869018190385759 161.64844134097066330
74.009497869018218807469 477.70887092244993255 74.009497869018218807469 162.05338039550397866
76.009497869018190385759 480.18592992191599933 76.009497869018190385759 162.43603479213106766
78.009497869018190385759 482.58187046005934917 78.009497869018190385759 162.86789197393349582
80.009497869018218807469 484.90060058387228992 80.009497869018218807469 163.18823321184129327
82.009497869018190385759 487.14209583748277055 82.009497869018190385759 163.55247010602889191
84.009497869018218807469 489.30744677854352176 84.009497869018218807469 163.86992653765599925
86.009497869018190385759 491.39844167618292659 86.009497869018190385759 164.04928199271520839
88.009497869018190385759 493.42011800888479911 88.009497869018190385759 164.26614562972653744
91.009497869018218807469 496.32733333382219598 91.009497869018218807469 164.52145337365854516
94.009497869018218807469 499.09410494488889753 94.009497869018218807469 164.89043971352029416
97.009497869018218807469 501.73937817868386446 97.009497869018218807469 165.46480461094063230
99.504748934509137825444 503.86074004741720955 99.504748934509137825444 165.58341984999623264
nan nan nan nan

