Time Pressure difference Time.1 Pressure.1 difference.1
(hr) (psi) (hr) (psi)
0.000200000000020850166 0.57152640311748026 0.000200000000020850166 0.46022003205599887
0.000399999999999067768 1.09645543058617001 0.000399999999999067768 1.05440934795586228
0.000600000000019917934 1.59444450084275657 0.000600000000019917934 1.48134529997153064
0.000799999999998135536 2.07226834091752998 0.000799999999998135536 1.89068123798262988
0.001007140329434719206 2.54994716884824202 0.001007140329434719206 2.29807711268079684
0.001267914553977789183 3.13056096869162381 0.001267914553977789183 2.78816730227012854
0.001596209851982166583 3.83392887825753714 0.001596209851982166583 3.37107409978913131
0.002009509145224797066 4.68297242552878323 0.002009509145224797066 4.06091806404827871
0.002529822128153114136 5.70401204608383061 0.002529822128153114136 4.87308352633193298
0.003184857364431081805 6.92705186631037595 0.003184857364431081805 5.82415758138503303
0.004009497869034817086 8.38604781743823047 0.004009497869034817086 6.93185518664660449
0.005047658755856332391 10.11915748694211103 0.005047658755856332391 8.21494843278098585
0.006354625877790454069 12.16897503918011303 0.006354625877790454069 9.69322447450998759
0.008000000000009777068 14.58276081483389675 0.008000000000009777068 11.38750139116506332
0.010071403294361402914 17.41268231611771000 0.010071403294361402914 13.31973277357030838
0.012679145539692626699 20.71609022558447322 0.012679145539692626699 15.51322692958865446
0.015962098519750611558 24.55585788331413610 0.015962098519750611558 17.99298950659342822
0.020095091452091651263 29.00081163357884861 0.020095091452091651263 20.78616910625096281
0.025298221281360611101 34.12627065557185091 0.025298221281360611101 23.92257555090363397
0.031848573644296607199 40.01470914927303824 0.031848573644296607199 27.43531659456137461
0.040094978690191851456 46.75657977113877450 0.040094978690191851456 31.36175304759978744
0.050476587558435426217 54.45140209892745276 0.050476587558435426217 35.74493779698251927
0.063546258777947173257 63.20922950694417608 0.063546258777947173257 40.63505354724594554
0.080000000000012505552 73.15237248307983009 0.080000000000012505552 46.08914497172160196
0.100714032943542974863 84.41670427448320879 0.100714032943542974863 52.16675388854796580
0.126791455396883634421 97.15132331073907324 0.126791455396883634421 58.92016953946209412
0.159620985197506115583 111.51530378811575872 0.159620985197506115583 66.38130427205689443
0.200950914520774404082 127.67123363511909417 0.200950914520774404082 74.55042186156804007
0.252982212813464002465 145.77667601705664424 0.252982212813464002465 83.39329812731946845
0.318485736442809752589 165.97627574105487724 0.318485736442809752589 92.84477600335958414
0.400949786901833249431 188.39470242536572187 0.400949786901833249431 102.83128361033541864
0.504765875584169521062 213.13889478149710044 0.504765875584169521062 113.28402639346450087
0.635462587779443310865 240.29679006087079074 0.635462587779443310865 124.15554859861256887
0.800000000000011368684 269.94676426475325570 0.800000000000011368684 135.44188725900949066
1.007140329435344483500 302.16595763950243736 1.007140329435344483500 147.21012548442976708
1.267914553968907398485 337.05143681382344312 1.267914553968907398485 159.49104032872872949
1.596209851975117999245 374.67861133532130680 1.596209851975117999245 172.49540772507086217
2.009509145207687197399 415.21881233962693614 2.009509145207687197399 186.33765958065566792
2.529822128134725289783 458.77116506387261552 2.529822128134725289783 201.25918478139968215
3.184857364427983839050 505.57642670020845799 3.184857364427983839050 217.58833121429367452
4.009497869018204596614 555.82950692064127907 4.009497869018204596614 235.44736888581113021
5.009497869018190385759 607.92101052411476303 5.009497869018190385759 254.30003286800933893
6.009497869018190385759 653.17132767836540097 6.009497869018190385759 270.86356701750179354
7.009497869018204596614 693.36036342478985262 7.009497869018204596614 285.63605325401186974
8.009497869018190385759 729.60370426038639380 8.009497869018190385759 298.89430647519759532
9.009497869018204596614 762.65434672324283838 9.009497869018204596614 310.88255586352937598
10.009497869018190385759 793.05034097985799235 10.009497869018190385759 321.75814544584096666
11.009497869018190385759 821.19317860333740100 11.009497869018190385759 331.57700620937487201
12.009497869018204596614 847.39304202111861741 12.009497869018204596614 340.55547530055827110
13.009497869018190385759 871.89492284668608590 13.009497869018190385759 348.78634883688494028
14.009497869018204596614 894.89927547627087279 14.009497869018204596614 356.33777514329904079
15.009497869018190385759 916.56781337519248609 15.009497869018190385759 363.29063833677003004
16.009497869018190385759 937.03471381617816860 16.009497869018190385759 369.71528931988325439
17.009497869018204596614 956.41741784853900299 17.009497869018204596614 375.67726514424242623
18.009497869018190385759 974.81758562618574615 18.009497869018190385759 381.24423755573468497
19.009497869018204596614 992.32162802078505592 19.009497869018204596614 386.43358251907233125
20.009497869018190385759 1009.00752133553760359 20.009497869018190385759 391.27109537754273560
21.009497869018190385759 1024.93915082491503199 21.009497869018190385759 395.78070589797010825
22.009497869018204596614 1040.17118384877221615 22.009497869018204596614 400.00169761511779143
23.009497869018190385759 1054.75359906327253157 23.009497869018190385759 403.94855088658459863
24.009497869018204596614 1068.73259591970258953 24.009497869018204596614 407.66319024886183797
25.009497869018204596614 1082.15149076118200355 25.009497869018204596614 411.16514598245368006
26.009497869018190385759 1095.04841153115671659 26.009497869018190385759 414.47495022136035914
27.009497869018204596614 1107.45813764804097445 27.009497869018204596614 417.61502010057733969
28.009497869018190385759 1119.41087534414486981 28.009497869018190385759 420.59278163085491542
29.009497869018190385759 1130.93371834043819035 29.009497869018190385759 423.39575669707306815
30.009497869018190385759 1142.05180936847409612 30.009497869018190385759 426.08041622037700336
31.009497869018218807469 1152.78818016028390048 31.009497869018218807469 428.62751568330958207
32.009497869018190385759 1163.16404512172357499 32.009497869018190385759 431.04738221802074349
33.009497869018190385759 1173.19903790634862162 33.009497869018190385759 433.33643859578984348
34.009497869018218807469 1182.91203641054221407 34.009497869018218807469 435.54225856719324383
35.009497869018190385759 1192.31985910075968604 35.009497869018190385759 437.64464738409202482
36.009497869018190385759 1201.43805319027660516 36.009497869018190385759 439.67099848820402030
37.009497869018190385759 1210.28102071813714247 37.009497869018190385759 441.61948643936011649
38.009497869018218807469 1218.86247781746124019 38.009497869018218807469 443.49874227670267146
39.009497869018190385759 1227.19497342548561392 39.009497869018190385759 445.32188333602744024
40.009497869018190385759 1235.29025888440946801 40.009497869018190385759 447.08320753253616431
41.009497869018218807469 1243.15961928455453744 41.009497869018218807469 448.78122600404702780
42.009497869018190385759 1250.81338683631543063 42.009497869018190385759 450.40979798027842662
43.009497869018190385759 1258.26127234203818261 43.009497869018190385759 452.00283680850111523
44.009497869018218807469 1265.51266756449490458 44.009497869018218807469 453.50599469968943822
46.009497869018190385759 1279.46100778132040432 46.009497869018190385759 456.39269206681927926
48.009497869018218807469 1292.71854455543643780 48.009497869018218807469 459.07011780108837229
50.009497869018190385759 1305.33327017596184305 50.009497869018190385759 461.45475093560577307
52.009497869018190385759 1317.35288553975124159 52.009497869018190385759 463.61825725379213736
54.009497869018218807469 1328.82268056906468701 54.009497869018218807469 465.59134572257414675
56.009497869018190385759 1339.77853058743562542 56.009497869018190385759 467.39477606946735477
58.009497869018218807469 1350.25170408716053316 58.009497869018218807469 469.10001510052916274
60.009497869018190385759 1360.27305232807702851 60.009497869018190385759 470.82284648040314323
62.009497869018190385759 1369.86856135088351039 62.009497869018190385759 472.50554136589187237
64.009497869018218807469 1379.06534516113083555 64.009497869018218807469 474.14779863281142980
66.009497869018190385759 1387.89962266432394244 66.009497869018190385759 475.91454531557030805
68.009497869018190385759 1396.40268622505823259 68.009497869018190385759 477.71763691654018658
70.009497869018190385759 1404.59343569833322363 70.009497869018190385759 479.26899417919946700
72.009497869018190385759 1412.49150720528041347 72.009497869018190385759 480.54244818872217593
74.009497869018218807469 1420.11508710020143553 74.009497869018218807469 481.74623588391068552
76.009497869018190385759 1427.47879556554016744 76.009497869018190385759 482.88377658049859065
78.009497869018190385759 1434.60135809916482685 78.009497869018190385759 484.16758547893067544
80.009497869018218807469 1441.49439239719231409 80.009497869018218807469 485.11988394492897214
82.009497869018190385759 1448.15782575811999777 82.009497869018190385759 486.20267377823375909
84.009497869018218807469 1454.59490015100118399 84.009497869018218807469 487.14639639988007502
86.009497869018190385759 1460.81093167550102407 86.009497869018190385759 487.67957759702113663
88.009497869018190385759 1466.82089555948618909 88.009497869018190385759 488.32426171638559254
91.009497869018218807469 1475.46335668108986283 91.009497869018218807469 489.08323104075930132
94.009497869018218807469 1483.68831197624558627 94.009497869018218807469 490.18013984875295819
97.009497869018218807469 1491.55208143390859732 97.009497869018218807469 491.88759036092852739
99.504748934509137825444 1497.85838675574609624 99.504748934509137825444 492.24020531282928914
nan nan nan nan

