Time Pressure difference Time.1 Pressure.1 difference.1
(hr) (psi) (hr) (psi)
0.000200000000020850166 0.04264005887133033 0.000200000000020850166 0.03433578773192662
0.000399999999999067768 0.08180361196781634 0.000399999999999067768 0.07866666601241382
0.000600000000019917934 0.11895724679062451 0.000600000000019917934 0.11051921740625294
0.000799999999998135536 0.15460640763389949 0.000799999999998135536 0.14105867875001296
0.001007140329434719206 0.19024474950831127 0.001007140329434719206 0.17145339715026889
0.001267914553977789183 0.23356279478458450 0.001267914553977789183 0.20801771757774518
0.001596209851982166583 0.28603919641450204 0.001596209851982166583 0.25150683728793261
0.002009509145224797066 0.34938406839678093 0.002009509145224797066 0.30297425346957052
0.002529822128153114136 0.42556110815023346 0.002529822128153114136 0.36356775000120439
0.003184857364431081805 0.51680884342891553 0.003184857364431081805 0.43452484573160588
0.004009497869034817086 0.62566063559421359 0.004009497869034817086 0.51716720633358182
0.005047658755856332391 0.75496332036086433 0.005047658755856332391 0.61289536736716788
0.006354625877790454069 0.90789473459851622 0.006354625877790454069 0.72318559561134732
0.008000000000009777068 1.08798084613289547 0.008000000000009777068 0.84959107237749809
0.010071403294361402914 1.29911373300878186 0.010071403294361402914 0.99374969645747069
0.012679145539692626699 1.54557217651611900 0.012679145539692626699 1.15740043846407503
0.015962098519750611558 1.83204698867657845 0.015962098519750611558 1.34240890297882909
0.020095091452091651263 2.16367311925915473 0.020095091452091651263 1.55080057468102739
0.025298221281360611101 2.54606993110941815 0.025298221281360611101 1.78479948481872674
0.031848573644296607199 2.98539060406879964 0.031848573644296607199 2.04687571451570482
0.040094978690191851456 3.48838356931270921 0.040094978690191851456 2.33981665407485329
0.050476587558435426217 4.06247371680479663 0.050476587558435426217 2.66683436443455957
0.063546258777947173257 4.71587183494217044 0.063546258777947173257 3.03167284318457941
0.080000000000012505552 5.45770318263815479 0.080000000000012505552 3.43858804108394178
0.100714032943542974863 6.29810490005961121 0.100714032943542974863 3.89202221419794991
0.126791455396883634421 7.24820082292163193 0.126791455396883634421 4.39587652323211930
0.159620985197506115583 8.31985905225471001 0.159620985197506115583 4.95253186322937555
0.200950914520774404082 9.52520983926935649 0.200950914520774404082 5.56200791375573189
0.252982212813464002465 10.87600855101077002 0.252982212813464002465 6.22175130007488164
0.318485736442809752589 12.38304675031430335 0.318485736442809752589 6.92690082747578018
0.400949786901833249431 14.05562570451026971 0.400949786901833249431 7.67196749448837512
0.504765875584169521062 15.90172382532112039 0.504765875584169521062 8.45181872307261273
0.635462587779443310865 17.92790187626915710 0.635462587779443310865 9.26291396612685425
0.800000000000011368684 20.14000728153264319 0.800000000000011368684 10.10495755728212330
1.007140329435344483500 22.54379526891575836 1.007140329435344483500 10.98295438823625148
1.267914553968907398485 25.14650772040305782 1.267914553968907398485 11.89920065279782335
1.596209851975117999245 27.95377074098601966 1.596209851975117999245 12.86942178053539187
2.009509145207687197399 30.97836688921300663 2.009509145207687197399 13.90215523049394442
2.529822128134725289783 34.22769163434652029 2.529822128134725289783 15.01541038290547370
3.184857364427983839050 37.71970722763335715 3.184857364427983839050 16.23368439687792986
4.009497869018204596614 41.46895535926249465 4.009497869018204596614 17.56609951111417800
5.009497869018190385759 45.35536335062113267 5.009497869018190385759 18.97264643125200578
6.009497869018190385759 48.73136868804558475 6.009497869018190385759 20.20840748690785560
7.009497869018204596614 51.72976533404845867 7.009497869018204596614 21.31054324015534007
8.009497869018190385759 54.43378421837960701 8.009497869018190385759 22.29970611136945635
9.009497869018204596614 56.89960440212675508 9.009497869018204596614 23.19411738772404874
10.009497869018190385759 59.16736837153391804 10.009497869018190385759 24.00551608692792982
11.009497869018190385759 61.26703034082491683 11.009497869018190385759 24.73807507059472144
12.009497869018204596614 63.22173219267507704 12.009497869018204596614 25.40793467556520824
13.009497869018190385759 65.04975209720039686 13.009497869018190385759 26.02201817238539761
14.009497869018204596614 66.76604542165894429 14.009497869018204596614 26.58540992561262328
15.009497869018190385759 68.38267717589786798 15.009497869018190385759 27.10414448324069880
16.009497869018190385759 69.90965796796093912 16.009497869018190385759 27.58347053826354056
17.009497869018204596614 71.35574976095121258 17.009497869018204596614 28.02827763510708792
18.009497869018190385759 72.72853714750337417 18.009497869018190385759 28.44361458203779591
19.009497869018204596614 74.03446701202192060 19.009497869018204596614 28.83077775338628612
20.009497869018190385759 75.27935695827964935 20.009497869018190385759 29.19169167083760996
21.009497869018190385759 76.46797329452900271 21.009497869018190385759 29.52814167039829485
22.009497869018204596614 77.60439460651834054 22.009497869018204596614 29.84305859170381225
23.009497869018190385759 78.69234966833316491 23.009497869018190385759 30.13752277556979564
24.009497869018204596614 79.73528529767415307 24.009497869018204596614 30.41466209971875045
25.009497869018204596614 80.73643321124002625 25.009497869018204596614 30.67593366623018269
26.009497869018190385759 81.69863803308369654 26.009497869018190385759 30.92286932279782263
27.009497869018204596614 82.62449456274651993 27.009497869018204596614 31.15714155200642210
28.009497869018190385759 83.51625640656578753 28.009497869018190385759 31.37930438868943739
29.009497869018190385759 84.37594495471854827 29.009497869018190385759 31.58842687399628701
30.009497869018190385759 85.20543603927096399 30.009497869018190385759 31.78872215256739153
31.009497869018218807469 86.00644799625153780 31.009497869018218807469 31.97875444234115960
32.009497869018190385759 86.78056357583540148 32.009497869018190385759 32.15929422307223007
33.009497869018190385759 87.52924759248935516 33.009497869018190385759 32.33007460727751692
34.009497869018218807469 88.25390847565563490 34.009497869018218807469 32.49464494545813409
35.009497869018190385759 88.95580100620850317 35.009497869018190385759 32.65149856137859530
36.009497869018190385759 89.63608512021697550 36.009497869018190385759 32.80267920658066316
37.009497869018190385759 90.29583531535838858 37.009497869018190385759 32.94805068984754826
38.009497869018218807469 90.93607491570062962 38.009497869018218807469 33.08825694996341582
39.009497869018190385759 91.55774016394330772 39.009497869018190385759 33.22427663632664974
40.009497869018190385759 92.16170779634991561 40.009497869018190385759 33.35568433161591884
41.009497869018218807469 92.74881976337643152 41.009497869018218807469 33.48236895579931627
42.009497869018190385759 93.31984692365179512 42.009497869018190385759 33.60387236240297426
43.009497869018190385759 93.87551377420966503 43.009497869018190385759 33.72272473571277374
44.009497869018218807469 94.41652100939295167 44.009497869018218807469 33.83487133230667609
46.009497869018190385759 95.45716942871106880 46.009497869018190385759 34.05024011493285485
48.009497869018218807469 96.44627884772235404 48.009497869018218807469 34.24999569981942216
50.009497869018190385759 97.38742984297095973 50.009497869018190385759 34.42790681064074931
52.009497869018190385759 98.28418125100238001 52.009497869018190385759 34.58932024013893880
54.009497869018218807469 99.13991203198519031 54.009497869018218807469 34.73652710233864127
56.009497869018190385759 99.95729874801547510 56.009497869018190385759 34.87107622507806326
58.009497869018218807469 100.73867425781170937 58.009497869018218807469 34.99829955592953468
60.009497869018190385759 101.48634029149265245 60.009497869018190385759 35.12683540495154944
62.009497869018190385759 102.20223559816801639 62.009497869018190385759 35.25237677729821684
64.009497869018218807469 102.88838308139327182 64.009497869018218807469 35.37490120689822959
66.009497869018190385759 103.54748493699798928 66.009497869018190385759 35.50671345940773449
68.009497869018190385759 104.18187580474909737 68.009497869018190385759 35.64123730921831879
70.009497869018190385759 104.79296575236256217 70.009497869018190385759 35.75697993221776017
72.009497869018190385759 105.38221977840441923 72.009497869018190385759 35.85198893554602506
74.009497869018218807469 105.95099471820874726 74.009497869018218807469 35.94180032118182311
76.009497869018190385759 106.50038134454946714 76.009497869018190385759 36.02666919514190624
78.009497869018190385759 107.03177671682250605 78.009497869018190385759 36.12245074908252462
80.009497869018218807469 107.54604760031409683 80.009497869018218807469 36.19349919484417910
82.009497869018190385759 108.04318857095921658 82.009497869018190385759 36.27428325308812163
84.009497869018218807469 108.52344150341237139 84.009497869018218807469 36.34469187800152667
86.009497869018190385759 108.98720301767481544 86.009497869018190385759 36.38447110344267088
88.009497869018190385759 109.43559037551140989 88.009497869018190385759 36.43256926418059294
91.009497869018218807469 110.08038132306560897 91.009497869018218807469 36.48919393890481189
94.009497869018218807469 110.69402327571465605 94.009497869018218807469 36.57103137615042243
97.009497869018218807469 111.28071811745128628 97.009497869018218807469 36.69841969970278939
99.504748934509137825444 111.75121471868787637 99.504748934509137825444 36.72472735972679203
nan nan nan nan

