Time Pressure difference Time.1 Pressure.1 difference.1
(hr) (psi) (hr) (psi)
0.000200000000020850166 0.24237507147914081 0.000200000000020850166 0.19517184605516183
0.000399999999999067768 0.46498895223811398 0.000399999999999067768 0.44715789101793119
0.000600000000019917934 0.67617803438881297 0.000600000000019917934 0.62821449894080617
0.000799999999998135536 0.87881536970848140 0.000799999999998135536 0.80180722657902104
0.001007140329434719206 1.08139120773145359 0.001007140329434719206 0.97457720485415977
0.001267914553977789183 1.32762009667026981 0.001267914553977789183 1.18241649991560438
0.001596209851982166583 1.62590701119822234 0.001596209851982166583 1.42961781195245896
0.002009509145224797066 1.98597259930801795 0.002009509145224797066 1.72216944077440082
0.002529822128153114136 2.41897893053816926 0.002529822128153114136 2.06659563158579296
0.003184857364431081805 2.93765026791172978 0.003184857364431081805 2.46993070205333876
0.004009497869034817086 3.55638677074605614 0.004009497869034817086 2.93968727810667518
0.005047658755856332391 4.29137045257754490 0.005047658755856332391 3.48382629871863836
0.006354625877790454069 5.16066480719156573 0.006354625877790454069 4.11073917505397457
0.008000000000009777068 6.18431217801856281 0.008000000000009777068 4.82925451667209504
0.010071403294361402914 7.38443595604991820 0.010071403294361402914 5.64868248512667570
0.012679145539692626699 8.78535763493372990 0.012679145539692626699 6.57890775548000573
0.015962098519750611558 10.41374077774054996 0.015962098519750611558 7.63053481693229241
0.020095091452091651263 12.29877351999940593 0.020095091452091651263 8.81507695081847231
0.025298221281360611101 14.47239750314827234 0.025298221281360611101 10.14517601896960386
0.031848573644296607199 16.96958869681212434 0.031848573644296607199 11.63487248251032113
0.040094978690191851456 19.82870660451434830 0.040094978690191851456 13.30001045474126897
0.050476587558435426217 23.09195586394305622 0.050476587558435426217 15.15884796625960185
0.063546258777947173257 26.80600832493444230 0.063546258777947173257 17.23266668757550590
0.080000000000012505552 31.02273388025898626 0.080000000000012505552 19.54565833879293280
0.100714032943542974863 35.79975416875988969 0.100714032943542974863 22.12307363859887488
0.126791455396883634421 41.20029941450190591 0.126791455396883634421 24.98708760574047005
0.159620985197506115583 47.29183040228993207 0.159620985197506115583 28.15123374888276686
0.200950914520774404082 54.14329803374160832 0.200950914520774404082 31.61562393082205347
0.252982212813464002465 61.82152228995595067 0.252982212813464002465 35.36574423200459449
0.318485736442809752589 70.38784468599709498 0.318485736442809752589 39.37396259828338430
0.400949786901833249431 79.89513558353206690 0.400949786901833249431 43.60907838972339334
0.504765875584169521062 90.38874595445689408 0.504765875584169521062 48.04191695220222158
0.635462587779443310865 101.90596855984573210 0.635462587779443310865 52.65235307061580983
0.800000000000011368684 114.48004138976449440 0.800000000000011368684 57.43870611507732349
1.007140329435344483500 128.14367837067902656 1.007140329435344483500 62.42942494365869521
1.267914553968907398485 142.93804388439633613 1.267914553968907398485 67.63756160537710116
1.596209851975117999245 158.89511789613106885 1.596209851975117999245 73.15250275251696621
2.009509145207687197399 176.08755915973708284 2.009509145207687197399 79.02277709964978669
2.529822128134725289783 194.55740507944335604 2.529822128134725289783 85.35075375546267651
3.184857364427983839050 214.40675687286329776 3.184857364427983839050 92.27567972962192755
4.009497869018204596614 235.71827256843945975 4.009497869018204596614 99.84940774738586811
5.009497869018190385759 257.80943378247798137 5.009497869018190385759 107.84451655659034941
6.009497869018190385759 276.99935885836436000 6.009497869018190385759 114.86884255716044834
7.009497869018204596614 294.04287663564383593 7.009497869018204596614 121.13361420719876094
8.009497869018190385759 309.41308924131567437 8.009497869018190385759 126.75622421199479106
9.009497869018204596614 323.42933028577317600 9.009497869018204596614 131.84024620390511018
10.009497869018190385759 336.31977811187698535 10.009497869018190385759 136.45240723095875524
11.009497869018190385759 348.25469877942583707 11.009497869018190385759 140.61642671706471219
12.009497869018204596614 359.36563562152150553 12.009497869018204596614 144.42404973479170849
13.009497869018190385759 369.75648560513906205 13.009497869018190385759 147.91462961145384725
14.009497869018204596614 379.51225818627193576 14.009497869018204596614 151.11706694558753838
15.009497869018190385759 388.70153342089315629 15.009497869018190385759 154.06566337842082248
16.009497869018190385759 397.38121371262008097 16.009497869018190385759 156.79025358591908912
17.009497869018204596614 405.60110390435420413 17.009497869018204596614 159.31863076797714029
18.009497869018190385759 413.40431641738763346 18.009497869018190385759 161.67949341368853311
19.009497869018204596614 420.82749669991414976 19.009497869018204596614 163.88021038766939341
20.009497869018190385759 427.90371323653693025 20.009497869018190385759 165.93172107634009649
21.009497869018190385759 434.66005872679636468 21.009497869018190385759 167.84417370542186632
22.009497869018204596614 441.11971671073581547 22.009497869018204596614 169.63422778442168237
23.009497869018190385759 447.30388232526217962 23.009497869018190385759 171.30802419797566927
24.009497869018204596614 453.23214800783199507 24.009497869018204596614 172.88334246155923779
25.009497869018204596614 458.92288351652223355 25.009497869018204596614 174.36846505015051889
26.009497869018190385759 464.39225829331780915 26.009497869018190385759 175.77209930853501874
27.009497869018204596614 469.65502172508547574 27.009497869018204596614 177.10375197982597228
28.009497869018190385759 474.72398378468972169 28.009497869018190385759 178.36657231465576956
29.009497869018190385759 479.61063447945286953 29.009497869018190385759 179.55526854692627126
30.009497869018190385759 484.32563643375073070 30.009497869018190385759 180.69378907775148946
31.009497869018218807469 488.87875703132453964 31.009497869018218807469 181.77397261962343578
32.009497869018190385759 493.27899295738023966 32.009497869018190385759 182.80019874167373928
33.009497869018190385759 497.53467052572898410 33.009497869018190385759 183.77095039926166464
34.009497869018218807469 501.65379554583199706 34.009497869018218807469 184.70640284786728103
35.009497869018190385759 505.64350045634307662 35.009497869018190385759 185.59799182257305006
36.009497869018190385759 509.51037857807540377 36.009497869018190385759 186.45733443740587632
37.009497869018190385759 513.26053758203715915 37.009497869018190385759 187.28365655281763225
38.009497869018218807469 516.89979425766682652 38.009497869018218807469 188.08061845242366417
39.009497869018190385759 520.43347040557250693 39.009497869018190385759 188.85378298543571418
40.009497869018190385759 523.86654957925213694 40.009497869018190385759 189.60073199023784696
41.009497869018218807469 527.20381760235022739 41.009497869018218807469 190.32083406454350438
42.009497869018190385759 530.44965619759966557 42.009497869018190385759 191.01148500734322511
43.009497869018190385759 533.60818355866547336 43.009497869018190385759 191.68706691878841752
44.009497869018218807469 536.68338257970731320 44.009497869018218807469 192.32453178363795132
46.009497869018190385759 542.59864727898923320 46.009497869018190385759 193.54873328488147877
48.009497869018218807469 548.22095345021125468 48.009497869018218807469 194.68418608318407337
50.009497869018190385759 553.57065384425595767 50.009497869018190385759 195.69547029206322009
52.009497869018190385759 558.66797763727663551 52.009497869018190385759 196.61297820710558426
54.009497869018218807469 563.53213155023161107 54.009497869018218807469 197.44973300276703299
56.009497869018190385759 568.17832972556163895 56.009497869018190385759 198.21453854254897919
58.009497869018218807469 572.61983262335081690 58.009497869018218807469 198.93770273896785739
60.009497869018190385759 576.86972376216874636 60.009497869018190385759 199.66832756498772028
62.009497869018190385759 580.93902340011300112 62.009497869018190385759 200.38193115516878606
64.009497869018218807469 584.83923014686706665 64.009497869018218807469 201.07838580763205982
66.009497869018190385759 588.58570385240966516 66.009497869018190385759 201.82763440084394801
68.009497869018190385759 592.19171510067917552 68.009497869018190385759 202.59229628397775969
70.009497869018190385759 595.66527901342931273 70.009497869018190385759 203.25020171997465468
72.009497869018190385759 599.01472295093037701 72.009497869018190385759 203.79025289678793342
74.009497869018218807469 602.24775945087071705 74.009497869018218807469 204.30075972040191346
76.009497869018190385759 605.37058869533382222 76.009497869018190385759 204.78317226712243837
78.009497869018190385759 608.39115186404364977 78.009497869018190385759 205.32761478425857149
80.009497869018218807469 611.31437583336423813 80.009497869018218807469 205.73146910753530392
82.009497869018190385759 614.14022977176819040 82.009497869018190385759 206.19066270176406874
84.009497869018218807469 616.87008854571251959 84.009497869018218807469 206.59088014864022398
86.009497869018190385759 619.50620662678318240 86.009497869018190385759 206.81699364062151858
88.009497869018190385759 622.05493476606488912 88.009497869018190385759 207.09039371218443648
91.009497869018218807469 625.72006225742563856 91.009497869018218807469 207.41226028430102701
94.009497869018218807469 629.20813230406224648 94.009497869018218807469 207.87744150653921338
97.009497869018218807469 632.54302929919674625 97.009497869018218807469 208.60154355620528577
99.504748934509137825444 635.21743103254152629 99.504748934509137825444 208.75108183423651553
nan nan nan nan

