Time Pressure difference Time.1 Pressure.1 difference.1
(hr) (psi) (hr) (psi)
0.000200000000020850166 0.48849049899962638 0.000200000000020850166 0.39335560331487862
0.000399999999999067768 0.93715365991200128 0.000399999999999067768 0.90121636677379346
0.000600000000019917934 1.36279091498732985 0.000600000000019917934 1.26612366607514337
0.000799999999998135536 1.77119270499888359 0.000799999999998135536 1.61598802146944687
0.001007140329434719206 2.17947055138468837 0.001007140329434719206 1.96419418138816781
0.001267914553977789183 2.67572815779532780 0.001267914553977789183 2.38308016803978262
0.001596209851982166583 3.27690517997666397 0.001596209851982166583 2.88129762717578908
0.002009509145224797066 4.00259292391399946 0.002009509145224797066 3.47091557044964150
0.002529822128153114136 4.87528778284390274 0.002529822128153114136 4.16508317106642867
0.003184857364431081805 5.92063464489617264 0.003184857364431081805 4.97797761864453747
0.004009497869034817086 7.16765605338634071 0.004009497869034817086 5.92474010062857737
0.005047658755856332391 8.64896575781832233 0.005047658755856332391 7.02141534896071295
0.006354625877790454069 10.40096950338300097 0.006354625877790454069 8.28491568305631354
0.008000000000009777068 12.46406127236457451 0.008000000000009777068 9.73303456600888239
0.010071403294361402914 14.88282925710060667 0.010071403294361402914 11.38453599625839274
0.012679145539692626699 17.70629177657939834 0.012679145539692626699 13.25934186521124403
0.015962098519750611558 20.98818743168079948 0.015962098519750611558 15.37882480079255210
0.020095091452091651263 24.78734292765312475 0.020095091452091651263 17.76618903976685715
0.025298221281360611101 29.16813447393771952 0.025298221281360611101 20.44691339625664028
0.031848573644296607199 34.20105376240221773 0.031848573644296607199 23.44929546629395034
0.040094978690191851456 39.96341176774033954 0.040094978690191851456 26.80526798440138592
0.050476587558435426217 46.54026907146548098 0.050476587558435426217 30.55162877150469214
0.063546258777947173257 54.02568961784626111 0.063546258777947173257 34.73126958946544107
0.080000000000012505552 62.52421365373183448 0.080000000000012505552 39.39294720750550738
0.100714032943542974863 72.15197367963027375 0.100714032943542974863 44.58755273458353940
0.126791455396883634421 83.03640591873377730 0.126791455396883634421 50.35977841527323307
0.159620985197506115583 95.31347300214606832 0.159620985197506115583 56.73690011734706218
0.200950914520774404082 109.12214079022614044 0.200950914520774404082 63.71914329267530519
0.252982212813464002465 124.59708041771988007 0.252982212813464002465 71.27725612191049720
0.318485736442809752589 141.86192154307437363 0.318485736442809752589 79.35554807616989592
0.400949786901833249431 161.02322079026677670 0.400949786901833249431 87.89113638422648478
0.504765875584169521062 182.17237996376650244 0.504765875584169521062 96.82522151169150959
0.635462587779443310865 205.38456009129401991 0.635462587779443310865 106.11724245404975875
0.800000000000011368684 230.72675008492657867 0.800000000000011368684 115.76381201588115744
1.007140329435344483500 258.26488264214015089 1.007140329435344483500 125.82226693891705338
1.267914553968907398485 288.08192177935433165 1.267914553968907398485 136.31891274170135375
1.596209851975117999245 320.24232094498017887 1.596209851975117999245 147.43390215244932051
2.009509145207687197399 354.89251892379110132 2.009509145207687197399 159.26504150022009298
2.529822128134725289783 392.11723924961887633 2.529822128134725289783 172.01864877258375941
3.184857364427983839050 432.12225999376460095 3.184857364427983839050 185.97536686247875082
4.009497869018204596614 475.07417279997207515 4.009497869018204596614 201.23970141679927792
5.009497869018190385759 519.59740820974741382 5.009497869018190385759 217.35330034399231636
6.009497869018190385759 558.27339918059237789 6.009497869018190385759 231.51035243773387151
7.009497869018204596614 592.62345198480068120 7.009497869018204596614 244.13657431265676223
8.009497869018190385759 623.60107183512070606 8.009497869018190385759 255.46856299516235822
9.009497869018204596614 651.84985394015382099 9.009497869018204596614 265.71506410848775204
10.009497869018190385759 677.82967625634466913 10.009497869018190385759 275.01056148708659066
11.009497869018190385759 701.88369846594162027 11.009497869018190385759 283.40286001926932613
12.009497869018204596614 724.27703722485659910 12.009497869018204596614 291.07686566919443294
13.009497869018190385759 745.21908981529577432 13.009497869018190385759 298.11189239592391687
14.009497869018204596614 764.88118702356655376 14.009497869018204596614 304.56618739342178515
15.009497869018190385759 783.40154729581240645 15.009497869018190385759 310.50888329045920955
16.009497869018190385759 800.89485356278066774 16.009497869018190385759 316.00010985063323687
17.009497869018204596614 817.46148410352873270 17.009497869018204596614 321.09588238113911984
18.009497869018190385759 833.18832907578428149 18.009497869018190385759 325.85404073808217618
19.009497869018204596614 848.14924489211080072 19.009497869018204596614 330.28943636774107517
20.009497869018190385759 862.41087883783518464 20.009497869018190385759 334.42411686064843934
21.009497869018190385759 876.02783440925315972 21.009497869018190385759 338.27853527666820810
22.009497869018204596614 889.04683645713123497 22.009497869018204596614 341.88626772601037374
23.009497869018190385759 901.51060234072906496 23.009497869018190385759 345.25969074468548570
24.009497869018204596614 913.45861928738986535 24.009497869018204596614 348.43463773888322521
25.009497869018204596614 924.92791029718841855 25.009497869018204596614 351.42780147453174777
26.009497869018190385759 935.95106378252023660 26.009497869018190385759 354.25673101380670005
27.009497869018204596614 946.55780613111357980 27.009497869018204596614 356.94058655193322238
28.009497869018190385759 956.77395497346412867 28.009497869018190385759 359.48571518972283911
29.009497869018190385759 966.62266763914408330 29.009497869018190385759 361.88145173192242510
30.009497869018190385759 976.12543392357781613 30.009497869018190385759 364.17606255485105748
31.009497869018218807469 985.30193932547808799 31.009497869018218807469 366.35309913769782497
32.009497869018190385759 994.17031605299155217 32.009497869018190385759 368.42138820466954030
33.009497869018190385759 1002.74734522623782595 33.009497869018190385759 370.37787225530206570
34.009497869018218807469 1011.04916201058119896 34.009497869018218807469 372.26321314709059607
35.009497869018190385759 1019.09014135182735572 35.009497869018190385759 374.06015018561794250
36.009497869018190385759 1026.88357164038052360 36.009497869018190385759 375.79209687538906337
37.009497869018190385759 1034.44176247243899525 37.009497869018190385759 377.45749299070962479
38.009497869018218807469 1041.77643719214938756 38.009497869018218807469 379.06371558466867100
39.009497869018190385759 1048.89832152728035908 39.009497869018190385759 380.62197620212816673
40.009497869018190385759 1055.81745949151741115 40.009497869018190385759 382.12740120254727572
41.009497869018218807469 1062.54349658745286433 41.009497869018218807469 383.57871803749043238
42.009497869018190385759 1069.08526387973029159 42.009497869018190385759 384.97067811665164072
43.009497869018190385759 1075.45106130805106659 43.009497869018190385759 386.33226758632355313
44.009497869018218807469 1081.64891612515089037 44.009497869018218807469 387.61703473677641796
46.009497869018190385759 1093.57073047277776823 46.009497869018190385759 390.08432973773955155
48.009497869018218807469 1104.90210679934557447 48.009497869018218807469 392.37275775407158562
50.009497869018190385759 1115.68406469228148126 50.009497869018190385759 394.41093240962123900
52.009497869018190385759 1125.95737468253582847 52.009497869018190385759 396.26010731246896057
54.009497869018218807469 1135.76074661204097538 54.009497869018218807469 397.94652978644097630
56.009497869018190385759 1145.12484355182641593 56.009497869018190385759 399.48794342063109752
58.009497869018218807469 1154.07639105879025010 58.009497869018218807469 400.94543175477167551
60.009497869018190385759 1162.64175807622291359 60.009497869018190385759 402.41795648128703533
62.009497869018190385759 1170.84315518603011697 62.009497869018190385759 403.85617606273217461
64.009497869018218807469 1178.70375705525975718 64.009497869018218807469 405.25983312464114761
66.009497869018190385759 1186.25452041859102792 66.009497869018190385759 406.76989278935525363
68.009497869018190385759 1193.52219123686245439 68.009497869018190385759 408.31101689332564320
70.009497869018190385759 1200.52292344373245214 70.009497869018190385759 409.63698062698597369
72.009497869018190385759 1207.27350026838735175 72.009497869018190385759 410.72541710371143608
74.009497869018218807469 1213.78946580684760193 74.009497869018218807469 411.75430894266190762
76.009497869018190385759 1220.08331610510185783 76.009497869018190385759 412.72657867416955924
78.009497869018190385759 1226.17105607166831760 78.009497869018190385759 413.82386559913840074
80.009497869018218807469 1232.06261549131772881 80.009497869018218807469 414.63780656549556625
82.009497869018190385759 1237.75793222519928349 82.009497869018190385759 415.56328007485160470
84.009497869018218807469 1243.25977722330321740 84.009497869018218807469 416.36989116377185383
86.009497869018190385759 1248.57269422002923420 86.009497869018190385759 416.82560755347486747
88.009497869018190385759 1253.70948272296391224 88.009497869018190385759 417.37662683350754378
91.009497869018218807469 1261.09629831512006604 91.009497869018218807469 418.02532705447094941
94.009497869018218807469 1268.12626664985396019 94.009497869018218807469 418.96286822151267870
97.009497869018218807469 1274.84752509992426894 97.009497869018218807469 420.42224673519154976
99.504748934509137825444 1280.23760019830137935 99.504748934509137825444 420.72363098072975163
nan nan nan nan

