Time Pressure difference Time.1 Pressure.1 difference.1
(hr) (psi) (hr) (psi)
0.000200000000020850166 0.00074807120826895 0.000200000000020850166 0.00060238224091099
0.000399999999999067768 0.00143515108715467 0.000399999999999067768 0.00138011694758621
0.000600000000019917934 0.00208696924194078 0.000600000000019917934 0.00193893363870619
0.000799999999998135536 0.00271239311638420 0.000799999999998135536 0.00247471366228093
0.001007140329434719206 0.00333762718435634 0.001007140329434719206 0.00300795433596963
0.001267914553977789183 0.00409759289095762 0.001267914553977789183 0.00364943364171483
0.001596209851982166583 0.00501823151604390 0.001596209851982166583 0.00441240065417426
0.002009509145224797066 0.00612954505959265 0.002009509145224797066 0.00531533778016790
0.002529822128153114136 0.00746598435351287 0.002529822128153114136 0.00637838157896850
0.003184857364431081805 0.00906682181454238 0.003184857364431081805 0.00762324290757203
0.004009497869034817086 0.01097650237884585 0.004009497869034817086 0.00907310888304529
0.005047658755856332391 0.01324497053264674 0.005047658755856332391 0.01075255030468716
0.006354625877790454069 0.01592797779997397 0.006354625877790454069 0.01268746658967276
0.008000000000009777068 0.01908738326548939 0.008000000000009777068 0.01490510653293856
0.010071403294361402914 0.02279146900015407 0.010071403294361402914 0.01743420520100826
0.012679145539692626699 0.02711530134238805 0.012679145539692626699 0.02030527085024693
0.015962098519750611558 0.03214117523993997 0.015962098519750611558 0.02355103338559349
0.020095091452091651263 0.03795917753086236 0.020095091452091651263 0.02720702762598294
0.025298221281360611101 0.04466789352823541 0.025298221281360611101 0.03131227166348644
0.031848573644296607199 0.05237527375559298 0.031848573644296607199 0.03591010025466148
0.040094978690191851456 0.06119971174232823 0.040094978690191851456 0.04104941498376935
0.050476587558435426217 0.07127146871587363 0.050476587558435426217 0.04678656779709753
0.063546258777947173257 0.08273459359547668 0.063546258777947173257 0.05318724286288736
0.080000000000012505552 0.09574917864277464 0.080000000000012505552 0.06032610598392880
0.100714032943542974863 0.11049306842209844 0.100714032943542974863 0.06828109147715702
0.126791455396883634421 0.12716141794599353 0.126791455396883634421 0.07712064075845823
0.159620985197506115583 0.14596243951324053 0.159620985197506115583 0.08688652391630483
0.200950914520774404082 0.16710894454858521 0.200950914520774404082 0.09757908620624089
0.252982212813464002465 0.19080716756159247 0.252982212813464002465 0.10915353158026109
0.318485736442809752589 0.21724643421604042 0.318485736442809752589 0.12152457592062772
0.400949786901833249431 0.24658992464053106 0.400949786901833249431 0.13459592095593642
0.504765875584169521062 0.27897761097054596 0.504765875584169521062 0.14827752145741427
0.635462587779443310865 0.31452459432051150 0.635462587779443310865 0.16250726256362902
0.800000000000011368684 0.35333346107952002 0.800000000000011368684 0.17727995714530037
1.007140329435344483500 0.39550518015641678 1.007140329435344483500 0.19268341031993425
1.267914553968907398485 0.44116680211233433 1.267914553968907398485 0.20875790618943549
1.596209851975117999245 0.49041703054361435 1.596209851975117999245 0.22577932948307705
2.009509145207687197399 0.54348012086338604 2.009509145207687197399 0.24389746018410430
2.529822128134725289783 0.60048581814643009 2.529822128134725289783 0.26342825233167494
3.184857364427983839050 0.66174924960760273 3.184857364427983839050 0.28480148064698124
4.009497869018204596614 0.72752553261864028 4.009497869018204596614 0.30817718440551189
5.009497869018190385759 0.79570812895826548 5.009497869018190385759 0.33285344616231594
6.009497869018190385759 0.85493629277272953 6.009497869018190385759 0.35453346468259395
7.009497869018204596614 0.90753974270260451 7.009497869018204596614 0.37386917965184802
8.009497869018190385759 0.95497867049788787 8.009497869018190385759 0.39122291423455186
9.009497869018204596614 0.99823867372152197 9.009497869018204596614 0.40691434013550959
10.009497869018190385759 1.03802400651813875 10.009497869018190385759 0.42114940503382331
11.009497869018190385759 1.07486018141798101 11.009497869018190385759 0.43400131702797756
12.009497869018204596614 1.10915319636272081 12.009497869018204596614 0.44575323992219668
13.009497869018190385759 1.14122372100351566 13.009497869018190385759 0.45652663460325260
14.009497869018204596614 1.17133413020454302 14.009497869018204596614 0.46641070044934424
15.009497869018190385759 1.19969609080522566 15.009497869018190385759 0.47551130672352104
16.009497869018190385759 1.22648522750808664 16.009497869018190385759 0.48392053575900951
17.009497869018204596614 1.25185525896405636 17.009497869018204596614 0.49172416903696647
18.009497869018190385759 1.27593924820181370 18.009497869018190385759 0.49901078214101396
19.009497869018204596614 1.29885029845652511 19.009497869018204596614 0.50580311848046111
20.009497869018190385759 1.32069047295227460 20.009497869018190385759 0.51213494159364237
21.009497869018190385759 1.34154339113208754 21.009497869018190385759 0.51803757316488230
22.009497869018204596614 1.36148060713190078 22.009497869018204596614 0.52356243143340020
23.009497869018190385759 1.38056753804093280 23.009497869018190385759 0.52872846974683851
24.009497869018204596614 1.39886465434516061 24.009497869018204596614 0.53359056315296061
25.009497869018204596614 1.41642865282877239 25.009497869018204596614 0.53817427484614355
26.009497869018190385759 1.43330943917690679 26.009497869018190385759 0.54250647934733032
27.009497869018204596614 1.44955253618853530 27.009497869018204596614 0.54661651845625303
28.009497869018190385759 1.46519748081694368 28.009497869018190385759 0.55051411208227086
29.009497869018190385759 1.48027973604769381 29.009497869018190385759 0.55418292761397003
30.009497869018190385759 1.49483221121528009 30.009497869018190385759 0.55769687986960337
31.009497869018218807469 1.50888505256581640 31.009497869018218807469 0.56103077969019577
32.009497869018190385759 1.52246602764623518 32.009497869018190385759 0.56419814426442505
33.009497869018190385759 1.53560083495595356 33.009497869018190385759 0.56719429135574595
34.009497869018218807469 1.54831418378343222 34.009497869018218807469 0.57008149027119537
35.009497869018190385759 1.56062808782821949 35.009497869018190385759 0.57283330809436128
36.009497869018190385759 1.57256289684591177 36.009497869018190385759 0.57548560011545025
37.009497869018190385759 1.58413746167295444 37.009497869018190385759 0.57803597701486920
38.009497869018218807469 1.59536973536316906 38.009497869018218807469 0.58049573596427051
39.009497869018190385759 1.60627614322707557 39.009497869018190385759 0.58288204625134488
40.009497869018190385759 1.61687206660263016 40.009497869018190385759 0.58518744441431436
41.009497869018218807469 1.62717227655046370 41.009497869018218807469 0.58740998168068981
42.009497869018190385759 1.63719029690617179 42.009497869018190385759 0.58954162039303459
43.009497869018190385759 1.64693883814402930 43.009497869018190385759 0.59162674974934704
44.009497869018218807469 1.65643019314724471 44.009497869018218807469 0.59359423390011712
46.009497869018190385759 1.67468718295984331 46.009497869018190385759 0.59737263359531323
48.009497869018218807469 1.69203997978460263 48.009497869018218807469 0.60087711754069162
50.009497869018190385759 1.70855140075387646 50.009497869018190385759 0.60399836509896054
52.009497869018190385759 1.72428388159653290 52.009497869018190385759 0.60683017965156039
54.009497869018218807469 1.73929670231552969 54.009497869018218807469 0.60941275618137980
56.009497869018190385759 1.75363682014062250 56.009497869018190385759 0.61177326710663271
58.009497869018218807469 1.76734516241774942 58.009497869018218807469 0.61400525536718475
60.009497869018190385759 1.78046211037706414 60.009497869018190385759 0.61626027026230779
62.009497869018190385759 1.79302167716084226 62.009497869018190385759 0.61846275047891608
64.009497869018218807469 1.80505935230514525 64.009497869018218807469 0.62061230187540761
66.009497869018190385759 1.81662254275435076 66.009497869018190385759 0.62292479753346897
68.009497869018190385759 1.82775220710086161 68.009497869018190385759 0.62528486507400549
70.009497869018190385759 1.83847308337478177 70.009497869018190385759 0.62731543740732920
72.009497869018190385759 1.84881087330534077 72.009497869018190385759 0.62898226202712326
74.009497869018218807469 1.85878938102120594 74.009497869018218807469 0.63055790037161086
76.009497869018190385759 1.86842774288683278 76.009497869018190385759 0.63204682798494571
78.009497869018190385759 1.87775046871618434 78.009497869018190385759 0.63372720612425482
80.009497869018218807469 1.88677276491779122 80.009497869018218807469 0.63497367008498562
82.009497869018190385759 1.89549453633261789 82.009497869018190385759 0.63639093426470383
84.009497869018218807469 1.90392002637565594 84.009497869018218807469 0.63762617329827231
86.009497869018190385759 1.91205619329254062 86.009497869018190385759 0.63832405444636264
88.009497869018190385759 1.91992263816686681 88.009497869018190385759 0.63916788182772977
91.009497869018218807469 1.93123476005378270 91.009497869018218807469 0.64016129717376868
94.009497869018218807469 1.94200040834587107 94.009497869018218807469 0.64159704168684939
97.009497869018218807469 1.95229330030616288 97.009497869018218807469 0.64383192455618921
99.504748934509137825444 1.96054762664364679 99.504748934509137825444 0.64429346245134722
nan nan nan nan

