Time Pressure difference Time.1 Pressure.1 difference.1
(hr) (psi) (hr) (psi)
0.000200000000020850166 0.50195578074846747 0.000200000000020850166 0.40419848365127653
0.000399999999999067768 0.96298637948078536 0.000399999999999067768 0.92605847183034518
0.000600000000019917934 1.40035636134226382 0.000600000000019917934 1.30102447157185486
0.000799999999998135536 1.82001578109379936 0.000799999999998135536 1.66053286739050354
0.001007140329434719206 2.23954784070310264 0.001007140329434719206 2.01833735943562154
0.001267914553977789183 2.74948482983256470 0.001267914553977789183 2.44876997359064941
0.001596209851982166583 3.36723334726545431 0.001596209851982166583 2.96072083895092542
0.002009509145224797066 4.11292473498666755 0.002009509145224797066 3.56659165049266358
0.002529822128153114136 5.00967550120713412 0.002529822128153114136 4.27989403948786151
0.003184857364431081805 6.08383743755793471 0.003184857364431081805 5.11519599098083422
0.004009497869034817086 7.36523309620556699 0.004009497869034817086 6.08805606052339243
0.005047658755856332391 8.88737522740596475 0.005047658755856332391 7.21496125444508163
0.006354625877790454069 10.68767310378253299 0.006354625877790454069 8.51329008167042289
0.008000000000009777068 12.80763417114338054 0.008000000000009777068 10.00132648360177612
0.010071403294361402914 15.29307569910338138 0.010071403294361402914 11.69835168987654050
0.012679145539692626699 18.19436720074238423 0.012679145539692626699 13.62483674051568983
0.015962098519750611558 21.56672858599972287 0.015962098519750611558 15.80274340173323466
0.020095091452091651263 25.47060812320864898 0.020095091452091651263 18.25591553703455006
0.025298221281360611101 29.97215655744595608 0.025298221281360611101 21.01053428619939467
0.031848573644296607199 35.14380869000289209 0.031848573644296607199 24.09567727087785372
0.040094978690191851456 41.06500657910224561 0.040094978690191851456 27.54415745410923577
0.050476587558435426217 47.82315550835120632 0.050476587558435426217 31.39378699185244415
0.063546258777947173257 55.51491230256484499 0.063546258777947173257 35.68863996099742053
0.080000000000012505552 64.24769886930178586 0.080000000000012505552 40.47881711521622350
0.100714032943542974863 74.14084891122804777 0.100714032943542974863 45.81661238117236223
0.126791455396883634421 85.32531144176167004 0.126791455396883634421 51.74794994892548061
0.159620985197506115583 97.94079691338438920 0.159620985197506115583 58.30085754784054330
0.200950914520774404082 112.13010179210067463 0.200950914520774404082 65.47556684438764307
0.252982212813464002465 128.03160943382854953 0.252982212813464002465 73.24201969035519255
0.318485736442809752589 145.77235735896312008 0.318485736442809752589 81.54299044274121400
0.400949786901833249431 165.46183943379634229 0.400949786901833249431 90.31386296143332970
0.504765875584169521062 187.19397696123633068 0.504765875584169521062 99.49421689792495727
0.635462587779443310865 211.04600278906320909 0.635462587779443310865 109.04237318019508507
0.800000000000011368684 237.08675238435793631 0.800000000000011368684 118.95485124449655245
1.007140329435344483500 265.38397588495564605 1.007140329435344483500 129.29056832467588833
1.267914553968907398485 296.02292421737632822 1.267914553968907398485 140.07655505311123534
1.596209851975117999245 329.06982749476520667 1.596209851975117999245 151.49793008314469489
2.009509145207687197399 364.67516109933205826 2.009509145207687197399 163.65519578353399766
2.529822128134725289783 402.92598397625459938 2.529822128134725289783 176.76035731455388600
3.184857364427983839050 444.03374648670148872 3.184857364427983839050 191.10179351412440951
4.009497869018204596614 488.16963238710769701 4.009497869018204596614 206.78689073609848492
5.009497869018190385759 533.92015453099611477 5.009497869018190385759 223.34466237491398033
6.009497869018190385759 573.66225245050156900 6.009497869018190385759 237.89195480202056387
7.009497869018204596614 608.95916735344769677 7.009497869018204596614 250.86621954639002752
8.009497869018190385759 640.79068790408280165 8.009497869018190385759 262.51057545138428395
9.009497869018204596614 669.81815006714134597 9.009497869018204596614 273.03952223092693430
10.009497869018190385759 696.51410837367120621 10.009497869018190385759 282.59125077769544987
11.009497869018190385759 721.23118173146519894 11.009497869018190385759 291.21488372577294967
12.009497869018204596614 744.24179475938569794 12.009497869018204596614 299.10042398779398809
13.009497869018190385759 765.76111679335906501 13.009497869018190385759 306.32937181878253341
14.009497869018204596614 785.96520136724836902 14.009497869018204596614 312.96158000151001488
15.009497869018190385759 804.99607693030645805 15.009497869018190385759 319.06808681148260121
16.009497869018190385759 822.97158765792607937 16.009497869018190385759 324.71067949429539112
17.009497869018204596614 839.99487876488171878 17.009497869018204596614 329.94691742380450705
18.009497869018190385759 856.15523554341700674 18.009497869018190385759 334.83623481662039012
19.009497869018204596614 871.52855026432837349 19.009497869018204596614 339.39389250038942691
20.009497869018190385759 886.18330735097617890 20.009497869018190385759 343.64254580933396710
21.009497869018190385759 900.17561544963075448 21.009497869018190385759 347.60321159363604693
22.009497869018204596614 913.55348738550549115 22.009497869018204596614 351.31039149181157200
23.009497869018190385759 926.36081802546584640 23.009497869018190385759 354.77680320012859738
24.009497869018204596614 938.63818306560267501 24.009497869018204596614 358.03926787563653988
25.009497869018204596614 950.42362604810625726 25.009497869018204596614 361.11493842176236058
26.009497869018190385759 961.75063368770452144 26.009497869018190385759 364.02184764205861711
27.009497869018204596614 972.64975178250722365 27.009497869018204596614 366.77968388414575429
28.009497869018190385759 983.14750962816913216 28.009497869018190385759 369.39496920720375783
29.009497869018190385759 993.26770288800253184 29.009497869018190385759 371.85674442897385461
30.009497869018190385759 1003.03241372545301147 30.009497869018190385759 374.21460639250386748
31.009497869018218807469 1012.46187027166297412 31.009497869018218807469 376.45165317212132550
32.009497869018190385759 1021.57470455062377823 32.009497869018190385759 378.57695480142922406
33.009497869018190385759 1030.38816025544474542 33.009497869018190385759 380.58736949970551677
34.009497869018218807469 1038.91881731868284078 34.009497869018218807469 382.52467997197203431
35.009497869018190385759 1047.18144693273529811 35.009497869018190385759 384.37114973131645002
36.009497869018190385759 1055.18970378360677387 36.009497869018190385759 386.15083767746710919
37.009497869018190385759 1062.95623678255242339 37.009497869018190385759 387.86214057697725366
38.009497869018218807469 1070.49309242868639558 38.009497869018218807469 389.51263883202551597
39.009497869018190385759 1077.81129210536778373 39.009497869018190385759 391.11385303465237939
40.009497869018190385759 1084.92115669036479630 40.009497869018190385759 392.66077520200491335
41.009497869018218807469 1091.83259756536108398 41.009497869018218807469 394.15209770774282561
42.009497869018190385759 1098.55468922404133991 42.009497869018190385759 395.58242728372624697
43.009497869018190385759 1105.09596039464349815 43.009497869018190385759 396.98154908181186329
44.009497869018218807469 1111.46465960180125876 44.009497869018218807469 398.30173094697852321
46.009497869018190385759 1123.71509976605489101 46.009497869018190385759 400.83703714245513083
48.009497869018218807469 1135.35882643546824511 48.009497869018218807469 403.18854586980404520
50.009497869018190385759 1146.43798990585128195 50.009497869018190385759 405.28290298140251480
52.009497869018190385759 1156.99448455127367197 52.009497869018190385759 407.18305054619702332
54.009497869018218807469 1167.06808725372047775 54.009497869018218807469 408.91595939770581936
56.009497869018190385759 1176.69030631435771284 56.009497869018190385759 410.49986222855051210
58.009497869018218807469 1185.88860398230985993 58.009497869018218807469 411.99752635138099777
60.009497869018190385759 1194.69007606301011037 60.009497869018190385759 413.51064134600852640
62.009497869018190385759 1203.11754537492515738 62.009497869018190385759 414.98850557135267536
64.009497869018218807469 1211.19482539675232147 64.009497869018218807469 416.43085455839849374
66.009497869018190385759 1218.95372618816941213 66.009497869018190385759 417.98253914495768413
68.009497869018190385759 1226.42173096467809046 68.009497869018190385759 419.56614446465766832
70.009497869018190385759 1233.61543894447868297 70.009497869018190385759 420.92865850031785158
72.009497869018190385759 1240.55209598788360381 72.009497869018190385759 422.04709782019972408
74.009497869018218807469 1247.24767466522916948 74.009497869018218807469 423.10435114935086176
76.009497869018190385759 1253.71501547706475321 76.009497869018190385759 424.10342157789858675
78.009497869018190385759 1259.97056450855961884 78.009497869018190385759 425.23095530937496278
80.009497869018218807469 1266.02452525983790110 80.009497869018218807469 426.06733262702533693
82.009497869018190385759 1271.87683387918673361 82.009497869018190385759 427.01831689161627992
84.009497869018218807469 1277.53033769806506825 84.009497869018218807469 427.84716228314073305
86.009497869018190385759 1282.98970569929474550 86.009497869018190385759 428.31544053350938839
88.009497869018190385759 1288.26809020996756772 88.009497869018190385759 428.88164870640667914
91.009497869018218807469 1295.85852399608802443 91.009497869018218807469 429.54823040359877950
94.009497869018218807469 1303.08227400007945107 94.009497869018218807469 430.51161497187598570
97.009497869018218807469 1309.98880450543538245 97.009497869018218807469 432.01122137720295768
99.504748934509137825444 1315.52745747788708286 99.504748934509137825444 432.32091330485400249
nan nan nan nan

