Time Pressure difference Time.1 Pressure.1 difference.1
(hr) (psi) (hr) (psi)
0.000200000000020850166 0.39647774038254519 0.000200000000020850166 0.31926258768282645
0.000399999999999067768 0.76063007619197653 0.000399999999999067768 0.73146198222068992
0.000600000000019917934 1.10609369822861381 0.000600000000019917934 1.02763482851428178
0.000799999999998135536 1.43756835168362684 0.000799999999998135536 1.31159824100889244
0.001007140329434719206 1.76894240770885913 0.001007140329434719206 1.59421579806390357
0.001267914553977789183 2.17172423220754007 0.001267914553977789183 1.93419983010885899
0.001596209851982166583 2.65966270350326495 0.001596209851982166583 2.33857234671235537
0.002009509145224797066 3.24865888158410332 0.002009509145224797066 2.81712902348898897
0.002529822128153114136 3.95697170736181958 0.002529822128153114136 3.38054223685330379
0.003184857364431081805 4.80541556170746009 0.003184857364431081805 4.04031874101317712
0.004009497869034817086 5.81754626078830128 0.004009497869034817086 4.80874770801400597
0.005047658755856332391 7.01983438230277290 0.005047658755856332391 5.69885166148419220
0.006354625877790454069 8.44182823398620208 0.006354625877790454069 6.72435729252656245
0.008000000000009777068 10.11631313070937743 0.008000000000009777068 7.89970646245743868
0.010071403294361402914 12.07947857008165649 0.010071403294361402914 9.24012875653437682
0.012679145539692626699 14.37110971146566740 0.012679145539692626699 10.76179355063087328
0.015962098519750611558 17.03482287716818533 0.015962098519750611558 12.48204769436455130
0.020095091452091651263 20.11836409135705495 0.020095091452091651263 14.41972464177095503
0.025298221281360611101 23.67398356996476494 0.025298221281360611101 16.59550398164781271
0.031848573644296607199 27.75889509046428216 0.031848573644296607199 19.03235313497058812
0.040094978690191851456 32.43584722343396010 0.040094978690191851456 21.75618994139775708
0.050476587558435426217 37.77387841941302327 0.050476587558435426217 24.79688093246169345
0.063546258777947173257 43.84933460560263541 0.063546258777947173257 28.18923871733030140
0.080000000000012505552 50.74706468067056164 0.080000000000012505552 31.97283617148226398
0.100714032943542974863 58.56132626371217498 0.100714032943542974863 36.18897848289321928
0.126791455396883634421 67.39555151137658129 0.126791455396883634421 40.87393960198286180
0.159620985197506115583 77.36009294201747366 0.159620985197506115583 46.04985767564156873
0.200950914520774404082 88.56774061075014970 0.200950914520774404082 51.71691568930767602
0.252982212813464002465 101.12779880764399820 0.252982212813464002465 57.85137173753837914
0.318485736442809752589 115.14061013450142923 0.318485736442809752589 64.40802523793269074
0.400949786901833249431 130.69266005948145448 0.400949786901833249431 71.33583810664629254
0.504765875584169521062 147.85813381438933334 0.504765875584169521062 78.58708637242955319
0.635462587779443310865 166.69803498987110402 0.635462587779443310865 86.12884915872338354
0.800000000000011368684 187.26673437214560636 0.800000000000011368684 93.95837728700919911
1.007140329435344483500 209.61774548290088660 1.007140329435344483500 102.12220746956515427
1.267914553968907398485 233.81840511953720352 1.267914553968907398485 110.64169028040082310
1.596209851975117999245 259.92102618811560433 1.596209851975117999245 119.66304462603083891
2.009509145207687197399 288.04446405759466643 2.009509145207687197399 129.26565389757527669
2.529822128134725289783 318.25748361760793159 2.529822128134725289783 139.61697373578772385
3.184857364427983839050 350.72710229202948540 3.184857364427983839050 150.94478474290005465
4.009497869018204596614 385.58853228787938860 4.009497869018204596614 163.33390773492132553
5.009497869018190385759 421.72530834788068432 5.009497869018190385759 176.41232646602742307
6.009497869018190385759 453.11623516954665547 6.009497869018190385759 187.90273628177479281
7.009497869018204596614 480.99606363238041240 7.009497869018204596614 198.15066521547944944
8.009497869018190385759 506.13869536388062897 8.009497869018190385759 207.34814454431247555
9.009497869018204596614 529.06649707240660518 9.009497869018204596614 215.66460027182009185
10.009497869018190385759 550.15272345461357872 10.009497869018190385759 223.20918466792633694
11.009497869018190385759 569.67589615152996885 11.009497869018190385759 230.02069802482810701
12.009497869018204596614 587.85119407224203769 12.009497869018204596614 236.24921715876422468
13.009497869018190385759 604.84857213186330682 13.009497869018190385759 241.95911633972386312
14.009497869018204596614 620.80708900840784281 14.009497869018204596614 247.19767123815242371
15.009497869018190385759 635.83892812676958783 15.009497869018190385759 252.02099256346613743
16.009497869018190385759 650.03717057928588474 16.009497869018190385759 256.47788395227507863
17.009497869018204596614 663.48328725094984293 17.009497869018204596614 260.61380958959227883
18.009497869018190385759 676.24780154696122736 18.009497869018190385759 264.47571453473744896
19.009497869018204596614 688.39065818195820157 19.009497869018204596614 268.07565279464444075
20.009497869018190385759 699.96595066470558777 20.009497869018190385759 271.43151904463042001
21.009497869018190385759 711.01799730000641375 21.009497869018190385759 274.55991377738763504
22.009497869018204596614 721.58472177990734053 22.009497869018204596614 277.48808865970210036
23.009497869018190385759 731.70079516169437284 23.009497869018190385759 280.22608896582443094
24.009497869018204596614 741.39826680293504069 24.009497869018204596614 282.80299847106914513
25.009497869018204596614 750.70718599924941827 25.009497869018204596614 285.23236566845611151
26.009497869018190385759 759.65400276376055899 26.009497869018190385759 287.52843405408503941
27.009497869018204596614 768.26284417992371800 27.009497869018204596614 289.70675478181408380
28.009497869018190385759 776.55466483298005187 28.009497869018190385759 291.77247940360354050
29.009497869018190385759 784.54826010527779090 29.009497869018190385759 293.71695163540408657
30.009497869018190385759 792.26107194409837575 30.009497869018190385759 295.57934633088984810
31.009497869018218807469 799.70907785988265459 31.009497869018218807469 297.34631323580373419
32.009497869018190385759 806.90699465250463618 32.009497869018190385759 299.02501646014525249
33.009497869018190385759 813.86844252665548538 33.009497869018190385759 300.61297441854532053
34.009497869018218807469 820.60651740521905140 34.009497869018218807469 302.14318984373352350
35.009497869018190385759 827.13288654895632135 35.009497869018190385759 303.60165329001148393
36.009497869018190385759 833.45833532833330537 36.009497869018190385759 305.00736806118862887
37.009497869018190385759 839.59285468666575980 37.009497869018190385759 306.35906781788065700
38.009497869018218807469 845.54595974247956747 38.009497869018218807469 307.66274006106334582
39.009497869018190385759 851.32635591035000289 39.009497869018190385759 308.92748451321278935
40.009497869018190385759 856.94219529939402946 40.009497869018190385759 310.14934553958664765
41.009497869018218807469 862.40130657174574935 41.009497869018218807469 311.32729029076557481
42.009497869018190385759 867.71085736027112034 42.009497869018190385759 312.45705880830837486
43.009497869018190385759 872.87758421633554917 43.009497869018190385759 313.56217736715387900
44.009497869018218807469 877.90800236803977441 44.009497869018218807469 314.60494396706206999
46.009497869018190385759 887.58420696871701239 46.009497869018190385759 316.60749580551600957
48.009497869018218807469 896.78118928583933211 48.009497869018218807469 318.46487229656651152
50.009497869018190385759 905.53224239955454777 50.009497869018190385759 320.11913350244907406
52.009497869018190385759 913.87045724616257303 52.009497869018190385759 321.61999521532703739
54.009497869018218807469 921.82725222723070146 54.009497869018218807469 322.98876077613124380
56.009497869018190385759 929.42751467452990255 56.009497869018190385759 324.23983156651530635
58.009497869018218807469 936.69293608140708329 58.009497869018218807469 325.42278534460791661
60.009497869018190385759 943.64491849984392502 60.009497869018190385759 326.61794323902313408
62.009497869018190385759 950.30148889524650713 62.009497869018190385759 327.78525775382553320
64.009497869018218807469 956.68145672172693139 64.009497869018218807469 328.92451999396604378
66.009497869018190385759 962.80994765980585726 66.009497869018190385759 330.15014269273859782
68.009497869018190385759 968.70866976345655530 68.009497869018190385759 331.40097848922289359
70.009497869018190385759 974.39073418863438292 70.009497869018190385759 332.47718182588448599
72.009497869018190385759 979.86976285183061464 72.009497869018190385759 333.36059887437534144
74.009497869018218807469 985.15837194123912468 74.009497869018218807469 334.19568719695377013
76.009497869018190385759 990.26670373002139058 76.009497869018190385759 334.98481883202123299
78.009497869018190385759 995.20774841957756962 78.009497869018190385759 335.87541924585502784
80.009497869018218807469 999.98956540642927848 80.009497869018218807469 336.53604514504235112
82.009497869018190385759 1004.61210425628746634 82.009497869018190385759 337.28719516029303804
84.009497869018218807469 1009.07761397909769130 84.009497869018218807469 337.94187184808436086
86.009497869018190385759 1013.38978244504653503 86.009497869018190385759 338.31174885657219420
88.009497869018190385759 1017.55899822843946367 88.009497869018190385759 338.75897736869677601
91.009497869018218807469 1023.55442282850492575 91.009497869018218807469 339.28548750209739637
94.009497869018218807469 1029.26021642331170369 94.009497869018218807469 340.04643209403019455
97.009497869018218807469 1034.71544916226616806 97.009497869018218807469 341.23092001478028124
99.504748934509137825444 1039.09024212113286012 99.504748934509137825444 341.47553509921408477
nan nan nan nan

