Time Pressure difference Time.1 Pressure.1 difference.1
(hr) (psi) (hr) (psi)
0.000200000000020850166 0.22890978973029966 0.000200000000020850166 0.18432896571876395
0.000399999999999067768 0.43915623266932985 0.000399999999999067768 0.42231578596137948
0.000600000000019917934 0.63861258803387888 0.000600000000019917934 0.59331369344409479
0.000799999999998135536 0.82999229361356575 0.000799999999998135536 0.75726238065796436
0.001007140329434719206 1.02131391841303931 0.001007140329434719206 0.92043402680670661
0.001267914553977789183 1.25386342463303269 0.001267914553977789183 1.11672669436473737
0.001596209851982166583 1.53557884390943222 0.001596209851982166583 1.35019460017732218
0.002009509145224797066 1.87564078823535030 0.002009509145224797066 1.62649336073137851
0.002529822128153114136 2.28459121217493744 0.002529822128153114136 1.95178476316436011
0.003184857364431081805 2.77444747524996727 0.003184857364431081805 2.33271232971704201
0.004009497869034817086 3.35880972792683030 0.004009497869034817086 2.77637131821186012
0.005047658755856332391 4.05296098298990337 0.005047658755856332391 3.29028039323426924
0.006354625877790454069 4.87396120679203460 0.006354625877790454069 3.88236477643986477
0.008000000000009777068 5.84073927923975411 0.008000000000009777068 4.56096259907919954
0.010071403294361402914 6.97418951404714527 0.010071403294361402914 5.33486679150852705
0.012679145539692626699 8.29728221077074402 0.012679145539692626699 6.21341288017556082
0.015962098519750611558 9.83519962342163190 0.015962098519750611558 7.20661621599160807
0.020095091452091651263 11.61550832444388348 0.020095091452091651263 8.32535045355077763
0.025298221281360611101 13.66837541964003222 0.025298221281360611101 9.58155512902684947
0.031848573644296607199 16.02683376921144998 0.031848573644296607199 10.98849067792641243
0.040094978690191851456 18.72711179315244223 0.040094978690191851456 12.56112098503342267
0.050476587558435426217 21.80906942705733087 0.050476587558435426217 14.31668974591184629
0.063546258777947173257 25.31678564021586197 0.063546258777947173257 16.27529631604353000
0.080000000000012505552 29.29924866468903843 0.080000000000012505552 18.45978843108221312
0.100714032943542974863 33.81087893716212278 0.100714032943542974863 20.89401399201004850
0.126791455396883634421 38.91139389147402028 0.126791455396883634421 23.59891607208821895
0.159620985197506115583 44.66450649105159698 0.159620985197506115583 26.58727631838927863
0.200950914520774404082 51.13533703186707413 0.200950914520774404082 29.85920037910971558
0.252982212813464002465 58.38699327384729543 0.252982212813464002465 33.40098066355989204
0.318485736442809752589 66.47740887010837696 0.318485736442809752589 37.18652023171208754
0.400949786901833249431 75.45651694000250131 0.400949786901833249431 41.18635181251654132
0.504765875584169521062 85.36714895698706584 0.504765875584169521062 45.37292156596875969
0.635462587779443310865 96.24452586207651450 0.635462587779443310865 49.72722234447048351
0.800000000000011368684 108.12003909033313676 0.800000000000011368684 54.24766688646191426
1.007140329435344483500 121.02458512786353140 1.007140329435344483500 58.96112355789988158
1.267914553968907398485 134.99704144637431114 1.267914553968907398485 63.87991929396726221
1.596209851975117999245 150.06761134634598420 1.596209851975117999245 69.08847482182157762
2.009509145207687197399 166.30491698419612590 2.009509145207687197399 74.63262281633591044
2.529822128134725289783 183.74866035280760457 2.529822128134725289783 80.60904521349253571
3.184857364427983839050 202.49527037992643841 3.184857364427983839050 87.14925307797625464
4.009497869018204596614 222.62281298130392315 4.009497869018204596614 94.30221842808664690
5.009497869018190385759 243.48668746122922357 5.009497869018190385759 101.85315452566867123
6.009497869018190385759 261.61050558845522573 6.009497869018190385759 108.48724019287375597
7.009497869018204596614 277.70716126699699089 7.009497869018204596614 114.40396897346549565
8.009497869018190385759 292.22347317235369246 8.009497869018190385759 119.71421175577286533
9.009497869018204596614 305.46103415878576470 9.009497869018204596614 124.51578808146592792
10.009497869018190385759 317.63534599455044827 10.009497869018190385759 128.87171794034995287
11.009497869018190385759 328.90721551390220156 11.009497869018190385759 132.80440301056114549
12.009497869018204596614 339.40087808699252037 12.009497869018204596614 136.40049141619218176
13.009497869018190385759 349.21445862707582819 13.009497869018190385759 139.69715018859528755
14.009497869018204596614 358.42824384259012049 14.009497869018204596614 142.72167433749933707
15.009497869018190385759 367.10700378639904784 15.009497869018190385759 145.50645985739743082
16.009497869018190385759 375.30447961747449881 16.009497869018190385759 148.07968394225693487
17.009497869018204596614 383.06770924300121806 17.009497869018204596614 150.46759572531172466
18.009497869018190385759 390.43740994975496506 18.009497869018190385759 152.69729933515029074
19.009497869018204596614 397.44819132769669068 19.009497869018204596614 154.77575425502109852
20.009497869018190385759 404.13128472339599284 20.009497869018190385759 156.71329212765456873
21.009497869018190385759 410.51227768641882676 21.009497869018190385759 158.51949738845399906
22.009497869018204596614 416.61306578236161613 22.009497869018204596614 160.21010401862048411
23.009497869018190385759 422.45366664052539818 23.009497869018190385759 161.79091174253258600
24.009497869018204596614 428.05258422961912856 24.009497869018204596614 163.27871232480592312
25.009497869018204596614 433.42716776560439484 25.009497869018204596614 164.68132810291993451
26.009497869018190385759 438.59268838813346747 26.009497869018190385759 166.00698268028307325
27.009497869018204596614 443.56307607369183188 27.009497869018204596614 167.26465464761341195
28.009497869018190385759 448.35042912998477505 28.009497869018190385759 168.45731829717487926
29.009497869018190385759 452.96559923059430730 29.009497869018190385759 169.57997584987481332
30.009497869018190385759 457.41865663187564905 30.009497869018190385759 170.65524524009865104
31.009497869018218807469 461.71882608513982404 31.009497869018218807469 171.67541858519987841
32.009497869018190385759 465.87460445974795675 32.009497869018190385759 172.64463214491405552
33.009497869018190385759 469.89385549652183727 33.009497869018190385759 173.56145315485824199
34.009497869018218807469 473.78414023773024155 34.009497869018218807469 174.44493602298578594
35.009497869018190385759 477.55219487543513424 35.009497869018190385759 175.28699227687454254
36.009497869018190385759 481.20424643484903982 36.009497869018190385759 176.09859363532777365
37.009497869018190385759 484.74606327192401523 37.009497869018190385759 176.87900896654997496
38.009497869018218807469 488.18313902112970482 38.009497869018218807469 177.63169520506679078
39.009497869018190385759 491.52049982748513912 39.009497869018190385759 178.36190615291152994
40.009497869018190385759 494.76285238040480863 40.009497869018190385759 179.06735799078020932
41.009497869018218807469 497.91471662444195090 41.009497869018218807469 179.74745439429105431
42.009497869018190385759 500.98023085328856041 42.009497869018190385759 180.39973584026859044
43.009497869018190385759 503.96328447207298495 43.009497869018190385759 181.03778542330019263
44.009497869018218807469 506.86763910305688796 44.009497869018218807469 181.63983557343584607
46.009497869018190385759 512.45427798571199673 46.009497869018190385759 182.79602588016584264
48.009497869018218807469 517.76423381408835667 48.009497869018218807469 183.86839796745161379
50.009497869018190385759 522.81672863068627066 50.009497869018190385759 184.82349972028191587
52.009497869018190385759 527.63086776853913307 52.009497869018190385759 185.69003497337749309
54.009497869018218807469 532.22479090855199502 54.009497869018218807469 186.48030339150218992
56.009497869018190385759 536.61286696303045574 56.009497869018190385759 187.20261973462959304
58.009497869018218807469 540.80761969983132076 58.009497869018218807469 187.88560814235853513
60.009497869018190385759 544.82140577538166326 60.009497869018190385759 188.57564270026620079
62.009497869018190385759 548.66463321121773333 62.009497869018190385759 189.24960164654831374
64.009497869018218807469 552.34816180537438868 64.009497869018218807469 189.90736437387471369
66.009497869018190385759 555.88649808283139464 66.009497869018190385759 190.61498804524151751
68.009497869018190385759 559.29217537286365314 68.009497869018190385759 191.33716871264570614
70.009497869018190385759 562.57276351268330927 70.009497869018190385759 191.95852384664274837
72.009497869018190385759 565.73612723143423864 72.009497869018190385759 192.46857218029970227
74.009497869018218807469 568.78955059248903581 74.009497869018218807469 192.95071751371293090
76.009497869018190385759 571.73888932337081314 76.009497869018190385759 193.40632936339341086
78.009497869018190385759 574.59164342715246221 78.009497869018190385759 193.92052507402198103
80.009497869018218807469 577.35246606484406584 80.009497869018218807469 194.30194304600559008
82.009497869018190385759 580.02132811778096766 82.009497869018190385759 194.73562588499939352
84.009497869018218807469 582.59952807095066873 84.009497869018218807469 195.11360902927134475
86.009497869018190385759 585.08919514751744373 86.009497869018190385759 195.32716066058696924
88.009497869018190385759 587.49632727906123364 88.009497869018190385759 195.58537183928530112
91.009497869018218807469 590.95783657645756648 91.009497869018218807469 195.88935693517319692
94.009497869018218807469 594.25212495383652822 94.009497869018218807469 196.32869475617593480
97.009497869018218807469 597.40174989368586012 97.009497869018218807469 197.01256891419390627
99.504748934509137825444 599.92757375295593647 99.504748934509137825444 197.15379951011226467
nan nan nan nan

