Time Pressure difference Time.1 Pressure.1 difference.1
(hr) (psi) (hr) (psi)
0.000200000000020850166 0.14437774319590796 0.000200000000020850166 0.11625977249582170
0.000399999999999067768 0.27698415982085184 0.000399999999999067768 0.26636257088413806
0.000600000000019917934 0.40278506369457068 0.000600000000019917934 0.37421419227029501
0.000799999999998135536 0.52349187146215093 0.000799999999998135536 0.47761973682021935
0.001007140329434719206 0.64416204658077325 0.001007140329434719206 0.58053518684213845
0.001267914553977789183 0.79083542795482120 0.001267914553977789183 0.70434069285096179
0.001596209851982166583 0.96851868259647189 0.001596209851982166583 0.85159332625563144
0.002009509145224797066 1.18300219650138105 0.002009509145224797066 1.02586019157240549
0.002529822128153114136 1.44093498022798339 0.002529822128153114136 1.23102764474092008
0.003184857364431081805 1.74989661020667886 0.003184857364431081805 1.47128588116140246
0.004009497869034817086 2.11846495911724952 0.004009497869034817086 1.75111001442774183
0.005047658755856332391 2.55627931280082121 0.005047658755856332391 2.07524220880462096
0.006354625877790454069 3.07409971539497562 0.006354625877790454069 2.44868105180684248
0.008000000000009777068 3.68386497023945259 0.008000000000009777068 2.87668556085714267
0.010071403294361402914 4.39875351702973560 0.010071403294361402914 3.36480160379459381
0.012679145539692626699 5.23325315908089372 0.012679145539692626699 3.91891727409765744
0.015962098519750611558 6.20324682130841509 0.015962098519750611558 4.54534944341954361
0.020095091452091651263 7.32612126345643588 0.020095091452091651263 5.25095633181470678
0.025298221281360611101 8.62090345094943267 0.025298221281360611101 6.04326843105288170
0.031848573644296607199 10.10842783482944540 0.031848573644296607199 6.93064934914966546
0.040094978690191851456 11.81154436626934867 0.040094978690191851456 7.92253709186748445
0.050476587558435426217 13.75539346216361025 0.050476587558435426217 9.02980758483982449
0.063546258777947173257 15.96777656392699818 0.063546258777947173257 10.26513787253726129
0.080000000000012505552 18.47959147805550728 0.080000000000012505552 11.64293845489826040
0.100714032943542974863 21.32516220546499852 0.100714032943542974863 13.17825065509130589
0.126791455396883634421 24.54215366357675165 0.126791455396883634421 14.88428366638243894
0.159620985197506115583 28.17075082605542136 0.159620985197506115583 16.76909911584683144
0.200950914520774404082 32.25202629787694519 0.200950914520774404082 18.83276363780449358
0.252982212813464002465 36.82578333938734261 0.252982212813464002465 21.06663159499039040
0.318485736442809752589 41.92856180369579988 0.318485736442809752589 23.45424315268115123
0.400949786901833249431 47.59185545562249331 0.400949786901833249431 25.97701274449572750
0.504765875584169521062 53.84267891731536793 0.504765875584169521062 28.61756164128095037
0.635462587779443310865 60.70324670385871713 0.635462587779443310865 31.36390167478040425
0.800000000000011368684 68.19335798834735840 0.800000000000011368684 34.21503172904296974
1.007140329435344483500 76.33249977018843424 1.007140329435344483500 37.18789819174730837
1.267914553968907398485 85.14519280768053022 1.267914553968907398485 40.29027589456104863
1.596209851975117999245 94.65048689491757727 1.596209851975117999245 43.57541059023387220
2.009509145207687197399 104.89166332663351966 2.009509145207687197399 47.07220981553212624
2.529822128134725289783 115.89376290226100252 2.529822128134725289783 50.84165270001326320
3.184857364427983839050 127.71760517426734793 3.184857364427983839050 54.96668576486737834
4.009497869018204596614 140.41242779539757635 4.009497869018204596614 59.47819659026379924
5.009497869018190385759 153.57166888894522572 5.009497869018190385759 64.24071510932698459
6.009497869018190385759 165.00270450513681908 6.009497869018190385759 68.42495868374064116
7.009497869018204596614 175.15517034160265553 7.009497869018204596614 72.15675167280666358
8.009497869018190385759 184.31088340609235843 8.009497869018190385759 75.50602244726850643
9.009497869018204596614 192.66006402825374266 9.009497869018204596614 78.53446764615334530
10.009497869018190385759 200.33863325800081157 10.009497869018190385759 81.28183517152790216
11.009497869018190385759 207.44801501367035712 11.009497869018190385759 83.76225418639967302
12.009497869018204596614 214.06656689800510662 12.009497869018204596614 86.03037530498394858
13.009497869018190385759 220.25617815367851904 13.009497869018190385759 88.10964047842774960
14.009497869018204596614 226.06748712947677404 14.009497869018204596614 90.01726518672343502
15.009497869018190385759 231.54134552540855907 15.009497869018190385759 91.77368219763955892
16.009497869018190385759 236.71164890906072742 16.009497869018190385759 93.39666340148883705
17.009497869018204596614 241.60806498006286347 17.009497869018204596614 94.90276462413451952
18.009497869018190385759 246.25627490295005373 18.009497869018190385759 96.30908095321569817
19.009497869018204596614 250.67810760210937815 19.009497869018204596614 97.62000186672899815
20.009497869018190385759 254.89326127978898739 20.009497869018190385759 98.84204372757297108
21.009497869018190385759 258.91787448849288467 21.009497869018190385759 99.98125162082229167
22.009497869018204596614 262.76575717645687291 22.009497869018204596614 101.04754926664624293
23.009497869018190385759 266.44953484190000381 23.009497869018190385759 102.04459466113982558
24.009497869018204596614 269.98087828861599746 24.009497869018204596614 102.98297868852139914
25.009497869018204596614 273.37072999595307010 25.009497869018204596614 103.86763504530570401
26.009497869018190385759 276.62872176114302647 26.009497869018190385759 104.70375051403475197
27.009497869018204596614 279.76363948438728357 27.009497869018204596614 105.49698806205682899
28.009497869018190385759 282.78311379767012568 28.009497869018190385759 106.24922363187826591
29.009497869018190385759 285.69398905720493076 29.009497869018190385759 106.95730502949621155
30.009497869018190385759 288.50261676454903181 30.009497869018190385759 107.63549781483345669
31.009497869018218807469 291.21481514520257861 31.009497869018218807469 108.27894048020776552
32.009497869018190385759 293.83594333572341384 32.009497869018190385759 108.89024184303404752
33.009497869018190385759 296.37096114649904166 33.009497869018190385759 109.46849823165896964
34.009497869018218807469 298.82463747020238998 34.009497869018218807469 110.02572762234069614
35.009497869018190385759 301.20122095084633429 35.009497869018190385759 110.55682846221172611
36.009497869018190385759 303.50463909126096951 36.009497869018190385759 111.06872082228190379
37.009497869018190385759 305.73853010288019050 37.009497869018190385759 111.56094356386975619
38.009497869018218807469 307.90635892509163796 38.009497869018218807469 112.03567704110420777
39.009497869018190385759 310.01129564282558704 39.009497869018190385759 112.49623492650955825
40.009497869018190385759 312.05630885430758781 40.009497869018190385759 112.94117677196267380
41.009497869018218807469 314.04424937423948450 41.009497869018218807469 113.37012646437311503
42.009497869018190385759 315.97772730289113952 42.009497869018190385759 113.78153273585569139
43.009497869018190385759 317.85919576179765045 43.009497869018190385759 114.18396270162396888
44.009497869018218807469 319.69102727741824310 44.009497869018218807469 114.56368714272258558
46.009497869018190385759 323.21462631124978770 46.009497869018190385759 115.29291828389546026
48.009497869018218807469 326.56371609842835824 48.009497869018218807469 115.96928368535347431
50.009497869018190385759 329.75042034549812797 50.009497869018190385759 116.57168446409937701
52.009497869018190385759 332.78678914813082201 52.009497869018190385759 117.11822467275115400
54.009497869018218807469 335.68426354689722757 54.009497869018218807469 117.61666194300629229
56.009497869018190385759 338.45190628714016157 56.009497869018190385759 118.07224055158010856
58.009497869018218807469 341.09761634662561391 58.009497869018218807469 118.50301428586666930
60.009497869018190385759 343.62918730277340273 60.009497869018190385759 118.93823216062540382
62.009497869018190385759 346.05318369204258033 62.009497869018190385759 119.36331084243080625
64.009497869018218807469 348.37645499489303802 64.009497869018218807469 119.77817426195366579
66.009497869018190385759 350.60815075158967602 66.009497869018190385759 120.22448592395952005
68.009497869018190385759 352.75617597046624496 68.009497869018190385759 120.67997895928306207
70.009497869018190385759 354.82530509133289343 70.009497869018190385759 121.07187941961453248
72.009497869018190385759 356.82049854793081067 72.009497869018190385759 121.39357657123478873
74.009497869018218807469 358.74635053709278054 74.009497869018218807469 121.69767477172089798
76.009497869018190385759 360.60655437715871585 76.009497869018190385759 121.98503780109453487
78.009497869018190385759 362.40584046222357983 78.009497869018190385759 122.30935078198116628
80.009497869018218807469 364.14714362913372270 80.009497869018218807469 122.54991832640220650
82.009497869018190385759 365.83044551219524010 82.009497869018190385759 122.82345031308784655
84.009497869018218807469 367.45656509050155591 84.009497869018218807469 123.06185144656656405
86.009497869018190385759 369.02684530546031283 86.009497869018190385759 123.19654250814799923
88.009497869018190385759 370.54506916620528045 88.009497869018190385759 123.35940119275183235
91.009497869018218807469 372.72830869038006085 91.009497869018218807469 123.55113035453736359
94.009497869018218807469 374.80607881075314936 94.009497869018218807469 123.82822904556195454
97.009497869018218807469 376.79260695908942580 97.009497869018218807469 124.25956143934452314
99.504748934509137825444 378.38569194222384340 99.504748934509137825444 124.34863825311002472
nan nan nan nan

