Time Pressure difference Time.1 Pressure.1 difference.1
(hr) (psi) (hr) (psi)
0.000200000000020850166 0.35084539667813902 0.000200000000020850166 0.28251727098725582
0.000399999999999067768 0.67308585987554148 0.000399999999999067768 0.64727484841793126
0.000600000000019917934 0.97878857447022627 0.000600000000019917934 0.90935987655320394
0.000799999999998135536 1.27211237158419044 0.000799999999998135536 1.16064070760975602
0.001007140329434719206 1.56534714946312237 0.001007140329434719206 1.41073058356975611
0.001267914553977789183 1.92177106585912516 0.001267914553977789183 1.71158437796425433
0.001596209851982166583 2.35355058102458736 0.001596209851982166583 2.06941590680772602
0.002009509145224797066 2.87475663294895201 0.002009509145224797066 2.49289341889874727
0.002529822128153114136 3.50154666179753482 0.002529822128153114136 2.99146096053622523
0.003184857364431081805 4.25233943102037504 0.003184857364431081805 3.57530092365128382
0.004009497869034817086 5.14797961567870477 0.004009497869034817086 4.25528806614824262
0.005047658755856332391 6.21189117981132188 0.005047658755856332391 5.04294609289827633
0.006354625877790454069 7.47022158818779136 0.006354625877790454069 5.95042183055652441
0.008000000000009777068 8.95198275151452449 0.008000000000009777068 6.99049496394818615
0.010071403294361402914 10.68919896107225931 0.010071403294361402914 8.17664223927287281
0.012679145539692626699 12.71707632957999579 0.012679145539692626699 9.52317202876580993
0.015962098519750611558 15.07421118753184608 0.015962098519750611558 11.04543465784334799
0.020095091452091651263 17.80285426197444920 0.020095091452091651263 12.76009595658599771
0.025298221281360611101 20.94924206474240691 0.025298221281360611101 14.68545541017513756
0.031848573644296607199 24.56400339137310596 0.031848573644296607199 16.84183701943623390
0.040094978690191851456 28.70266480715194035 0.040094978690191851456 19.25217562738782462
0.050476587558435426217 33.42631882774473695 0.050476587558435426217 21.94290029683874366
0.063546258777947173257 38.80252439627856376 0.063546258777947173257 24.94481690269417129
0.080000000000012505552 44.90636478346130644 0.080000000000012505552 28.29294370646260859
0.100714032943542974863 51.82124908996416934 0.100714032943542974863 32.02383190278663960
0.126791455396883634421 59.63870501667097557 0.126791455396883634421 36.16958051571691612
0.159620985197506115583 68.45638413170979675 0.159620985197506115583 40.74977971674697130
0.200950914520774404082 78.37409499328646234 0.200950914520774404082 45.76459143072698765
0.252982212813464002465 89.48856158638685088 0.252982212813464002465 51.19300631114244737
0.318485736442809752589 101.88857764732296118 0.318485736442809752589 56.99502610677440373
0.400949786901833249431 115.65067465640906619 0.400949786901833249431 63.12548692833417618
0.504765875584169521062 130.84049954518604864 0.504765875584169521062 69.54215756352729727
0.635462587779443310865 147.51203473631989027 0.635462587779443310865 76.21590614234200700
0.800000000000011368684 165.71339324629488488 0.800000000000011368684 83.14429990114587099
1.007140329435344483500 185.49192949335946423 1.007140329435344483500 90.36851944004916959
1.267914553968907398485 206.90723019068479971 1.267914553968907398485 97.90745800284524591
1.596209851975117999245 230.00558732495511549 1.596209851975117999245 105.89050552756313550
2.009509145207687197399 254.89217668492804592 2.009509145207687197399 114.38790882634491197
2.529822128134725289783 281.62784871067572112 2.529822128134725289783 123.54785034355556661
3.184857364427983839050 310.36039806596568269 3.184857364427983839050 133.57189442343420183
4.009497869018204596614 341.20947479814230974 4.009497869018204596614 144.53509948618508929
5.009497869018190385759 373.18711248142648174 5.009497869018190385759 156.10826625012617797
6.009497869018190385759 400.96512131041015436 6.009497869018190385759 166.27619493613659074
7.009497869018204596614 425.63613932752150504 7.009497869018204596614 175.34464525671671709
8.009497869018190385759 447.88499646350942385 8.009497869018190385759 183.48354677600482887
9.009497869018204596614 468.17393797539381239 9.009497869018204596614 190.84282552355398366
10.009497869018190385759 486.83325905700706926 10.009497869018190385759 197.51907096086313231
11.009497869018190385759 504.10942508503308090 11.009497869018190385759 203.54661768612146489
12.009497869018204596614 520.19284909411601348 12.009497869018204596614 209.05826952351023351
13.009497869018190385759 535.23392515064881536 13.009497869018190385759 214.11099162892546133
14.009497869018204596614 549.35570706593068735 14.009497869018204596614 218.74661851074245078
15.009497869018190385759 562.65746658765090160 15.009497869018190385759 223.01480285333136067
16.009497869018190385759 575.22157170129264614 16.009497869018190385759 226.95873127097547695
17.009497869018204596614 587.12011645414247596 17.009497869018204596614 230.61863527833727971
18.009497869018190385759 598.41550740665059038 18.009497869018190385759 234.03605682413555655
19.009497869018204596614 609.16078997611020895 19.009497869018204596614 237.22166256733626710
20.009497869018190385759 619.40383181461675122 20.009497869018190385759 240.19128760741824635
21.009497869018190385759 629.18385044094907244 21.009497869018190385759 242.95962181432983584
22.009497869018204596614 638.53440474486149014 22.009497869018204596614 245.55078034226468731
23.009497869018190385759 647.48617534119750871 23.009497869018190385759 247.97365231126724439
24.009497869018204596614 656.06752288788027272 24.009497869018204596614 250.25397411873851183
25.009497869018204596614 664.30503817669421096 25.009497869018204596614 252.40373490284130753
26.009497869018190385759 672.22212697396923886 26.009497869018190385759 254.43553881389789240
27.009497869018204596614 679.84013947242306131 27.009497869018204596614 256.36314715598268776
28.009497869018190385759 687.17761850314650474 28.009497869018190385759 258.19111856658497572
29.009497869018190385759 694.25119620636849049 29.009497869018190385759 259.91179305095192831
30.009497869018190385759 701.07630705996632514 30.009497869018190385759 261.55983665884400580
31.009497869018218807469 707.66708965336795245 31.009497869018218807469 263.12343567470179551
32.009497869018190385759 714.03656696608425136 32.009497869018190385759 264.60892966001534887
33.009497869018190385759 720.19679159434224403 33.009497869018190385759 266.01412264584485001
34.009497869018218807469 726.15935219442962989 34.009497869018218807469 267.36821893719064747
35.009497869018190385759 731.93457319143499262 35.009497869018190385759 268.65882149625548436
36.009497869018190385759 737.53199862073267923 36.009497869018190385759 269.90274645414615406
37.009497869018190385759 742.96046952461563251 37.009497869018190385759 271.09887321997365461
38.009497869018218807469 748.22840588532631045 38.009497869018218807469 272.25250016724282887
39.009497869018190385759 753.34351117349854121 39.009497869018190385759 273.37167969188072902
40.009497869018190385759 758.31299923663345908 40.009497869018190385759 274.45291143031346337
41.009497869018218807469 763.14379770216748966 41.009497869018218807469 275.49528140824349975
42.009497869018190385759 767.84224924899467624 42.009497869018190385759 276.49501996433320983
43.009497869018190385759 772.41431508954974561 43.009497869018190385759 277.47294563244372512
44.009497869018218807469 776.86576058605783146 44.009497869018218807469 278.39569569915488501
46.009497869018190385759 785.42828880816648507 46.009497869018190385759 280.16776515620193777
48.009497869018218807469 793.56675051897866524 48.009497869018218807469 281.81136812658434110
50.009497869018190385759 801.31060695356813994 50.009497869018190385759 283.27523323141247147
52.009497869018190385759 808.68914046877398505 52.009497869018190385759 284.60335425658183794
54.009497869018218807469 815.73015338598338531 54.009497869018218807469 285.81458264906706290
56.009497869018190385759 822.45566864595195966 56.009497869018190385759 286.92166227301066783
58.009497869018218807469 828.88488117392444110 58.009497869018218807469 287.96846476720963892
60.009497869018190385759 835.03672976684310925 60.009497869018190385759 289.02606675302234862
62.009497869018190385759 840.92716658843505684 62.009497869018190385759 290.05902997461163295
64.009497869018218807469 846.57283623111300130 64.009497869018218807469 291.06716957956615488
66.009497869018190385759 851.99597255179048716 66.009497869018190385759 292.15173004319694883
68.009497869018190385759 857.21578513030408430 68.009497869018190385759 293.25860171970856527
70.009497869018190385759 862.24387610277256044 70.009497869018190385759 294.21094014403740857
72.009497869018190385759 867.09229958020489448 72.009497869018190385759 294.99268089072080556
74.009497869018218807469 871.77221969894560516 74.009497869018218807469 295.73165527428551513
76.009497869018190385759 876.29261141392464651 76.009497869018190385759 296.42996232493953812
78.009497869018190385759 880.66496982789044523 78.009497869018190385759 297.21805967227550127
80.009497869018218807469 884.89642674644403542 80.009497869018218807469 297.80265126985824509
82.009497869018190385759 888.98693753999782530 82.009497869018190385759 298.46734817014606733
84.009497869018218807469 892.93849237018253007 84.009497869018218807469 299.04667527688974360
86.009497869018190385759 896.75435465420150649 86.009497869018190385759 299.37398153534411449
88.009497869018190385759 900.44371730026057321 88.009497869018190385759 299.76973657720526489
91.009497869018218807469 905.74910246522404123 91.009497869018218807469 300.23564837449748666
94.009497869018218807469 910.79819151421361312 94.009497869018218807469 300.90901255113237767
97.009497869018218807469 915.62555784359039990 97.009497869018218807469 301.95717261685274480
99.504748934509137825444 919.49683689587038771 99.504748934509137825444 302.17363388968186655
nan nan nan nan

