Time Pressure difference Time.1 Pressure.1 difference.1
(hr) (psi) (hr) (psi)
0.000200000000020850166 0.66204301931802356 0.000200000000020850166 0.53310828320622916
0.000399999999999067768 1.27010871213188548 0.000399999999999067768 1.22140349861379360
0.000600000000019917934 1.84696777911759114 0.000600000000019917934 1.71595627025497977
0.000799999999998135536 2.40046790800001819 0.000799999999998135536 2.19012159111862248
0.001007140329434719206 2.95380005815535895 0.001007140329434719206 2.66203958733312174
0.001267914553977789183 3.62636970849749618 0.001267914553977789183 3.22974877291762263
0.001596209851982166583 4.44113489169884801 0.001596209851982166583 3.90497457894421629
0.002009509145224797066 5.42464737773949324 0.002009509145224797066 4.70407393544859520
0.002529822128153114136 6.60739615285888782 0.002529822128153114136 5.64486769738712102
0.003184857364431081805 8.02413730587000451 0.003184857364431081805 6.74656997320124940
0.004009497869034817086 9.71420460527857799 0.004009497869034817086 8.02970136149508562
0.005047658755856332391 11.72179892139236657 0.005047658755856332391 9.51600701964813211
0.006354625877790454069 14.09626035297696234 0.006354625877790454069 11.22840793186039221
0.008000000000009777068 16.89233418995811320 0.008000000000009777068 13.19101928165062887
0.010071403294361402914 20.17045006513635030 0.010071403294361402914 15.42927160289230670
0.012679145539692626699 23.99704168801342874 0.012679145539692626699 17.97016470246853359
0.015962098519750611558 28.44494008734687540 0.015962098519750611558 20.84266454625024068
0.020095091452091651263 33.59387211481319468 0.020095091452091651263 24.07821944899489708
0.025298221281360611101 39.53108577248833200 0.025298221281360611101 27.71136042218549633
0.031848573644296607199 46.35211727369978973 0.031848573644296607199 31.78043872537541503
0.040094978690191851456 54.16174489196048825 0.040094978690191851456 36.32873226063587424
0.050476587558435426217 63.07524981354816163 0.050476587558435426217 41.40611250043131975
0.063546258777947173257 73.22011533199685118 0.063546258777947173257 47.07070993365531564
0.080000000000012505552 84.73802309885556383 0.080000000000012505552 53.38860379577699433
0.100714032943542974863 97.78636555355711835 0.100714032943542974863 60.42876595728395728
0.126791455396883634421 112.53785488220428590 0.126791455396883634421 68.25176707123553399
0.159620985197506115583 129.17675896921787171 0.159620985197506115583 76.89457366592978360
0.200950914520774404082 147.89141592549790971 0.200950914520774404082 86.35749129252319278
0.252982212813464002465 168.86434329200932325 0.252982212813464002465 96.60087544853105612
0.318485736442809752589 192.26309428119577660 0.318485736442809752589 107.54924968975554123
0.400949786901833249431 218.23208330686998124 0.400949786901833249431 119.11739004600372027
0.504765875584169521062 246.89518570893318383 0.504765875584169521062 131.22560648981161080
0.635462587779443310865 278.35426597365267298 0.635462587779443310865 143.81892736881167139
0.800000000000011368684 312.70011305537519775 0.800000000000011368684 156.89276207359085902
1.007140329435344483500 350.02208443842880570 1.007140329435344483500 170.52481813314182091
1.267914553968907398485 390.43261986941593022 1.267914553968907398485 184.75074697765040810
1.596209851975117999245 434.01907203109868760 1.596209851975117999245 199.81470659252320843
2.009509145207687197399 480.97990696409664224 2.009509145207687197399 215.84925226293228206
2.529822128134725289783 531.42994905959074003 2.529822128134725289783 233.13400331353236083
3.184857364427983839050 585.64808590272843958 3.184857364427983839050 252.04931037257838966
4.009497869018204596614 643.86009636749668061 4.009497869018204596614 272.73680819887800908
5.009497869018190385759 704.20169412806501441 5.009497869018190385759 294.57529985364959657
6.009497869018190385759 756.61861910386562613 6.009497869018190385759 313.76211624409563683
7.009497869018204596614 803.17267229180492905 7.009497869018204596614 330.87422399188551481
8.009497869018190385759 845.15612339063079617 8.009497869018190385759 346.23227909757838461
9.009497869018204596614 883.44122624354702111 9.009497869018204596614 360.11919101992600645
10.009497869018190385759 918.65124576855293981 10.009497869018190385759 372.71722345493361672
11.009497869018190385759 951.25126055491318766 11.009497869018190385759 384.09116556976010770
12.009497869018204596614 981.60057878100781181 12.009497869018204596614 394.49161733114402750
13.009497869018190385759 1009.98299308811135688 13.009497869018190385759 404.02607162387852213
14.009497869018204596614 1036.63070523102055631 14.009497869018204596614 412.77346989766965635
15.009497869018190385759 1061.73104036262475347 15.009497869018190385759 420.82750645031615022
16.009497869018190385759 1085.43942634465656738 16.009497869018190385759 428.26967414672338919
17.009497869018204596614 1107.89190418318980846 17.009497869018204596614 435.17588959771535428
18.009497869018190385759 1129.20623465860489887 18.009497869018190385759 441.62454219479741369
19.009497869018204596614 1149.48251413402454091 19.009497869018204596614 447.63575985520810718
20.009497869018190385759 1168.81106856276301187 20.009497869018190385759 453.23942331037346776
21.009497869018190385759 1187.26590115189742392 21.009497869018190385759 458.46325225092084565
22.009497869018204596614 1204.91033731173229171 22.009497869018204596614 463.35275181855917026
23.009497869018190385759 1221.80227116622540962 23.009497869018190385759 467.92469572595206273
24.009497869018204596614 1237.99521909546706411 24.009497869018204596614 472.22764839037012052
25.009497869018204596614 1253.53935775346371884 25.009497869018204596614 476.28423323883708917
26.009497869018190385759 1268.47885367156254688 26.009497869018190385759 480.11823422238734338
27.009497869018204596614 1282.85399452685373944 27.009497869018204596614 483.75561883378395578
28.009497869018190385759 1296.69977052299509523 28.009497869018190385759 487.20498919280964856
29.009497869018190385759 1310.04756640220921327 29.009497869018190385759 490.45189093836341954
30.009497869018190385759 1322.92650692552274450 30.009497869018190385759 493.56173868459904952
31.009497869018218807469 1335.36327152074750302 31.009497869018218807469 496.51224002582324601
32.009497869018190385759 1347.38243446691808458 32.009497869018190385759 499.31535767401618386
33.009497869018190385759 1359.00673893601901909 33.009497869018190385759 501.96694784983520776
34.009497869018218807469 1370.25805264833752517 34.009497869018218807469 504.52211889000784595
35.009497869018190385759 1381.15585772797408026 35.009497869018190385759 506.95747766350979191
36.009497869018190385759 1391.71816370863189150 36.009497869018190385759 509.30475610217348503
37.009497869018190385759 1401.96165358056464356 37.009497869018190385759 511.56183965815927195
38.009497869018218807469 1411.90221579640456184 38.009497869018218807469 513.73872632837947094
39.009497869018190385759 1421.55438675596178655 39.009497869018190385759 515.85061093244019048
40.009497869018190385759 1430.93177894332779942 40.009497869018190385759 517.89088830666821650
41.009497869018218807469 1440.04746474716034754 41.009497869018218807469 519.85783378741041361
42.009497869018190385759 1448.91341276196203580 42.009497869018190385759 521.74433404783565038
43.009497869018190385759 1457.54087175746599314 43.009497869018190385759 523.58967352817217034
44.009497869018218807469 1465.94072093531167411 44.009497869018218807469 525.33089700160360280
46.009497869018190385759 1482.09815691946141669 46.009497869018190385759 528.67478073185213816
48.009497869018218807469 1497.45538210937343138 48.009497869018218807469 531.77624902351203673
50.009497869018190385759 1512.06798966718088195 50.009497869018190385759 534.53855311258007532
52.009497869018190385759 1525.99123521293176964 52.009497869018190385759 537.04470899163095510
54.009497869018218807469 1539.27758154924367773 54.009497869018218807469 539.33028922052108101
56.009497869018190385759 1551.96858582445088359 56.009497869018190385759 541.41934138936983345
58.009497869018218807469 1564.10046873970804882 58.009497869018218807469 543.39465099995857145
60.009497869018190385759 1575.70896768370175778 60.009497869018190385759 545.39033918214238383
62.009497869018190385759 1586.82418428734558802 62.009497869018190385759 547.33953417384077511
64.009497869018218807469 1597.47752679005338905 64.009497869018218807469 549.24188715973571107
66.009497869018190385759 1607.71095033760047954 66.009497869018190385759 551.28844581712007766
68.009497869018190385759 1617.56070328426244487 68.009497869018190385759 553.37710559049492076
70.009497869018190385759 1627.04867878668187586 70.009497869018190385759 555.17416210548628897
72.009497869018190385759 1636.19762287522667066 72.009497869018190385759 556.64930189400399740
74.009497869018218807469 1645.02860220376737743 74.009497869018218807469 558.04374182887556799
76.009497869018190385759 1653.55855245484713123 76.009497869018190385759 559.36144276667710074
78.009497869018190385759 1661.80916481382291749 78.009497869018190385759 560.84857741996552249
80.009497869018218807469 1669.79389695224517709 80.009497869018218807469 561.95169802521218116
82.009497869018190385759 1677.51266465436674480 82.009497869018190385759 563.20597682426284791
84.009497869018218807469 1684.96922334245550701 84.009497869018218807469 564.29916336897099427
86.009497869018190385759 1692.16973106389855275 86.009497869018190385759 564.91678818503089587
88.009497869018190385759 1699.13153477767718869 88.009497869018190385759 565.66357541754086924
91.009497869018218807469 1709.14276264759769219 91.009497869018218807469 566.54274799878533031
94.009497869018218807469 1718.67036138609591944 94.009497869018218807469 567.81338189286179841
97.009497869018218807469 1727.77957077095425120 97.009497869018218807469 569.79125323222751831
99.504748934509137825444 1735.08464957962746666 99.504748934509137825444 570.19971426944232462
nan nan nan nan

