Time Pressure difference Time.1 Pressure.1 difference.1
(hr) (psi) (hr) (psi)
0.000200000000020850166 0.12343174936437727 0.000200000000020850166 0.09939306975031389
0.000399999999999067768 0.23679992938052100 0.000399999999999067768 0.22771929635172422
0.000600000000019917934 0.34434992492022887 0.000600000000019917934 0.31992405038652166
0.000799999999998135536 0.44754486420339329 0.000799999999998135536 0.40832775427635332
0.001007140329434719206 0.55070848541879580 0.001007140329434719206 0.49631246543498886
0.001267914553977789183 0.67610282700800783 0.001267914553977789183 0.60215655088294662
0.001596209851982166583 0.82800820014724297 0.001596209851982166583 0.72804610793875224
0.002009509145224797066 1.01137493483278695 0.002009509145224797066 0.87703073372770424
0.002529822128153114136 1.23188741832962312 0.002529822128153114136 1.05243296052980218
0.003184857364431081805 1.49602559939949220 0.003184857364431081805 1.25783507974938558
0.004009497869034817086 1.81112289250956549 0.004009497869034817086 1.49706296570247366
0.005047658755856332391 2.18542013788671241 0.005047658755856332391 1.77417080027338070
0.006354625877790454069 2.62811633699570457 0.006354625877790454069 2.09343198729600521
0.008000000000009777068 3.14941823880574967 0.008000000000009777068 2.45934257793486299
0.010071403294361402914 3.76059238502542126 0.010071403294361402914 2.87664385816636248
0.012679145539692626699 4.47402472149402897 0.012679145539692626699 3.35036969029074339
0.015962098519750611558 5.30329391459009525 0.015962098519750611558 3.88592050862292604
0.020095091452091651263 6.26326429259229034 0.020095091452091651263 4.48915955828718438
0.025298221281360611101 7.37020243215884108 0.025298221281360611101 5.16652482447526129
0.031848573644296607199 8.64192016967284182 0.031848573644296607199 5.92516654201914506
0.040094978690191851456 10.09795243748415849 0.040094978690191851456 6.77315347232194309
0.050476587558435426217 11.75979233811914959 0.050476587558435426217 7.71978368652109470
0.063546258777947173257 13.65120794325365061 0.063546258777947173257 8.77589507237641442
0.080000000000012505552 15.79861447605781599 0.080000000000012505552 9.95380748734825360
0.100714032943542974863 18.23135628964624289 0.100714032943542974863 11.26638009373090910
0.126791455396883634421 20.98163396108893508 0.126791455396883634421 12.72490572514560903
0.159620985197506115583 24.08380251968468855 0.159620985197506115583 14.33627644619029695
0.200950914520774404082 27.57297585051655986 0.200950914520774404082 16.10054922402974853
0.252982212813464002465 31.48318264766275476 0.252982212813464002465 18.01033271074308217
0.318485736442809752589 35.84566164564666479 0.318485736442809752589 20.05155502690357494
0.400949786901833249431 40.68733756568762061 0.400949786901833249431 22.20832695772950771
0.504765875584169521062 46.03130581014008271 0.504765875584169521062 24.46579104047335207
0.635462587779443310865 51.89655806288440232 0.635462587779443310865 26.81369832299878908
0.800000000000011368684 58.30002107812080681 0.800000000000011368684 29.25119292897456447
1.007140329435344483500 65.25835472580875773 1.007140329435344483500 31.79276270278915106
1.267914553968907398485 72.79252234853515802 1.267914553968907398485 34.44505452125685707
1.596209851975117999245 80.91881003969636765 1.596209851975117999245 37.25358936470771454
2.009509145207687197399 89.67421994245870565 2.009509145207687197399 40.24308093037721079
2.529822128134725289783 99.08015999416096520 2.529822128134725289783 43.46566163472636646
3.184857364427983839050 109.18862618525446351 3.184857364427983839050 46.99224430675190689
4.009497869018204596614 120.04171288207564317 4.009497869018204596614 50.84923542690946618
5.009497869018190385759 131.29184127811382155 5.009497869018190385759 54.92081861678212817
6.009497869018190385759 141.06448830750039747 6.009497869018190385759 58.49802167262799912
7.009497869018204596614 149.74405754592976336 7.009497869018204596614 61.68841464255492468
8.009497869018190385759 157.57148063215149136 8.009497869018190385759 64.55178084870105693
9.009497869018204596614 164.70938116405113760 9.009497869018204596614 67.14086612235908547
10.009497869018190385759 171.27396107549290605 10.009497869018190385759 69.48965183058083994
11.009497869018190385759 177.35192993396688621 11.009497869018190385759 71.61021730961628862
12.009497869018204596614 183.01027739984891696 12.009497869018204596614 73.54928458716246098
13.009497869018190385759 188.30191396558009842 13.009497869018190385759 75.32689470953667410
14.009497869018204596614 193.27013148374959428 14.009497869018204596614 76.95776557414180274
15.009497869018190385759 197.94985498286223446 15.009497869018190385759 78.45936560938096704
16.009497869018190385759 202.37006253883430418 16.009497869018190385759 79.84688840023656553
17.009497869018204596614 206.55611772906928536 17.009497869018204596614 81.13448789109946802
18.009497869018190385759 210.52997595329924252 18.009497869018190385759 82.33677905326730695
19.009497869018204596614 214.31029924532663244 19.009497869018204596614 83.45751454927608393
20.009497869018190385759 217.91392803712528803 20.009497869018190385759 84.50226536295097901
21.009497869018190385759 221.35465953679445761 21.009497869018190385759 85.47619957220558717
22.009497869018204596614 224.64430017676363605 22.009497869018204596614 86.38780118651102669
23.009497869018190385759 227.79364377675389619 23.009497869018190385759 87.24019750822834851
24.009497869018204596614 230.81266796695149424 24.009497869018204596614 88.04244292023849994
25.009497869018204596614 233.71072771674744217 25.009497869018204596614 88.79875534961368544
26.009497869018190385759 236.49605746418961871 26.009497869018190385759 89.51356909230950976
27.009497869018204596614 239.17616847110835465 27.009497869018204596614 90.19172554528175567
28.009497869018190385759 241.75758433479569476 28.009497869018190385759 90.83482849357469036
29.009497869018190385759 244.24615644786950952 29.009497869018190385759 91.44018305630504528
30.009497869018190385759 246.64731485052121229 30.009497869018190385759 92.01998517848456061
31.009497869018218807469 248.96603367335973189 31.009497869018218807469 92.57007864888230131
32.009497869018190385759 251.20689456162881470 32.009497869018190385759 93.09269380363014079
33.009497869018190385759 253.37413776773232144 33.009497869018190385759 93.58705807369807417
34.009497869018218807469 255.47184032426631006 34.009497869018218807469 94.06344589474723250
35.009497869018190385759 257.50363449165621432 35.009497869018190385759 94.51749583556960488
36.009497869018190385759 259.47287797957545763 36.009497869018190385759 94.95512401904929334
37.009497869018190385759 261.38268117603746532 37.009497869018190385759 95.37593620745342093
38.009497869018218807469 263.23600633492287670 38.009497869018218807469 95.78179643410463484
39.009497869018190385759 265.03556363246747196 39.009497869018190385759 96.17553763147189727
40.009497869018190385759 266.78389098943398494 40.009497869018190385759 96.55592832836187256
41.009497869018218807469 268.48342563082655943 41.009497869018218807469 96.92264697731381773
42.009497869018190385759 270.13639898951839768 42.009497869018190385759 97.27436736485070412
43.009497869018190385759 271.74490829376480860 43.009497869018190385759 97.61841370864225098
44.009497869018218807469 273.31098186929540361 44.009497869018218807469 97.94304859351932180
46.009497869018190385759 276.32338518837417496 46.009497869018190385759 98.56648454322667874
48.009497869018218807469 279.18659666445944367 48.009497869018218807469 99.14472439421410854
50.009497869018190385759 281.91098112438965018 50.009497869018190385759 99.65973024132848934
52.009497869018190385759 284.50684046342792044 52.009497869018190385759 100.12697964250747873
54.009497869018218807469 286.98395588206238926 54.009497869018218807469 100.55310476992767121
56.009497869018190385759 289.35007532320275914 56.009497869018190385759 100.94258907259440150
58.009497869018218807469 291.61195179892865781 58.009497869018218807469 101.31086713558548240
60.009497869018190385759 293.77624821221559159 60.009497869018190385759 101.68294459328079427
62.009497869018190385759 295.84857673153896940 62.009497869018190385759 102.04635382902115737
64.009497869018218807469 297.83479313034899860 64.009497869018218807469 102.40102980944224953
66.009497869018190385759 299.74271955446783977 66.009497869018190385759 102.78259159302238857
68.009497869018190385759 301.57911417164217482 68.009497869018190385759 103.17200273721091719
70.009497869018190385759 303.34805875683900922 70.009497869018190385759 103.50704717220931173
72.009497869018190385759 305.05379409538124946 72.009497869018190385759 103.78207323447533383
74.009497869018218807469 306.70024786849899101 74.009497869018218807469 104.04205356131579663
76.009497869018190385759 308.29057757632739367 76.009497869018190385759 104.28772661751605710
78.009497869018190385759 309.82882733817041299 78.009497869018190385759 104.56498901050204609
80.009497869018218807469 311.31750621143555691 80.009497869018218807469 104.77065556402261848
82.009497869018190385759 312.75659849488198461 82.009497869018190385759 105.00450415367613743
84.009497869018218807469 314.14680435198323494 84.009497869018218807469 105.20831859421494414
86.009497869018190385759 315.48927189326923326 86.009497869018190385759 105.32346898364983190
88.009497869018190385759 316.78723529753301591 88.009497869018190385759 105.46270050157539799
91.009497869018218807469 318.65373540887412673 91.009497869018218807469 105.62661403367182800
94.009497869018218807469 320.43006737706878084 94.009497869018218807469 105.86351187833015786
97.009497869018218807469 322.12839455051687310 97.009497869018218807469 106.23226755177122982
99.504748934509137825444 323.49035839620171373 99.504748934509137825444 106.30842130447230431
nan nan nan nan

