Time Pressure difference Time.1 Pressure.1 difference.1
(hr) (psi) (hr) (psi)
0.000200000000020850166 0.52290177457999831 0.000200000000020850166 0.42106518639678431
0.000399999999999067768 1.00317060992111617 0.000399999999999067768 0.96470174636275885
0.000600000000019917934 1.45879150011660585 0.000600000000019917934 1.35531461345562820
0.000799999999998135536 1.89596278835255694 0.000799999999998135536 1.72982484993436958
0.001007140329434719206 2.33300140186508020 0.001007140329434719206 2.10256008084277068
0.001267914553977789183 2.86421743077937840 0.001267914553977789183 2.55095411555866480
0.001596209851982166583 3.50774382971468324 0.001596209851982166583 3.08426805726780495
0.002009509145224797066 4.28455199665526099 0.002009509145224797066 3.71542110833736494
0.002529822128153114136 5.21872306310549483 0.002529822128153114136 4.45848872369897986
0.003184857364431081805 6.33770844836512115 0.003184857364431081805 5.32864679239285088
0.004009497869034817086 7.67257516281325103 0.004009497869034817086 6.34210310924866061
0.005047658755856332391 9.25823440232007222 0.005047658755856332391 7.51603266297632189
0.006354625877790454069 11.13365648218180404 0.006354625877790454069 8.86853914618125927
0.008000000000009777068 13.34208090257708612 0.008000000000009777068 10.41866946652405623
0.010071403294361402914 15.93123683110769484 0.010071403294361402914 12.18650943550477272
0.012679145539692626699 18.95359563832924721 0.012679145539692626699 14.19338432432260255
0.015962098519750611558 22.46668149271803827 0.015962098519750611558 16.46217233652985001
0.020095091452091651263 26.53346509407279541 0.020095091452091651263 19.01771231056207156
0.025298221281360611101 31.22285757623654590 0.025298221281360611101 21.88727789277701774
0.031848573644296607199 36.61031635515949745 0.031848573644296607199 25.10116007800837679
0.040094978690191851456 42.77859850788743756 0.040094978690191851456 28.69354107365477802
0.050476587558435426217 49.81875663239566876 0.050476587558435426217 32.70381089017117660
0.063546258777947173257 57.83148092323819611 0.063546258777947173257 37.17788276115826562
0.080000000000012505552 66.92867587129947538 0.080000000000012505552 42.16794808276623741
0.100714032943542974863 77.23465482704681051 0.100714032943542974863 47.72848294253275725
0.126791455396883634421 88.88583114424947951 0.126791455396883634421 53.90732789016231408
0.159620985197506115583 102.02774521975511846 0.159620985197506115583 60.73368021749707424
0.200950914520774404082 116.80915223946105641 0.200950914520774404082 68.20778125816239879
0.252982212813464002465 133.37421012555313382 0.252982212813464002465 76.29831857460249012
0.318485736442809752589 151.85525751701226227 0.318485736442809752589 84.94567856851878673
0.400949786901833249431 172.36635732373119367 0.400949786901833249431 94.08254874819955660
0.504765875584169521062 195.00535006841161589 0.504765875584169521062 103.64598749873256622
0.635462587779443310865 219.85269143003753811 0.635462587779443310865 113.59257653197670379
0.800000000000011368684 246.98008929458453053 0.800000000000011368684 123.91869004456498260
1.007140329435344483500 276.45812092933533677 1.007140329435344483500 134.68570381363403499
1.267914553968907398485 308.37559467652170042 1.267914553968907398485 145.92177642641539137
1.596209851975117999245 342.80150434998643050 1.596209851975117999245 157.81975130867087387
2.009509145207687197399 379.89260448350688648 2.009509145207687197399 170.48432466868888469
2.529822128134725289783 419.73958688435465092 2.529822128134725289783 184.13634837984079695
3.184857364427983839050 462.56272547571433051 3.184857364427983839050 199.07623497223988807
4.009497869018204596614 508.54034730042957335 4.009497869018204596614 215.41585189945283219
5.009497869018190385759 556.19998214182749052 5.009497869018190385759 232.66455886745885095
6.009497869018190385759 597.60046864813796219 6.009497869018190385759 247.81889181313320591
7.009497869018204596614 634.37028014912050367 7.009497869018204596614 261.33455657664177352
8.009497869018190385759 667.53009067802361187 8.009497869018190385759 273.46481704995176187
9.009497869018204596614 697.76883293134392261 9.009497869018204596614 284.43312375472123676
10.009497869018190385759 725.57878055617902646 10.009497869018190385759 294.38343411864246946
11.009497869018190385759 751.32726681116878353 11.009497869018190385759 303.36692060255626302
12.009497869018204596614 775.29808425754174550 12.009497869018204596614 311.58151470561546148
13.009497869018190385759 797.71538098145742879 13.009497869018190385759 319.11211758767353786
14.009497869018204596614 818.76255701297554879 14.009497869018204596614 326.02107961409166137
15.009497869018190385759 838.58756747285269739 15.009497869018190385759 332.38240339974117887
16.009497869018190385759 857.31317402815250261 16.009497869018190385759 338.26045449554766265
17.009497869018204596614 875.04682601587535373 17.009497869018204596614 343.71519415683957277
18.009497869018190385759 891.88153449306776110 18.009497869018190385759 348.80853671656882398
19.009497869018204596614 907.89635862111106235 19.009497869018204596614 353.55637981784235535
20.009497869018190385759 923.16264059363982142 20.009497869018190385759 357.98232417395598759
21.009497869018190385759 937.73883040132920996 21.009497869018190385759 362.10826364225277985
22.009497869018204596614 951.67494438519872801 22.009497869018204596614 365.97013957194673139
23.009497869018190385759 965.01670909061203929 23.009497869018190385759 369.58120035304006024
24.009497869018204596614 977.80639338726712140 24.009497869018204596614 372.97980364391946750
25.009497869018204596614 990.08362832731199887 25.009497869018204596614 376.18381811745433652
26.009497869018190385759 1001.88329798465792919 26.009497869018190385759 379.21202906378385933
27.009497869018204596614 1013.23722279578623784 27.009497869018204596614 382.08494640092089867
28.009497869018190385759 1024.17303909104361992 28.009497869018190385759 384.80936434550727654
29.009497869018190385759 1034.71553549733789623 29.009497869018190385759 387.37386640216504929
30.009497869018190385759 1044.88771563948080257 30.009497869018190385759 389.83011902885277777
31.009497869018218807469 1054.71065174350587768 31.009497869018218807469 392.16051500344684655
32.009497869018190385759 1064.20375332471826368 32.009497869018190385759 394.37450284083314500
33.009497869018190385759 1073.38498363421172144 33.009497869018190385759 396.46880965766638383
34.009497869018218807469 1082.27161446461900596 34.009497869018218807469 398.48696169956554058
35.009497869018190385759 1090.87903339192530439 35.009497869018190385759 400.41048235795852861
36.009497869018190385759 1099.22146489529222890 36.009497869018190385759 402.26443448069971964
37.009497869018190385759 1107.31208570939520541 37.009497869018190385759 404.04714793339360313
38.009497869018218807469 1115.16344501885509999 38.009497869018218807469 405.76651943902510311
39.009497869018190385759 1122.78702411572567144 39.009497869018190385759 407.43455032969001195
40.009497869018190385759 1130.19357455523845601 40.009497869018190385759 409.04602364560577143
41.009497869018218807469 1137.39342130877412274 41.009497869018218807469 410.59957719480217975
42.009497869018190385759 1144.39601753741408174 42.009497869018190385759 412.08959265473123423
43.009497869018190385759 1151.21024786267639684 43.009497869018190385759 413.54709807479355277
44.009497869018218807469 1157.84470500992415509 44.009497869018218807469 414.92236949618182962
46.009497869018190385759 1170.60634088893061744 46.009497869018190385759 417.56347088312395499
48.009497869018218807469 1182.73594586943727336 48.009497869018218807469 420.01310516094338254
50.009497869018190385759 1194.27742912695975974 50.009497869018190385759 422.19485720417338825
52.009497869018190385759 1205.27443323597663039 52.009497869018190385759 424.17429557644072702
54.009497869018218807469 1215.76839491855525921 54.009497869018218807469 425.97951657078442622
56.009497869018190385759 1225.79213727829528580 56.009497869018190385759 427.62951370753626179
58.009497869018218807469 1235.37426853000670235 58.009497869018218807469 429.18967350166212782
60.009497869018190385759 1244.54301515356792152 60.009497869018190385759 430.76592891335315016
62.009497869018190385759 1253.32215233542865462 62.009497869018190385759 432.30546258476232424
64.009497869018218807469 1261.73648726129636088 64.009497869018218807469 433.80799901090989579
66.009497869018190385759 1269.81915738529096416 66.009497869018190385759 435.42443347589482983
68.009497869018190385759 1277.59879276350216060 68.009497869018190385759 437.07412068672988426
70.009497869018190385759 1285.09268527897256718 70.009497869018190385759 438.49349074772311496
72.009497869018190385759 1292.31880044043327871 72.009497869018190385759 439.65860115695915056
74.009497869018218807469 1299.29377733382307269 74.009497869018218807469 440.75997235975597732
76.009497869018190385759 1306.03099227789607539 76.009497869018190385759 441.80073276147709294
78.009497869018190385759 1312.54757763261272885 78.009497869018190385759 442.97531708085409718
80.009497869018218807469 1318.85416267753589636 80.009497869018218807469 443.84659538940491075
82.009497869018190385759 1324.95068089649998910 82.009497869018190385759 444.83726305102800325
84.009497869018218807469 1330.84009843658327554 84.009497869018218807469 445.70069513549236717
86.009497869018190385759 1336.52727911148599560 86.009497869018190385759 446.18851405800751309
88.009497869018190385759 1342.02592407863994595 88.009497869018190385759 446.77834939758309929
91.009497869018218807469 1349.93309727759401540 91.009497869018218807469 447.47274672446428667
94.009497869018218807469 1357.45828543376387643 94.009497869018218807469 448.47633213910779659
97.009497869018218807469 1364.65301691400782147 97.009497869018218807469 450.03851526477626521
99.504748934509137825444 1370.42279102390921253 99.504748934509137825444 450.36113025349175132
nan nan nan nan

