Time Pressure difference Time.1 Pressure.1 difference.1
(hr) (psi) (hr) (psi)
0.000200000000020850166 0.76677298847567699 0.000200000000020850166 0.61744179693376822
0.000399999999999067768 1.47102986433353955 0.000399999999999067768 1.41461987127586264
0.000600000000019917934 2.13914347298929997 0.000600000000019917934 1.98740697967384672
0.000799999999998135536 2.78020294429380677 0.000799999999998135536 2.53658150383795267
0.001007140329434719206 3.42106786396524631 0.001007140329434719206 3.08315319436887014
0.001267914553977789183 4.20003271323156380 0.001267914553977789183 3.74066948275769873
0.001596209851982166583 5.14368730394499352 0.001596209851982166583 4.52271067052861220
0.002009509145224797066 6.28278368608246396 0.002009509145224797066 5.44822122467210157
0.002529822128153114136 7.65263396235068960 0.002529822128153114136 6.53784111844271099
0.003184857364431081805 9.29349235990593669 0.003184857364431081805 7.81382398026133451
0.004009497869034817086 11.25091493831699729 0.004009497869034817086 9.29993660512142561
0.005047658755856332391 13.57609479596291102 0.005047658755856332391 11.02136406230433430
0.006354625877790454069 16.32617724497331935 0.006354625877790454069 13.00465325441457942
0.008000000000009777068 19.56456784712662511 0.008000000000009777068 15.27773419626202944
0.010071403294361402914 23.36125572515792115 0.010071403294361402914 17.87006033103346425
0.012679145539692626699 27.79318387594775430 0.012679145539692626699 20.81290262150310255
0.015962098519750611558 32.94470462093847374 0.015962098519750611558 24.13980922023332809
0.020095091452091651263 38.90815696913392685 0.020095091452091651263 27.88720331663251173
0.025298221281360611101 45.78459086644129172 0.025298221281360611101 32.09507845507359036
0.031848573644296607199 53.68465559948280230 0.031848573644296607199 36.80785276102801618
0.040094978690191851456 62.72970453588644091 0.040094978690191851456 42.07565035836358902
0.050476587558435426217 73.05325543377047381 0.050476587558435426217 47.95623199202497489
0.063546258777947173257 84.80295843536359257 0.063546258777947173257 54.51692393445954110
0.080000000000012505552 98.14290810884401139 0.080000000000012505552 61.83425863352702834
0.100714032943542974863 113.25539513265088942 0.100714032943542974863 69.98811876408593946
0.126791455396883634421 130.34045339464336166 0.126791455396883634421 79.04865677741969421
0.159620985197506115583 149.61150050107153220 0.159620985197506115583 89.05868701421245248
0.200950914520774404082 171.28666816229983283 0.200950914520774404082 100.01856336139692871
0.252982212813464002465 195.57734675063227314 0.252982212813464002465 111.88236986976762921
0.318485736442809752589 222.67759507144143072 0.318485736442809752589 124.56269031864341912
0.400949786901833249431 252.75467275654432342 0.400949786901833249431 137.96081897983484055
0.504765875584169521062 285.95205124480963832 0.504765875584169521062 151.98445949384961295
0.635462587779443310865 322.38770917852428965 0.635462587779443310865 166.56994412771976499
0.800000000000011368684 362.16679760650799835 0.800000000000011368684 181.71195607393289606
1.007140329435344483500 405.39280966032720244 1.007140329435344483500 197.50049557793261101
1.267914553968907398485 452.19597216514273441 1.267914553968907398485 213.97685384417138721
1.596209851975117999245 502.67745630720463623 1.596209851975117999245 231.42381272015398963
2.009509145207687197399 557.06712388497066968 2.009509145207687197399 249.99489668870691617
2.529822128134725289783 615.49796360009088403 2.529822128134725289783 270.01395863996680191
3.184857364427983839050 678.29298084779281908 3.184857364427983839050 291.92151766315578243
4.009497869018204596614 745.71367093410628968 4.009497869018204596614 315.88161401564974540
5.009497869018190385759 815.60083218222212054 5.009497869018190385759 341.17478231637380759
6.009497869018190385759 876.30970009204781945 6.009497869018190385759 363.39680129965881861
7.009497869018204596614 930.22823627016953196 7.009497869018204596614 383.21590914314424481
8.009497869018190385759 978.85313726033507464 8.009497869018190385759 401.00348709041560369
9.009497869018204596614 1023.19464056456001799 9.009497869018204596614 417.08719863889729140
10.009497869018190385759 1063.97460668109238213 10.009497869018190385759 431.67814015966888519
11.009497869018190385759 1101.73168595343054221 11.009497869018190385759 444.85134995367695865
12.009497869018204596614 1136.88202627178861803 12.009497869018204596614 456.89707092025156498
13.009497869018190385759 1169.75431402860363050 13.009497869018190385759 467.93980046833388542
14.009497869018204596614 1200.61748345965634144 14.009497869018204596614 478.07096796057788879
15.009497869018190385759 1229.68849307535629123 15.009497869018190385759 487.39908939160898171
16.009497869018190385759 1257.14735819578868359 16.009497869018190385759 496.01854915298474680
17.009497869018204596614 1283.15164043815752848 17.009497869018204596614 504.01727326289068287
18.009497869018190385759 1307.83772940685889807 18.009497869018190385759 511.48605169453941244
19.009497869018204596614 1331.32155591793821259 19.009497869018204596614 518.44819644247263568
20.009497869018190385759 1353.70773477608122448 20.009497869018190385759 524.93831513348334283
21.009497869018190385759 1375.08197591038970131 21.009497869018190385759 530.98851249400445340
22.009497869018204596614 1395.51762231019824867 22.009497869018204596614 536.65149221923525147
23.009497869018190385759 1415.08172649195603299 23.009497869018190385759 541.94668149050949069
24.009497869018204596614 1433.83627070378952340 24.009497869018204596614 546.93032723178464494
25.009497869018204596614 1451.83936914949163111 25.009497869018204596614 551.62863171729713940
26.009497869018190385759 1469.14217515632958566 26.009497869018190385759 556.06914133101349762
27.009497869018204596614 1485.79134959324869669 27.009497869018204596614 560.28193141765939345
28.009497869018190385759 1501.82741783736719299 28.009497869018190385759 564.27696488432752631
29.009497869018190385759 1517.28672944888626262 29.009497869018190385759 568.03750080431927927
30.009497869018190385759 1532.20301649566204105 30.009497869018190385759 571.63930186634354413
31.009497869018218807469 1546.60717887996202080 31.009497869018218807469 575.05654918245068075
32.009497869018190385759 1560.52767833739108028 32.009497869018190385759 578.30309787103567487
33.009497869018190385759 1573.99085582985253495 33.009497869018190385759 581.37414863963954303
34.009497869018218807469 1587.02203837801789632 34.009497869018218807469 584.33352752797520679
35.009497869018190385759 1599.64379002392502116 35.009497869018190385759 587.15414079672041225
36.009497869018190385759 1611.87696926705962142 36.009497869018190385759 589.87274011833653731
37.009497869018190385759 1623.74089821477809892 37.009497869018190385759 592.48687644024096244
38.009497869018218807469 1635.25397874724831127 38.009497869018218807469 595.00812936337729298
39.009497869018190385759 1646.43304680775258930 39.009497869018190385759 597.45409740762841011
40.009497869018190385759 1657.29386826769587060 40.009497869018190385759 599.81713052467227953
41.009497869018218807469 1667.85158346422531395 41.009497869018218807469 602.09523122270707063
42.009497869018190385759 1678.12005432882619971 42.009497869018190385759 604.28016090286052986
43.009497869018190385759 1688.11230909763003183 43.009497869018190385759 606.41741849308061774
44.009497869018218807469 1697.84094797592592840 44.009497869018218807469 608.43408974762007801
46.009497869018190385759 1716.55436253383936673 46.009497869018190385759 612.30694943519597473
48.009497869018218807469 1734.34097927921766313 48.009497869018218807469 615.89904547920878031
50.009497869018190385759 1751.26518577272349830 50.009497869018190385759 619.09832422643455629
52.009497869018190385759 1767.39097863644633435 52.009497869018190385759 622.00093414284935989
54.009497869018218807469 1782.77911987341781241 54.009497869018218807469 624.64807508591422902
56.009497869018190385759 1797.47774064413829365 56.009497869018190385759 627.06759878429852506
58.009497869018218807469 1811.52879147819294303 58.009497869018218807469 629.35538675136433540
60.009497869018190385759 1824.97366313649081349 60.009497869018190385759 631.66677701886555951
62.009497869018190385759 1837.84721908986330163 62.009497869018190385759 633.92431924088896267
64.009497869018218807469 1850.18583611277381351 64.009497869018218807469 636.12760942229272132
66.009497869018190385759 1862.03810632320937657 66.009497869018190385759 638.49791747180574930
68.009497869018190385759 1873.44601227838302293 68.009497869018190385759 640.91698670085565936
70.009497869018190385759 1884.43491045915129689 70.009497869018190385759 642.99832334251243537
72.009497869018190385759 1895.03114513797413565 72.009497869018190385759 644.70681857780130031
74.009497869018218807469 1905.25911554673598403 74.009497869018218807469 646.32184788090114580
76.009497869018190385759 1915.13843645900351476 76.009497869018190385759 647.84799868456946115
78.009497869018190385759 1924.69423043408869489 78.009497869018190385759 649.57038627736119452
80.009497869018218807469 1933.94208404073606289 80.009497869018218807469 650.84801183711022077
82.009497869018190385759 1942.88189974093324963 82.009497869018190385759 652.30070762132152140
84.009497869018218807469 1951.51802703504745296 84.009497869018218807469 653.56682763072910802
86.009497869018190385759 1959.85759812485412112 86.009497869018190385759 654.28215580752180358
88.009497869018190385759 1967.92070412103817034 88.009497869018190385759 655.14707887342296999
91.009497869018218807469 1979.51562905512719226 91.009497869018218807469 656.16532960311292300
94.009497869018218807469 1990.55041855451804622 94.009497869018218807469 657.63696772902073917
97.009497869018218807469 2001.10063281381690103 97.009497869018218807469 659.92772267009388543
99.504748934509137825444 2009.56131730973811500 99.504748934509137825444 660.40079901263095508
nan nan nan nan

