Time Pressure difference Time.1 Pressure.1 difference.1
(hr) (psi) (hr) (psi)
0.000200000000020850166 0.11445489486514983 0.000200000000020850166 0.09216448285938197
0.000399999999999067768 0.21957811633466492 0.000399999999999067768 0.21115789298068974
0.000600000000019917934 0.31930629401693944 0.000600000000019917934 0.29665684672204740
0.000799999999998135536 0.41499614680678287 0.000799999999998135536 0.37863119032898218
0.001007140329434719206 0.51065695920651966 0.001007140329434719206 0.46021701340335330
0.001267914553977789183 0.62693171231651634 0.001267914553977789183 0.55836334718236869
0.001596209851982166583 0.76778942195471611 0.001596209851982166583 0.67509730008866109
0.002009509145224797066 0.93782039411767515 0.002009509145224797066 0.81324668036568926
0.002529822128153114136 1.14229560608746872 0.002529822128153114136 0.97589238158218006
0.003184857364431081805 1.38722373762498363 0.003184857364431081805 1.16635616485852101
0.004009497869034817086 1.67940486396341515 0.004009497869034817086 1.38818565910593006
0.005047658755856332391 2.02648049149495169 0.005047658755856332391 1.64514019661713462
0.006354625877790454069 2.43698060339601730 0.006354625877790454069 1.94118238821993239
0.008000000000009777068 2.92036963961987706 0.008000000000009777068 2.28048129953959977
0.010071403294361402914 3.48709475702357263 0.010071403294361402914 2.66743339575426353
0.012679145539692626699 4.14864110538537201 0.012679145539692626699 3.10670644008778041
0.015962098519750611558 4.91759981171081595 0.015962098519750611558 3.60330810799580403
0.020095091452091651263 5.80775416222194174 0.020095091452091651263 4.16267522677538881
0.025298221281360611101 6.83418770982001611 0.025298221281360611101 4.79077756451342474
0.031848573644296607199 8.01341688460572499 0.031848573644296607199 5.49424533896320622
0.040094978690191851456 9.36355589657622112 0.040094978690191851456 6.28056049251671134
0.050476587558435426217 10.90453471352866543 0.050476587558435426217 7.15834487295592314
0.063546258777947173257 12.65839282010793099 0.063546258777947173257 8.13764815802176500
0.080000000000012505552 14.64962433234451922 0.080000000000012505552 9.22989421554110656
0.100714032943542974863 16.90543946858106139 0.100714032943542974863 10.44700699600502425
0.126791455396883634421 19.45569694573701014 0.126791455396883634421 11.79945803604410948
0.159620985197506115583 22.33225324552579849 0.159620985197506115583 13.29363815919463931
0.200950914520774404082 25.56766851593353707 0.200950914520774404082 14.92960018955485779
0.252982212813464002465 29.19349663692364771 0.252982212813464002465 16.70049033177994602
0.318485736442809752589 33.23870443505418848 0.318485736442809752589 18.59326011585604377
0.400949786901833249431 37.72825847000125066 0.400949786901833249431 20.59317590625827066
0.504765875584169521062 42.68357447849353292 0.504765875584169521062 22.68646078298437985
0.635462587779443310865 48.12226293103825725 0.635462587779443310865 24.86361117223524175
0.800000000000011368684 54.06001954516656838 0.800000000000011368684 27.12383344323095713
1.007140329435344483500 60.51229256393176570 1.007140329435344483500 29.48056177894994079
1.267914553968907398485 67.49852072318715557 1.267914553968907398485 31.93995964698363110
1.596209851975117999245 75.03380567317299210 1.596209851975117999245 34.54423741091078881
2.009509145207687197399 83.15245849209806295 2.009509145207687197399 37.31631140816795522
2.529822128134725289783 91.87433017640380228 2.529822128134725289783 40.30452260674626785
3.184857364427983839050 101.24763518996321920 3.184857364427983839050 43.57462653898812732
4.009497869018204596614 111.31140649065196158 4.009497869018204596614 47.15110921404332345
5.009497869018190385759 121.74334373061461179 5.009497869018190385759 50.92657726283433561
6.009497869018190385759 130.80525279422761287 6.009497869018190385759 54.24362009643687799
7.009497869018204596614 138.85358063349849544 7.009497869018204596614 57.20198448673274783
8.009497869018190385759 146.11173658617684623 8.009497869018190385759 59.85710587788643267
9.009497869018204596614 152.73051707939288235 9.009497869018204596614 62.25789404073296396
10.009497869018190385759 158.81767299727522413 10.009497869018190385759 64.43585897017497643
11.009497869018190385759 164.45360775695110078 11.009497869018190385759 66.40220150528057275
12.009497869018204596614 169.70043904349626018 12.009497869018204596614 68.20024570809609088
13.009497869018190385759 174.60722931353791409 13.009497869018190385759 69.84857509429764377
14.009497869018204596614 179.21412192129506025 14.009497869018204596614 71.36083716874966854
15.009497869018190385759 183.55350189319952392 15.009497869018190385759 72.75322992869871541
16.009497869018190385759 187.65223980873724940 16.009497869018190385759 74.03984197112846743
17.009497869018204596614 191.53385462150060903 17.009497869018204596614 75.23379786265586233
18.009497869018190385759 195.21870497487748253 18.009497869018190385759 76.34864966757514537
19.009497869018204596614 198.72409566384834534 19.009497869018204596614 77.38787712751054926
20.009497869018190385759 202.06564236169799642 20.009497869018190385759 78.35664606382728437
21.009497869018190385759 205.25613884320941338 21.009497869018190385759 79.25974869422699953
22.009497869018204596614 208.30653289118080806 22.009497869018204596614 80.10505200931024206
23.009497869018190385759 211.22683332026269909 23.009497869018190385759 80.89545587126629300
24.009497869018204596614 214.02629211480956428 24.009497869018204596614 81.63935616240296156
25.009497869018204596614 216.71358388280219742 25.009497869018204596614 82.34066405145996725
26.009497869018190385759 219.29634419406673373 26.009497869018190385759 83.00349134014153663
27.009497869018204596614 221.78153803684591594 27.009497869018204596614 83.63232732380670598
28.009497869018190385759 224.17521456499238752 28.009497869018190385759 84.22865914858743963
29.009497869018190385759 226.48279961529715365 29.009497869018190385759 84.78998792493740666
30.009497869018190385759 228.70932831593782453 30.009497869018190385759 85.32762262004932552
31.009497869018218807469 230.85941304256991202 31.009497869018218807469 85.83770929259993920
32.009497869018190385759 232.93730222987397838 32.009497869018190385759 86.32231607245702776
33.009497869018190385759 234.94692774826091863 33.009497869018190385759 86.78072657742912099
34.009497869018218807469 236.89207011886512078 34.009497869018218807469 87.22246801149289297
35.009497869018190385759 238.77609743771756712 35.009497869018190385759 87.64349613843727127
36.009497869018190385759 240.60212321742451991 36.009497869018190385759 88.04929681766388683
37.009497869018190385759 242.37303163596200761 37.009497869018190385759 88.43950448327498748
38.009497869018218807469 244.09156951056485241 38.009497869018218807469 88.81584760253339539
39.009497869018190385759 245.76024991374256956 39.009497869018190385759 89.18095307645576497
40.009497869018190385759 247.38142619020240431 40.009497869018190385759 89.53367899539010466
41.009497869018218807469 248.95735831222097545 41.009497869018218807469 89.87372719714552716
42.009497869018190385759 250.49011542664428021 42.009497869018190385759 90.19986792013429522
43.009497869018190385759 251.98164223603649248 43.009497869018190385759 90.51889271165009632
44.009497869018218807469 253.43381955152844398 44.009497869018218807469 90.81991778671792304
46.009497869018190385759 256.22713899285599837 46.009497869018190385759 91.39801294008292132
48.009497869018218807469 258.88211690704417833 48.009497869018218807469 91.93419898372580690
50.009497869018190385759 261.40836431534313533 50.009497869018190385759 92.41174986014095794
52.009497869018190385759 263.81543388426956653 52.009497869018190385759 92.84501748668874654
54.009497869018218807469 266.11239545427599751 54.009497869018218807469 93.24015169575109496
56.009497869018190385759 268.30643348151522787 56.009497869018190385759 93.60130986731479652
58.009497869018218807469 270.40380984991566038 58.009497869018218807469 93.94280407117926757
60.009497869018190385759 272.41070288769083163 60.009497869018190385759 94.28782135013310040
62.009497869018190385759 274.33231660560886667 62.009497869018190385759 94.62480082327415687
64.009497869018218807469 276.17408090268719434 64.009497869018218807469 94.95368218693735685
66.009497869018190385759 277.94324904141569732 66.009497869018190385759 95.30749402262075876
68.009497869018190385759 279.64608768643182657 68.009497869018190385759 95.66858435632285307
70.009497869018190385759 281.28638175634165464 70.009497869018190385759 95.97926192332137418
72.009497869018190385759 282.86806361571711932 72.009497869018190385759 96.23428609014985113
74.009497869018218807469 284.39477529624451790 74.009497869018218807469 96.47535875685646545
76.009497869018190385759 285.86944466168540657 76.009497869018190385759 96.70316468169670543
78.009497869018190385759 287.29582171357623110 78.009497869018190385759 96.96026253701099051
80.009497869018218807469 288.67623303242203292 80.009497869018218807469 97.15097152300279504
82.009497869018190385759 290.01066405889048383 82.009497869018190385759 97.36781294249969676
84.009497869018218807469 291.29976403547533437 84.009497869018218807469 97.55680451463567238
86.009497869018190385759 292.54459757375872186 86.009497869018190385759 97.66358033029348462
88.009497869018190385759 293.74816363953061682 88.009497869018190385759 97.79268591964265056
91.009497869018218807469 295.47891828822878324 91.009497869018218807469 97.94467846758659846
94.009497869018218807469 297.12606247691826411 94.009497869018218807469 98.16434737808796740
97.009497869018218807469 298.70087494684293006 97.009497869018218807469 98.50628445709695313
99.504748934509137825444 299.96378687647796824 99.504748934509137825444 98.57689975505613234
nan nan nan nan

