Time Pressure difference Time.1 Pressure.1 difference.1
(hr) (psi) (hr) (psi)
0.000200000000020850166 0.06134183907805416 0.000200000000020850166 0.04939534375470145
0.000399999999999067768 0.11768238914668316 0.000399999999999067768 0.11316958970206902
0.000600000000019917934 0.17113147783914404 0.000600000000019917934 0.15899255837390774
0.000799999999998135536 0.22241623554350454 0.000799999999998135536 0.20292652030703620
0.001007140329434719206 0.27368542911721966 0.001007140329434719206 0.24665225554950962
0.001267914553977789183 0.33600261705852513 0.001267914553977789183 0.29925355862061587
0.001596209851982166583 0.41149498431559950 0.001596209851982166583 0.36181685364228899
0.002009509145224797066 0.50262269488659717 0.002009509145224797066 0.43585769797376811
0.002529822128153114136 0.61221071698805518 0.002529822128153114136 0.52302728947541688
0.003184857364431081805 0.74347938879247488 0.003184857364431081805 0.62510591842090679
0.004009497869034817086 0.90007319506535988 0.004009497869034817086 0.74399492840971415
0.005047658755856332391 1.08608758367703295 0.005047658755856332391 0.88170912498434673
0.006354625877790454069 1.30609417959786556 0.006354625877790454069 1.04037226035316621
0.008000000000009777068 1.56516542777013012 0.008000000000009777068 1.22221873570096218
0.010071403294361402914 1.86890045801263360 0.010071403294361402914 1.42960482648267728
0.012679145539692626699 2.22345471007582018 0.012679145539692626699 1.66503220972024812
0.015962098519750611558 2.63557636967507802 0.015962098519750611558 1.93118473761866616
0.020095091452091651263 3.11265255753071424 0.020095091452091651263 2.23097626533060067
0.025298221281360611101 3.66276726931530305 0.025298221281360611101 2.56760627640588757
0.031848573644296607199 4.29477244795862489 0.031848573644296607199 2.94462822088224163
0.040094978690191851456 5.01837636287091549 0.040094978690191851456 3.36605202866908693
0.050476587558435426217 5.84426043470163759 0.050476587558435426217 3.83649855936199824
0.063546258777947173257 6.78423667482908677 0.063546258777947173257 4.36135391475676304
0.080000000000012505552 7.85143264870752056 0.080000000000012505552 4.94674069068216227
0.100714032943542974863 9.06043161061207059 0.100714032943542974863 5.59904950112687594
0.126791455396883634421 10.42723627157146993 0.126791455396883634421 6.32389254219357522
0.159620985197506115583 11.96892004008572385 0.159620985197506115583 7.12469496113699652
0.200950914520774404082 13.70293345298398613 0.200950914520774404082 8.00148506891175337
0.252982212813464002465 15.64618774005058199 0.252982212813464002465 8.95058958958141027
0.318485736442809752589 17.81420760571531403 0.318485736442809752589 9.96501522549147367
0.400949786901833249431 20.22037382052354459 0.400949786901833249431 11.03686551838678653
0.504765875584169521062 22.87616409958476638 0.504765875584169521062 12.15875675950796975
0.635462587779443310865 25.79101673428194275 0.635462587779443310865 13.32559553021758170
0.800000000000011368684 28.97334380852064228 0.800000000000011368684 14.53695648591463119
1.007140329435344483500 32.43142477282617619 1.007140329435344483500 15.80003964623460710
1.267914553968907398485 36.17567777321141875 1.267914553968907398485 17.11814830753371197
1.596209851975117999245 40.21419650457637829 1.596209851975117999245 18.51390501761231988
2.009509145207687197399 44.56536991079765642 2.009509145207687197399 19.99959173509655130
2.529822128134725289783 49.23983708800727044 2.529822128134725289783 21.60111669119734756
3.184857364427983839050 54.26343846782342695 3.184857364427983839050 23.35372141305246174
4.009497869018204596614 59.65709367472850744 4.009497869018204596614 25.27052912125197892
5.009497869018190385759 65.24806657457776282 5.009497869018190385759 27.29398258530990873
6.009497869018190385759 70.10477600736382442 6.009497869018190385759 29.07174410397270492
7.009497869018204596614 74.41825890161356938 7.009497869018204596614 30.65727273145153831
8.009497869018190385759 78.30825098082679858 8.009497869018190385759 32.08027896723324801
9.009497869018204596614 81.85557124516481053 9.009497869018204596614 33.36697589111178530
10.009497869018190385759 85.11796853448738887 10.009497869018190385759 34.53425121277351195
11.009497869018190385759 88.13853487627444849 11.009497869018190385759 35.58810799629416266
12.009497869018204596614 90.95056210174310252 12.009497869018204596614 36.55176567362012463
13.009497869018190385759 93.58034512228827850 13.009497869018190385759 37.43518403746671197
14.009497869018204596614 96.04939867677252607 14.009497869018204596614 38.24567743684622911
15.009497869018190385759 98.37507944602852206 15.009497869018190385759 38.99192715132872422
16.009497869018190385759 100.57178865566309867 16.009497869018190385759 39.68148393223878401
17.009497869018204596614 102.65213123505260739 17.009497869018204596614 40.32138186103124866
18.009497869018190385759 104.62701835254871696 18.009497869018190385759 40.91888413556314674
19.009497869018204596614 106.50572447343505189 19.009497869018204596614 41.47585571539781313
20.009497869018190385759 108.29661878208651160 20.009497869018190385759 41.99506521067866771
21.009497869018190385759 110.00655807283118293 21.009497869018190385759 42.47908099952035599
22.009497869018204596614 111.64140978481586330 22.009497869018204596614 42.93211937753881813
23.009497869018190385759 113.20653811935648037 23.009497869018190385759 43.35573451924075528
24.009497869018204596614 114.70690165630315960 24.009497869018204596614 43.75442617854276506
25.009497869018204596614 116.14714953195932878 25.009497869018204596614 44.13029053738377172
26.009497869018190385759 117.53137401250634753 26.009497869018190385759 44.48553130648107867
27.009497869018204596614 118.86330796745990313 27.009497869018204596614 44.82255451341274721
28.009497869018190385759 120.14619342698938453 28.009497869018190385759 45.14215719074621092
29.009497869018190385759 121.38293835591089476 29.009497869018190385759 45.44300006434554007
30.009497869018190385759 122.57624131965295078 30.009497869018190385759 45.73114414930747529
31.009497869018218807469 123.72857431039695086 31.009497869018218807469 46.00452393459605105
32.009497869018190385759 124.84221426699129154 32.009497869018190385759 46.26424782968285854
33.009497869018190385759 125.91926846638818915 33.009497869018190385759 46.50993189117116344
34.009497869018218807469 126.96176307024143171 34.009497869018218807469 46.74668220223801285
35.009497869018190385759 127.97150320191398976 35.009497869018190385759 46.97233126373762246
36.009497869018190385759 128.95015754136477426 36.009497869018190385759 47.18981920946691844
37.009497869018190385759 129.89927185718227065 37.009497869018190385759 47.39895011521927870
38.009497869018218807469 130.82031829977987059 38.009497869018218807469 47.60065034907017889
39.009497869018190385759 131.71464374462019009 39.009497869018190385759 47.79632779261027764
40.009497869018190385759 132.58350946141567306 40.009497869018190385759 47.98537044197377810
41.009497869018218807469 133.42812667713803876 41.009497869018218807469 48.16761849781656224
42.009497869018190385759 134.24960434630608574 42.009497869018190385759 48.34241287222884154
43.009497869018190385759 135.04898472781039231 43.009497869018190385759 48.51339347944645652
44.009497869018218807469 135.82727583807408678 44.009497869018218807469 48.67472717980960084
46.009497869018190385759 137.32434900270715161 46.009497869018190385759 48.98455595481568281
48.009497869018218807469 138.74727834233740964 48.009497869018218807469 49.27192363833670896
50.009497869018190385759 140.10121486181787986 50.009497869018190385759 49.52786593811476479
52.009497869018190385759 141.39127829091569311 52.009497869018190385759 49.76007473142795590
54.009497869018218807469 142.62232958987343068 54.009497869018218807469 49.97184600687313605
56.009497869018190385759 143.79821925153103734 56.009497869018190385759 50.16540790274387263
58.009497869018218807469 144.92230331825544454 58.009497869018218807469 50.34843094010914655
60.009497869018190385759 145.99789305091925939 60.009497869018190385759 50.53334216150923908
62.009497869018190385759 147.02777752718907323 62.009497869018190385759 50.71394553927111559
64.009497869018218807469 148.01486688902190281 64.009497869018218807469 50.89020875378341913
66.009497869018190385759 148.96304850585676149 66.009497869018190385759 51.07983339774445852
68.009497869018190385759 149.87568098227063729 68.009497869018190385759 51.27335893606845474
70.009497869018190385759 150.75479283673209352 70.009497869018190385759 51.43986586740099654
72.009497869018190385759 151.60249161103794791 72.009497869018190385759 51.57654548622410573
74.009497869018218807469 152.42072924373889009 74.009497869018218807469 51.70574783047209166
76.009497869018190385759 153.21107491672029255 76.009497869018190385759 51.82783989476555320
78.009497869018190385759 153.97553843472709900 78.009497869018190385759 51.96563090218889158
80.009497869018218807469 154.71536672325888162 80.009497869018218807469 52.06784094696881482
82.009497869018190385759 155.43055197927466793 82.009497869018190385759 52.18405660970572058
84.009497869018218807469 156.12144216280375986 84.009497869018218807469 52.28534621045833575
86.009497869018190385759 156.78860784998832401 86.009497869018190385759 52.34257246460174429
88.009497869018190385759 157.43365632968308887 88.009497869018190385759 52.41176630987384044
91.009497869018218807469 158.36125032441017879 91.009497869018218807469 52.49322636824902588
94.009497869018218807469 159.24403348436140959 94.009497869018218807469 52.61095741832165373
97.009497869018218807469 160.08805062510535322 97.009497869018218807469 52.79421781360751709
99.504748934509137825444 160.76490538477904124 99.504748934509137825444 52.83206392101048010
nan nan nan nan

