Time Pressure difference Time.1 Pressure.1 difference.1
(hr) (psi) (hr) (psi)
0.000200000000020850166 0.28202284551739537 0.000200000000020850166 0.22709810482344447
0.000399999999999067768 0.54105195985731169 0.000399999999999067768 0.52030408924000027
0.000600000000019917934 0.78678740421167437 0.000600000000019917934 0.73097798179223439
0.000799999999998135536 1.02257220487684397 0.000799999999998135536 0.93296705067991037
0.001007140329434719206 1.25828544850233937 0.001007140329434719206 1.13399878466055015
0.001267914553977789183 1.54479251989102395 0.001267914553977789183 1.37583648292649019
0.001596209851982166583 1.89187328154854906 0.001596209851982166583 1.66347504662369428
0.002009509145224797066 2.31083848746642850 0.002009509145224797066 2.00388234312329994
0.002529822128153114136 2.81467610127435108 0.002529822128153114136 2.40464985527112374
0.003184857364431081805 3.41819182408247624 0.003184857364431081805 2.87396257615465656
0.004009497869034817086 4.13814139682488591 0.004009497869034817086 3.42056204890807569
0.005047658755856332391 4.99335389080782122 0.005047658755856332391 4.05371146486705758
0.006354625877790454069 6.00484763059018611 0.006354625877790454069 4.78317490430663028
0.008000000000009777068 7.19594349108950038 0.008000000000009777068 5.61922516291783847
0.010071403294361402914 8.59238381305808474 0.010071403294361402914 6.57269536078011374
0.012679145539692626699 10.22246860608029628 0.012679145539692626699 7.65508711054309288
0.015962098519750611558 12.11722306545736849 0.015962098519750611558 8.87873958636874683
0.020095091452091651263 14.31060992913511143 0.020095091452091651263 10.25704941499556710
0.025298221281360611101 16.83979586014474705 0.025298221281360611101 11.80472641713438442
0.031848573644296607199 19.74547820585855362 0.031848573644296607199 13.53810779600737924
0.040094978690191851456 23.07229132685774431 0.040094978690191851456 15.47562944888104575
0.050476587558435426217 26.86934370588435783 0.050476587558435426217 17.63853605950577119
0.063546258777947173257 31.19094178549470797 0.063546258777947173257 20.05159055930853285
0.080000000000012505552 36.09744034832603887 0.080000000000012505552 22.74294195594115919
0.100714032943542974863 41.65588679513111003 0.100714032943542974863 25.74197148688819681
0.126791455396883634421 47.93985456563957115 0.126791455396883634421 29.07448156593875410
0.159620985197506115583 55.02783969649168228 0.159620985197506115583 32.75621951644691876
0.200950914520774404082 63.00007209481663040 0.200950914520774404082 36.78731549975282178
0.252982212813464002465 71.93430217072035759 0.252982212813464002465 41.15088140575843312
0.318485736442809752589 81.90190569944724075 0.318485736442809752589 45.81476512207665763
0.400949786901833249431 92.96440158948020382 0.400949786901833249431 50.74266220038802544
0.504765875584169521062 105.17455933589582173 0.504765875584169521062 55.90062558944517690
0.635462587779443310865 118.57577205883283966 0.635462587779443310865 61.26523798648815244
0.800000000000011368684 133.20671482697903798 0.800000000000011368684 66.83454384377823487
1.007140329435344483500 149.10545291896912090 1.007140329435344483500 72.64164569061522059
1.267914553968907398485 166.31988439635006216 1.267914553968907398485 78.70173063341718489
1.596209851975117999245 184.88722051494261223 1.596209851975117999245 85.11880721512004300
2.009509145207687197399 204.89200556549653243 2.009509145207687197399 91.94934248940731436
2.529822128134725289783 226.38315344120414352 2.529822128134725289783 99.31245112904146310
3.184857364427983839050 249.47946710206625198 3.184857364427983839050 107.37015820391194154
4.009497869018204596614 274.27712579722742703 4.009497869018204596614 116.18279852087799497
5.009497869018190385759 299.98196461726610096 5.009497869018190385759 125.48574920319310877
6.009497869018190385759 322.31098237531904260 6.009497869018190385759 133.65911618533792193
7.009497869018204596614 342.14248299888191696 7.009497869018204596614 140.94868072874669451
8.009497869018190385759 360.02695877770378274 8.009497869018190385759 147.49103866642604999
9.009497869018204596614 376.33597999301383652 9.009497869018204596614 153.40670623108712789
10.009497869018190385759 391.33505045733835459 10.009497869018190385759 158.77332569775140314
11.009497869018190385759 405.22228839457886806 11.009497869018190385759 163.61849651954753426
12.009497869018204596614 418.15075502874572067 12.009497869018204596614 168.04897145066814801
13.009497869018190385759 430.24134281832544957 13.009497869018190385759 172.11054124542621935
14.009497869018204596614 441.59296708711269730 14.009497869018204596614 175.83683406940278360
15.009497869018190385759 452.28542623357009234 15.009497869018190385759 179.26776263476742201
16.009497869018190385759 462.38493077054863534 16.009497869018190385759 182.43804198114659698
17.009497869018204596614 471.94943262944917706 17.009497869018204596614 185.38001172693637386
18.009497869018190385759 481.02909657208374483 18.009497869018190385759 188.12706486716226095
19.009497869018204596614 489.66656251810996991 19.009497869018204596614 190.68777566713384886
20.009497869018190385759 497.90030830300747766 20.009497869018190385759 193.07487298080314986
21.009497869018190385759 505.76185845679697195 21.009497869018190385759 195.30016508316066393
22.009497869018204596614 513.27818888872661773 22.009497869018204596614 197.38303665039188672
23.009497869018190385759 520.47396184143167375 23.009497869018190385759 199.33063309455809531
24.009497869018204596614 527.37197468812553325 24.009497869018204596614 201.16364230866614093
25.009497869018204596614 533.99360211644716401 25.009497869018204596614 202.89170161699613004
26.009497869018190385759 540.35765856969385368 26.009497869018190385759 204.52494271394351699
27.009497869018204596614 546.48130614307785891 27.009497869018204596614 206.07442745800739203
28.009497869018190385759 552.37945026798774961 28.009497869018190385759 207.54382025501610087
29.009497869018190385759 558.06546048998063725 29.009497869018190385759 208.92696371046667991
30.009497869018190385759 563.55174362816057965 30.009497869018190385759 210.25172371084047995
31.009497869018218807469 568.84966481731282784 31.009497869018218807469 211.50860394320380919
32.009497869018190385759 573.96969242263071465 32.009497869018190385759 212.70270038768828158
33.009497869018190385759 578.92151477839456675 33.009497869018190385759 213.83224784111621375
34.009497869018218807469 583.71444728635390220 34.009497869018218807469 214.92072183224061632
35.009497869018190385759 588.35678911123875423 35.009497869018190385759 215.95815715157422687
36.009497869018190385759 592.85621211090870020 36.009497869018190385759 216.95807124352475626
37.009497869018190385759 597.21982305070378061 37.009497869018190385759 217.91956333460569795
38.009497869018218807469 601.45439023191465822 38.009497869018218807469 218.84689245852999306
39.009497869018190385759 605.56610599660746175 39.009497869018190385759 219.74653143675698175
40.009497869018190385759 609.56076910919159673 40.009497869018190385759 220.61566654419652878
41.009497869018218807469 613.44394825952485917 41.009497869018218807469 221.45356309362006186
42.009497869018190385759 617.22074193362675487 42.009497869018190385759 222.25719088817407965
43.009497869018190385759 620.89594198029897143 43.009497869018190385759 223.04328465550381111
44.009497869018218807469 624.47418281651130201 44.009497869018218807469 223.78502618034411853
46.009497869018190385759 631.35706797586101402 46.009497869018190385759 225.20948286543310246
48.009497869018218807469 637.89907237879526747 48.009497869018218807469 226.53067331284071884
50.009497869018190385759 644.12387808421146929 50.009497869018190385759 227.70738364230808770
52.009497869018190385759 650.05502336189294965 52.009497869018190385759 228.77497772863827663
54.009497869018218807469 655.71485677295470396 54.009497869018218807469 229.74860908038016305
56.009497869018190385759 661.12108119301467468 56.009497869018190385759 230.63852169920050983
58.009497869018218807469 666.28912623149153660 58.009497869018218807469 231.47998127342864905
60.009497869018190385759 671.23421561215320708 60.009497869018190385759 232.33012188889006211
62.009497869018190385759 675.96917228963764046 62.009497869018190385759 233.16045693055136212
64.009497869018218807469 680.50737581903979390 64.009497869018218807469 233.97083780702865852
66.009497869018190385759 684.86669861839027362 66.009497869018190385759 234.84264867011779643
68.009497869018190385759 689.06258207702478558 68.009497869018190385759 235.73239413290008315
70.009497869018190385759 693.10435243229267144 70.009497869018190385759 236.49791990256309759
72.009497869018190385759 697.00169923611349532 72.009497869018190385759 237.12631278422546188
74.009497869018218807469 700.76359664499466362 74.009497869018218807469 237.72032844009731889
76.009497869018190385759 704.39725906833598401 76.009497869018190385759 238.28165415032455599
78.009497869018190385759 707.91192670600150905 78.009497869018190385759 238.91515670884405154
80.009497869018218807469 711.31333237400724556 80.009497869018218807469 239.38507362203955608
82.009497869018190385759 714.60144019739686883 82.009497869018190385759 239.91938221779335549
84.009497869018218807469 717.77784994362230009 84.009497869018218807469 240.38506733344866007
86.009497869018190385759 720.84518487128775632 86.009497869018190385759 240.64816852627873800
88.009497869018190385759 723.81083458890873317 88.009497869018190385759 240.96629144905412545
91.009497869018218807469 728.07550454027602882 91.009497869018218807469 241.34080903451078370
94.009497869018218807469 732.13415394639332590 94.009497869018218807469 241.88208471594225557
97.009497869018218807469 736.01457421542340853 97.009497869018218807469 242.72463555768334231
99.504748934509137825444 739.12645524465494873 99.504748934509137825444 242.89863534415792401
nan nan nan nan

