Time Pressure difference Time.1 Pressure.1 difference.1
(hr) (psi) (hr) (psi)
0.000200000000020850166 0.63286824219553439 0.000200000000020850166 0.50961537581070027
0.000399999999999067768 1.21413781973285295 0.000399999999999067768 1.16757893765793153
0.000600000000019917934 1.76557597868190053 0.000600000000019917934 1.64033785834543844
0.000799999999998135536 2.29468457646103463 0.000799999999998135536 2.09360775828966617
0.001007140329434719206 2.82363259796546151 0.001007140329434719206 2.54472936823030649
0.001267914553977789183 3.46656358575014911 0.001267914553977789183 3.08742086089074430
0.001596209851982166583 4.24542386257313620 0.001596209851982166583 3.73289095343142030
0.002009509145224797066 5.18559512041538007 0.002009509145224797066 4.49677576202204765
0.002529822128153114136 6.31622276307188546 0.002529822128153114136 5.39611081580734897
0.003184857364431081805 7.67053125510285128 0.003184857364431081805 6.44926349980594082
0.004009497869034817086 9.28612101250359068 0.004009497869034817086 7.67585011505631876
0.005047658755856332391 11.20524507061914399 0.005047658755856332391 9.09665755776533302
0.006354625877790454069 13.47506921877797659 0.006354625877790454069 10.73359673486315558
0.008000000000009777068 16.14792624260402576 0.008000000000009777068 12.60972012686602461
0.010071403294361402914 19.28158277413034227 0.010071403294361402914 14.74933760005298566
0.012679145539692626699 22.93954493566029029 0.012679145539692626699 17.17825913930890280
0.015962098519750611558 27.19143425298921457 0.015962098519750611558 19.92417424421209660
0.020095091452091651263 32.11346419110956418 0.020095091452091651263 23.01714537158156304
0.025298221281360611101 37.78903792488714686 0.025298221281360611101 26.49018182730952375
0.031848573644296607199 44.30948159723166668 0.031848573644296607199 30.37994481544361491
0.040094978690191851456 51.77495613400968466 0.040094978690191851456 34.72780507626887214
0.050476587558435426217 60.29566253362909123 0.050476587558435426217 39.58143635634451130
0.063546258777947173257 69.99346618177325752 0.063546258777947173257 44.99640746200270769
0.080000000000012505552 81.00380513178734532 0.080000000000012505552 51.03588566240376423
0.100714032943542974863 93.47713588509527938 0.100714032943542974863 57.76580338967484352
0.126791455396883634421 107.57855958231053251 0.126791455396883634421 65.24406208165567023
0.159620985197506115583 123.48422382820149323 0.159620985197506115583 73.50599923319389006
0.200950914520774404082 141.37416708810306432 0.200950914520774404082 82.55190693047980233
0.252982212813464002465 161.42286375710722268 0.252982212813464002465 92.34388771690088049
0.318485736442809752589 183.79048334677020193 0.318485736442809752589 102.80979122885105426
0.400949786901833249431 208.61507624588927001 0.400949786901833249431 113.86814912872219452
0.504765875584169521062 236.01505888108187037 0.504765875584169521062 125.44278315297245285
0.635462587779443310865 266.08780679515274414 0.635462587779443310865 137.48114412883015234
0.800000000000011368684 298.92010807327397970 0.800000000000011368684 149.97884374492412007
1.007140329435344483500 334.59738241232861355 1.007140329435344483500 163.01016513066437597
1.267914553968907398485 373.22711458703486187 1.267914553968907398485 176.60918863626244502
1.596209851975117999245 414.89280783989772772 1.596209851975117999245 191.00931274268319271
2.009509145207687197399 459.78418225042457834 2.009509145207687197399 206.33725131575221212
2.529822128134725289783 508.01100215187989306 2.529822128134725289783 222.86030147259702971
3.184857364427983839050 559.83986516803190625 3.184857364427983839050 240.94205262734612916
4.009497869018204596614 615.48660059536962308 4.009497869018204596614 260.71789800706307005
5.009497869018190385759 673.16907709869258269 5.009497869018190385759 281.59401545331928673
6.009497869018190385759 723.27610368572925381 6.009497869018190385759 299.93531112147451267
7.009497869018204596614 767.77862232640336515 7.009497869018204596614 316.29332598546341160
8.009497869018190385759 807.91195524121314975 8.009497869018190385759 330.97458544243085043
9.009497869018204596614 844.50991796840764891 9.009497869018204596614 344.24953175464116839
10.009497869018190385759 878.16830951434542385 10.009497869018190385759 356.29239665861450703
11.009497869018190385759 909.33171347961194897 11.009497869018190385759 367.16511420566899915
12.009497869018204596614 938.34360412286173414 12.009497869018204596614 377.10724097417835310
13.009497869018190385759 965.47526796897432178 13.009497869018190385759 386.22153287435168068
14.009497869018204596614 990.94867415304327096 14.009497869018204596614 394.58345258014520596
15.009497869018190385759 1014.94289282122088025 15.009497869018190385759 402.28256548809878268
16.009497869018190385759 1037.60650247184139516 16.009497869018190385759 409.39677325212204551
17.009497869018204596614 1059.06954908359148249 17.009497869018204596614 415.99864700527365358
18.009497869018190385759 1079.44460397873422153 18.009497869018190385759 422.16312169129781751
19.009497869018204596614 1098.82735249422012203 19.009497869018204596614 427.90943823447014438
20.009497869018190385759 1117.30414011762445625 20.009497869018190385759 433.26616058822139621
21.009497869018190385759 1134.94570889774604439 21.009497869018190385759 438.25978689749047135
22.009497869018204596614 1151.81259363358822156 22.009497869018204596614 442.93381699265654561
23.009497869018190385759 1167.96013718262906877 23.009497869018190385759 447.30428540582533969
24.009497869018204596614 1183.43949757600580597 24.009497869018204596614 451.41761642740465277
25.009497869018204596614 1198.29864029314148866 25.009497869018204596614 455.29543651983749442
26.009497869018190385759 1212.57978554366309254 26.009497869018190385759 458.96048152784146623
27.009497869018204596614 1226.32144561550080653 27.009497869018204596614 462.43757461399007980
28.009497869018190385759 1239.55706877113425435 28.009497869018190385759 465.73493882160113344
29.009497869018190385759 1252.31665669634912774 29.009497869018190385759 468.83875676141860822
30.009497869018190385759 1264.62805068812690479 30.009497869018190385759 471.81156036968451417
31.009497869018218807469 1276.51675447068055291 31.009497869018218807469 474.63203961790560470
32.009497869018190385759 1288.00625938871507969 32.009497869018190385759 477.31163004770360203
33.009497869018190385759 1299.11830637273669709 33.009497869018190385759 479.84637048696100692
34.009497869018218807469 1309.87379948078341840 34.009497869018218807469 482.28894076943123537
35.009497869018190385759 1320.29136230267363317 35.009497869018190385759 484.61697864782968281
36.009497869018190385759 1330.38821073164149311 36.009497869018190385759 486.86081769767093874
37.009497869018190385759 1340.18029257531929943 37.009497869018190385759 489.01843655457940940
38.009497869018218807469 1349.68279611724096867 38.009497869018218807469 491.09939262577285035
39.009497869018190385759 1358.90961717010600296 39.009497869018190385759 493.11821112863771077
40.009497869018190385759 1367.87376834582505580 40.009497869018190385759 495.06857797450999215
41.009497869018218807469 1376.58774596169246252 41.009497869018218807469 496.94884450186356162
42.009497869018190385759 1385.06299118262131742 42.009497869018190385759 498.75221085250734632
43.009497869018190385759 1393.31025706984860335 43.009497869018190385759 500.51623028794756465
44.009497869018218807469 1401.33994340256913347 44.009497869018218807469 502.18072187949900353
46.009497869018190385759 1416.78535678402749909 46.009497869018190385759 505.37724802163495497
48.009497869018218807469 1431.46582289777393271 48.009497869018218807469 508.34204143942508836
50.009497869018190385759 1445.43448503777972292 50.009497869018190385759 510.98261687372058759
52.009497869018190385759 1458.74416383066682101 52.009497869018190385759 513.37833198522002931
54.009497869018218807469 1471.44501015893797558 54.009497869018218807469 515.56319172944722595
56.009497869018190385759 1483.57674983896663434 56.009497869018190385759 517.56018397221123450
58.009497869018218807469 1495.17400740541597770 58.009497869018218807469 519.44844604063837323
60.009497869018190385759 1506.27094537899643001 60.009497869018190385759 521.35618864191235389
62.009497869018190385759 1516.89633887807258361 62.009497869018190385759 523.21948690516308034
64.009497869018218807469 1527.08021205015279520 64.009497869018218807469 525.03800738659481340
66.009497869018190385759 1536.86267117018064710 66.009497869018190385759 526.99437871331474526
68.009497869018190385759 1546.27836720732898357 68.009497869018190385759 528.99099585260864842
70.009497869018190385759 1555.34822853506534557 70.009497869018190385759 530.70886004660053459
72.009497869018190385759 1564.09399881631838980 72.009497869018190385759 532.11899367494629587
74.009497869018218807469 1572.53581634394026878 74.009497869018218807469 533.45198371438277718
76.009497869018190385759 1580.68987048226063052 76.009497869018190385759 534.71161647526412253
78.009497869018190385759 1588.57689653389184059 78.009497869018190385759 536.13321638111960965
80.009497869018218807469 1596.20975912045128098 80.009497869018218807469 537.18772489189780117
82.009497869018190385759 1603.58837773739469412 82.009497869018190385759 538.38673038793945125
84.009497869018218807469 1610.71634231380471647 84.009497869018218807469 539.43174261033834682
86.009497869018190385759 1617.59953952548926281 86.009497869018190385759 540.02215006162282407
88.009497869018190385759 1624.25455188916930638 88.009497869018190385759 540.73602802625941877
91.009497869018218807469 1633.82460700549995636 91.009497869018218807469 541.57645740900829878
94.009497869018218807469 1642.93234546060716639 94.009497869018218807469 542.79109726707451955
97.009497869018218807469 1651.64013205901369474 97.009497869018218807469 544.68180817453605869
99.504748934509137825444 1658.62329214052510906 99.504748934509137825444 545.07226923383984740
nan nan nan nan

