Time Pressure difference Time.1 Pressure.1 difference.1
(hr) (psi) (hr) (psi)
0.000200000000020850166 0.19150622931685202 0.000200000000020850166 0.15420985367321427
0.000399999999999067768 0.36739867831159623 0.000399999999999067768 0.35330993858206911
0.000600000000019917934 0.53426412593683992 0.000600000000019917934 0.49636701150878515
0.000799999999998135536 0.69437263779435565 0.000799999999998135536 0.63352669754391788
0.001007140329434719206 0.85443255919522243 0.001007140329434719206 0.77003631000822514
0.001267914553977789183 1.04898378008515158 0.001267914553977789183 0.93425501227899599
0.001596209851982166583 1.28466726810723753 0.001596209851982166583 1.12957456746860951
0.002009509145224797066 1.56916353525571783 0.002009509145224797066 1.36072647172298344
0.002529822128153114136 1.91129199449929410 0.002529822128153114136 1.63286568421593548
0.003184857364431081805 2.32110638452284856 0.003184857364431081805 1.95155018433844041
0.004009497869034817086 2.80998460898453795 0.004009497869034817086 2.32271587405959545
0.005047658755856332391 3.39071245635756613 0.005047658755856332391 2.75265287799991176
0.006354625877790454069 4.07756231679333592 0.006354625877790454069 3.24799144695622655
0.008000000000009777068 4.88637011596528392 0.008000000000009777068 3.81570727243227203
0.010071403294361402914 5.83461606403944177 0.010071403294361402914 4.46315653145811453
0.012679145539692626699 6.94151714365134165 0.012679145539692626699 5.19814933766321374
0.015962098519750611558 8.22814086142463275 0.015962098519750611558 6.02906454671193437
0.020095091452091651263 9.71754944790076536 0.020095091452091651263 6.96499907225163195
0.025298221281360611101 11.43498074322826419 0.025298221281360611101 8.01594154585252738
0.031848573644296607199 13.40807008143180390 0.031848573644296607199 9.19298566519333882
0.040094978690191851456 15.66712620603602701 0.040094978690191851456 10.50865023584495361
0.050476587558435426217 18.24549599126364896 0.050476587558435426217 11.97736135605696894
0.063546258777947173257 21.18005596044202932 0.063546258777947173257 13.61593417289916452
0.080000000000012505552 24.51178973255030868 0.080000000000012505552 15.44348313188577393
0.100714032943542974863 28.28622551605720048 0.100714032943542974863 17.47995941815219823
0.126791455396883634421 32.55332299417434427 0.126791455396883634421 19.74288403416530713
0.159620985197506115583 37.36638451538957639 0.159620985197506115583 22.24295012257403670
0.200950914520774404082 42.77988980443781486 0.200950914520774404082 24.98024606879766907
0.252982212813464002465 48.84663489576767148 0.252982212813464002465 27.94330408454683834
0.318485736442809752589 55.61508715930634850 0.318485736442809752589 31.11029143568069699
0.400949786901833249431 63.12702070797595155 0.400949786901833249431 34.45655576471972381
0.504765875584169521062 71.41826840845976676 0.504765875584169521062 37.95904549309805276
0.635462587779443310865 80.51829614605094321 0.635462587779443310865 41.60185921628902861
0.800000000000011368684 90.45336603635712436 0.800000000000011368684 45.38366902919689494
1.007140329435344483500 101.24932612004269572 1.007140329435344483500 49.32695304190316676
1.267914553968907398485 112.93870134075758926 1.267914553968907398485 53.44202398449548497
1.596209851975117999245 125.54675981916527405 1.596209851975117999245 57.79950834766772516
2.009509145207687197399 139.13091094102682632 2.009509145207687197399 62.43774980713070022
2.529822128134725289783 153.72436944548610427 2.529822128134725289783 67.43763259690878442
3.184857364427983839050 169.40780789954629881 3.184857364427983839050 72.90917904562719798
4.009497869018204596614 186.24653635037191179 4.009497869018204596614 78.89335920781104505
5.009497869018190385759 203.70128101331596326 5.009497869018190385759 85.21048221755287955
6.009497869018190385759 218.86369094981876060 6.009497869018190385759 90.76056695874405023
7.009497869018204596614 232.33017413186675526 7.009497869018204596614 95.71050999087309208
8.009497869018190385759 244.47453964745929511 8.009497869018190385759 100.15306604404527491
9.009497869018204596614 255.54910047270962536 9.009497869018204596614 104.17007107469045479
10.009497869018190385759 265.73414566864352082 10.009497869018190385759 107.81424768865876729
11.009497869018190385759 275.16420644300313825 11.009497869018190385759 111.10433715916225594
12.009497869018204596614 283.94321826885652627 12.009497869018204596614 114.11282942008234897
13.009497869018190385759 292.15327257690000806 13.009497869018190385759 116.87081845843266592
14.009497869018204596614 299.86153733236301377 14.009497869018204596614 119.40113931503212541
15.009497869018190385759 307.12219924613776811 15.009497869018190385759 121.73089452122138709
16.009497869018190385759 313.98021824207017971 16.009497869018190385759 123.88365715430643377
17.009497869018204596614 320.47494629479842843 17.009497869018204596614 125.88138727346341739
18.009497869018190385759 326.64044753966430790 18.009497869018190385759 127.74676022809957487
19.009497869018204596614 332.50567640487042809 19.009497869018204596614 129.48559833099804450
20.009497869018190385759 338.09676107578229676 20.009497869018190385759 131.10654504797244613
21.009497869018190385759 343.43510812981440949 21.009497869018190385759 132.61761873020986968
22.009497869018204596614 348.53903542576659902 22.009497869018204596614 134.03198244695045105
23.009497869018190385759 353.42528973847879570 23.009497869018190385759 135.35448825519065963
24.009497869018204596614 358.10935151236111551 24.009497869018204596614 136.59918416715791523
25.009497869018204596614 362.60573512416573294 25.009497869018204596614 137.77261436061274935
26.009497869018190385759 366.92721642928813708 26.009497869018190385759 138.88165871291656117
27.009497869018204596614 371.08544926426503707 27.009497869018204596614 139.93382872480077594
28.009497869018190385759 375.09055508913758104 28.009497869018190385759 140.93161269306133931
29.009497869018190385759 378.95161242820961434 29.009497869018190385759 141.87082946917632853
30.009497869018190385759 382.67704607111170390 30.009497869018190385759 142.77040124661846221
31.009497869018218807469 386.27457345684899792 31.009497869018218807469 143.62387960069011683
32.009497869018190385759 389.75130307743620506 32.009497869018190385759 144.43472493169281279
33.009497869018190385759 393.11381374872411243 33.009497869018190385759 145.20173858707096315
34.009497869018218807469 396.36843104855864794 34.009497869018218807469 145.94086150942601421
35.009497869018190385759 399.52079048402418948 35.009497869018190385759 146.64532687215648821
36.009497869018190385759 402.57610159255341387 36.009497869018190385759 147.32431362955526311
37.009497869018190385759 405.53919018827633636 37.009497869018190385759 147.97721011580651407
38.009497869018218807469 408.41465225297127972 38.009497869018218807469 148.60690840685325043
39.009497869018190385759 411.20669266613134596 39.009497869018190385759 149.21780384034428835
40.009497869018190385759 413.91924905027332215 40.009497869018190385759 149.80798577006447658
41.009497869018218807469 416.55610279691870801 41.009497869018218807469 150.37695531025659079
42.009497869018190385759 419.12071600797997917 42.009497869018190385759 150.92265482061685589
43.009497869018190385759 421.61634256487150196 43.009497869018190385759 151.45644793583284127
44.009497869018218807469 424.04612944569464617 44.009497869018218807469 151.96012387842998237
46.009497869018190385759 428.71991883771988796 46.009497869018190385759 152.92739420040018672
48.009497869018218807469 433.16223482485827390 48.009497869018218807469 153.82454209041705440
50.009497869018190385759 437.38915859299237354 50.009497869018190385759 154.62358146533389913
52.009497869018190385759 441.41667368871242161 52.009497869018190385759 155.34852599079945890
54.009497869018218807469 445.25995579277559955 54.009497869018218807469 156.00966558243322879
56.009497869018190385759 448.93102595599935967 56.009497869018190385759 156.61395637929797431
58.009497869018218807469 452.44036157894385042 58.009497869018218807469 157.18534537399929718
60.009497869018190385759 455.79830025652842096 60.009497869018190385759 157.76262918715079309
62.009497869018190385759 459.01354935317561967 62.009497869018190385759 158.32646412260251623
64.009497869018218807469 462.09519419011718355 64.009497869018218807469 158.87674928010434883
66.009497869018190385759 465.05537094511379337 66.009497869018190385759 159.46874816856805523
68.009497869018190385759 467.90456501782057330 68.009497869018190385759 160.07292545894540581
70.009497869018190385759 470.64910934394413289 70.009497869018190385759 160.59275197627627563
72.009497869018190385759 473.29558356616723813 72.009497869018190385759 161.01945907894355514
74.009497869018218807469 475.85008154142872172 74.009497869018218807469 161.42282249513237957
76.009497869018190385759 478.31750217902919076 76.009497869018190385759 161.80398796414610274
78.009497869018190385759 480.70411999134319103 78.009497869018190385759 162.23416476780923290
80.009497869018218807469 483.01382781895455309 80.009497869018218807469 162.55325954175631864
82.009497869018190385759 485.24660130115017864 82.009497869018190385759 162.91607917176418141
84.009497869018218807469 487.40352675216792022 84.009497869018218807469 163.23230036435771240
86.009497869018190385759 489.48638548289039818 86.009497869018190385759 163.41095793826883664
88.009497869018190385759 491.50019537071790410 88.009497869018190385759 163.62697774789882033
91.009497869018218807469 494.39609857376836999 91.009497869018218807469 163.88129207648478314
94.009497869018218807469 497.15210453654299272 94.009497869018218807469 164.24884267183344377
97.009497869018218807469 499.78708487837769781 97.009497869018218807469 164.82097268638443666
99.504748934509137825444 501.90019242077357831 99.504748934509137825444 164.93912638754488853
nan nan nan nan

